# 4.83863e-06 1 47 : grain size, compostion index, size index
# Heating and cooling timescale: 3.55134 373195
# Ratio of heating to cooling to determine stochastic cutoff: 100
# Equilibrium emission is recorded even for those grains in the stochastic regime.
# Emission spectrum was computed for: 
# Type: ISRF
# Scales: 0.25 0.5 1 1.5 2 2.5 3 3.5 4 4.5 5 5.5 6 6.5 7 7.5 8 8.5 9 9.5 10
# StochasticallyHeated: 0 0 0 0 0 0 0 0 0 0 0 0 0 0 0 0 0 0 0 0 0
# Temperature: -1
# Wavelength  CExt  CAbs  CSca  Albedo G EqEm1 StEm1 EqEm2 StEm2 EqEm3 StEm3 EqEm4 StEm4 EqEm5 StEm5 EqEm6 StEm6 EqEm7 StEm7 EqEm8 StEm8 EqEm9 StEm9 EqEm10 StEm10 EqEm11 StEm11 EqEm12 StEm12 EqEm13 StEm13 EqEm14 StEm14 EqEm15 StEm15 EqEm16 StEm16 EqEm17 StEm17 EqEm18 StEm18 EqEm19 StEm19 EqEm20 StEm20 EqEm21 StEm21
0.05 1.47019e-10 7.58454e-11 7.11731e-11 0.48411 0.884487 0 0 0 0 0 0 0 0 0 0 0 0 0 0 0 0 0 0 0 0 0 0 0 0 0 0 0 0 0 0 0 0 0 0 0 0 0 0 0 0 0 0
0.0525665 1.48921e-10 7.68075e-11 7.21131e-11 0.484239 0.875451 0 0 0 0 0 0 0 0 0 0 0 0 0 0 0 0 0 0 0 0 0 0 0 0 0 0 0 0 0 0 0 0 0 0 0 0 0 0 0 0 0 0
0.0552647 1.5145e-10 7.74575e-11 7.39923e-11 0.48856 0.863578 0 0 0 0 0 0 0 0 0 0 0 0 0 0 0 0 0 0 0 0 0 0 0 0 0 0 0 0 0 0 0 0 0 0 0 0 0 0 0 0 0 0
0.0581015 1.55706e-10 7.83309e-11 7.7375e-11 0.49693 0.847388 0 0 0 0 0 0 0 0 0 0 0 0 0 0 0 0 0 0 0 0 0 0 0 0 0 0 0 0 0 0 0 0 0 0 0 0 0 0 0 0 0 0
0.0610839 1.61604e-10 8.02876e-11 8.13161e-11 0.503182 0.829951 0 0 0 0 0 0 0 0 0 0 0 0 0 0 0 0 0 0 0 0 0 0 0 0 0 0 0 0 0 0 0 0 0 0 0 0 0 0 0 0 0 0
0.0642193 1.6791e-10 8.32489e-11 8.46607e-11 0.504204 0.815305 0 0 0 0 0 0 0 0 0 0 0 0 0 0 0 0 0 0 0 0 0 0 0 0 0 0 0 0 0 0 0 0 0 0 0 0 0 0 0 0 0 0
0.0675157 1.74009e-10 8.67288e-11 8.72801e-11 0.501584 0.803957 0 0 0 0 0 0 0 0 0 0 0 0 0 0 0 0 0 0 0 0 0 0 0 0 0 0 0 0 0 0 0 0 0 0 0 0 0 0 0 0 0 0
0.0709813 1.79627e-10 9.0357e-11 8.92702e-11 0.496975 0.795196 0 0 0 0 0 0 0 0 0 0 0 0 0 0 0 0 0 0 0 0 0 0 0 0 0 0 0 0 0 0 0 0 0 0 0 0 0 0 0 0 0 0
0.0746248 1.84527e-10 9.38414e-11 9.06855e-11 0.491449 0.788364 0 0 0 0 0 0 0 0 0 0 0 0 0 0 0 0 0 0 0 0 0 0 0 0 0 0 0 0 0 0 0 0 0 0 0 0 0 0 0 0 0 0
0.0784553 1.8838e-10 9.70331e-11 9.13473e-11 0.484909 0.783696 0 0 0 0 0 0 0 0 0 0 0 0 0 0 0 0 0 0 0 0 0 0 0 0 0 0 0 0 0 0 0 0 0 0 0 0 0 0 0 0 0 0
0.0824824 1.90851e-10 9.99961e-11 9.08548e-11 0.476051 0.782265 0 0 0 0 0 0 0 0 0 0 0 0 0 0 0 0 0 0 0 0 0 0 0 0 0 0 0 0 0 0 0 0 0 0 0 0 0 0 0 0 0 0
0.0867162 1.91378e-10 1.01619e-10 8.97584e-11 0.469012 0.777436 0 0 0 0 0 0 0 0 0 0 0 0 0 0 0 0 0 0 0 0 0 0 0 0 0 0 0 0 0 0 0 0 0 0 0 0 0 0 0 0 0 0
0.0911674 1.94673e-10 1.03149e-10 9.15235e-11 0.470141 0.764313 0 0 0 0 0 0 0 0 0 0 0 0 0 0 0 0 0 0 0 0 0 0 0 0 0 0 0 0 0 0 0 0 0 0 0 0 0 0 0 0 0 0
0.095847 1.986e-10 1.05077e-10 9.35233e-11 0.470913 0.753241 0 0 0 0 0 0 0 0 0 0 0 0 0 0 0 0 0 0 0 0 0 0 0 0 0 0 0 0 0 0 0 0 0 0 0 0 0 0 0 0 0 0
0.100767 2.0186e-10 1.07004e-10 9.48557e-11 0.469909 0.744407 0 0 0 0 0 0 0 0 0 0 0 0 0 0 0 0 0 0 0 0 0 0 0 0 0 0 0 0 0 0 0 0 0 0 0 0 0 0 0 0 0 0
0.105939 2.05009e-10 1.09397e-10 9.56118e-11 0.466379 0.739045 0 0 0 0 0 0 0 0 0 0 0 0 0 0 0 0 0 0 0 0 0 0 0 0 0 0 0 0 0 0 0 0 0 0 0 0 0 0 0 0 0 0
0.111377 2.07604e-10 1.11612e-10 9.59928e-11 0.462383 0.733002 0 0 0 0 0 0 0 0 0 0 0 0 0 0 0 0 0 0 0 0 0 0 0 0 0 0 0 0 0 0 0 0 0 0 0 0 0 0 0 0 0 0
0.117094 2.10255e-10 1.13185e-10 9.70702e-11 0.461678 0.722182 0 0 0 0 0 0 0 0 0 0 0 0 0 0 0 0 0 0 0 0 0 0 0 0 0 0 0 0 0 0 0 0 0 0 0 0 0 0 0 0 0 0
0.123105 2.13379e-10 1.14276e-10 9.91034e-11 0.464447 0.708076 0 0 0 0 0 0 0 0 0 0 0 0 0 0 0 0 0 0 0 0 0 0 0 0 0 0 0 0 0 0 0 0 0 0 0 0 0 0 0 0 0 0
0.129424 2.17834e-10 1.15435e-10 1.02399e-10 0.470079 0.693426 0 0 0 0 0 0 0 0 0 0 0 0 0 0 0 0 0 0 0 0 0 0 0 0 0 0 0 0 0 0 0 0 0 0 0 0 0 0 0 0 0 0
0.136067 2.24291e-10 1.17195e-10 1.07097e-10 0.477489 0.680209 0 0 0 0 0 0 0 0 0 0 0 0 0 0 0 0 0 0 0 0 0 0 0 0 0 0 0 0 0 0 0 0 0 0 0 0 0 0 0 0 0 0
0.143051 2.33538e-10 1.1972e-10 1.13818e-10 0.487365 0.666771 0 0 0 0 0 0 0 0 0 0 0 0 0 0 0 0 0 0 0 0 0 0 0 0 0 0 0 0 0 0 0 0 0 0 0 0 0 0 0 0 0 0
0.150394 2.51528e-10 1.22176e-10 1.29351e-10 0.514262 0.655417 0 0 0 0 0 0 0 0 0 0 0 0 0 0 0 0 0 0 0 0 0 0 0 0 0 0 0 0 0 0 0 0 0 0 0 0 0 0 0 0 0 0
0.158114 2.73471e-10 1.17649e-10 1.55822e-10 0.569792 0.634754 0 0 0 0 0 0 0 0 0 0 0 0 0 0 0 0 0 0 0 0 0 0 0 0 0 0 0 0 0 0 0 0 0 0 0 0 0 0 0 0 0 0
0.16623 2.72397e-10 9.13828e-11 1.81014e-10 0.664523 0.566543 0 0 0 0 0 0 0 0 0 0 0 0 0 0 0 0 0 0 0 0 0 0 0 0 0 0 0 0 0 0 0 0 0 0 0 0 0 0 0 0 0 0
0.174762 2.60932e-10 6.25181e-11 1.98414e-10 0.760405 0.506334 0 0 0 0 0 0 0 0 0 0 0 0 0 0 0 0 0 0 0 0 0 0 0 0 0 0 0 0 0 0 0 0 0 0 0 0 0 0 0 0 0 0
0.183733 2.63105e-10 4.72818e-11 2.15824e-10 0.820293 0.497543 0 0 0 0 0 0 0 0 0 0 0 0 0 0 0 0 0 0 0 0 0 0 0 0 0 0 0 0 0 0 0 0 0 0 0 0 0 0 0 0 0 0
0.193164 2.5868e-10 3.8951e-11 2.19729e-10 0.849424 0.530336 0 0 0 0 0 0 0 0 0 0 0 0 0 0 0 0 0 0 0 0 0 0 0 0 0 0 0 0 0 0 0 0 0 0 0 0 0 0 0 0 0 0
0.203079 2.20591e-10 2.8758e-11 1.91833e-10 0.869632 0.565202 0 0 0 0 0 0 0 0 0 0 0 0 0 0 0 0 0 0 0 0 0 0 0 0 0 0 0 0 0 0 0 0 0 0 0 0 0 0 0 0 0 0
0.213503 1.65576e-10 1.87635e-11 1.46812e-10 0.886677 0.55947 0 0 0 0 0 0 0 0 0 0 0 0 0 0 0 0 0 0 0 0 0 0 0 0 0 0 0 0 0 0 0 0 0 0 0 0 0 0 0 0 0 0
0.224463 1.24046e-10 1.30886e-11 1.10957e-10 0.894486 0.511802 0 0 0 0 0 0 0 0 0 0 0 0 0 0 0 0 0 0 0 0 0 0 0 0 0 0 0 0 0 0 0 0 0 0 0 0 0 0 0 0 0 0
0.235984 9.78547e-11 1.05748e-11 8.72799e-11 0.891934 0.449677 0 0 0 0 0 0 0 0 0 0 0 0 0 0 0 0 0 0 0 0 0 0 0 0 0 0 0 0 0 0 0 0 0 0 0 0 0 0 0 0 0 0
0.248097 8.00941e-11 9.31179e-12 7.07823e-11 0.883739 0.390882 0 0 0 0 0 0 0 0 0 0 0 0 0 0 0 0 0 0 0 0 0 0 0 0 0 0 0 0 0 0 0 0 0 0 0 0 0 0 0 0 0 0
0.260832 6.64847e-11 8.2936e-12 5.81911e-11 0.875255 0.339856 0 0 0 0 0 0 0 0 0 0 0 0 0 0 0 0 0 0 0 0 0 0 0 0 0 0 0 0 0 0 0 0 0 0 0 0 0 0 0 0 0 0
0.274221 5.54642e-11 7.47633e-12 4.79879e-11 0.865204 0.296875 0 0 0 0 0 0 0 0 0 0 0 0 0 0 0 0 0 0 0 0 0 0 0 0 0 0 0 0 0 0 0 0 0 0 0 0 0 0 0 0 0 0
0.288297 4.6363e-11 6.8034e-12 3.95596e-11 0.853258 0.260988 0 0 0 0 0 0 0 0 0 0 0 0 0 0 0 0 0 0 0 0 0 0 0 0 0 0 0 0 0 0 0 0 0 0 0 0 0 0 0 0 0 0
0.303095 3.87586e-11 6.23265e-12 3.25259e-11 0.839193 0.230729 0 0 0 0 0 0 0 0 0 0 0 0 0 0 0 0 0 0 0 0 0 0 0 0 0 0 0 0 0 0 0 0 0 0 0 0 0 0 0 0 0 0
0.318653 3.23789e-11 5.72973e-12 2.66492e-11 0.823041 0.204944 0 0 0 0 0 0 0 0 0 0 0 0 0 0 0 0 0 0 0 0 0 0 0 0 0 0 0 0 0 0 0 0 0 0 0 0 0 0 0 0 0 0
0.335009 2.7065e-11 5.28145e-12 2.17836e-11 0.80486 0.182811 0 0 0 0 0 0 0 0 0 0 0 0 0 0 0 0 0 0 0 0 0 0 0 0 0 0 0 0 0 0 0 0 0 0 0 0 0 0 0 0 0 0
0.352205 2.26457e-11 4.87904e-12 1.77667e-11 0.784549 0.163609 0 0 0 0 0 0 0 0 0 0 0 0 0 0 0 0 0 0 0 0 0 0 0 0 0 0 0 0 0 0 0 0 0 0 0 0 0 0 0 0 0 0
0.370284 1.8976e-11 4.5139e-12 1.44621e-11 0.762126 0.146791 0 0 0 0 0 0 0 0 0 0 0 0 0 0 0 0 0 0 0 0 0 0 0 0 0 0 0 0 0 0 0 0 0 0 0 0 0 0 0 0 0 0
0.389291 1.59457e-11 4.18327e-12 1.17624e-11 0.737655 0.13198 0 0 0 0 0 0 0 0 0 0 0 0 0 0 0 0 0 0 0 0 0 0 0 0 0 0 0 0 0 0 0 0 0 0 0 0 0 0 0 0 0 0
0.409273 1.34482e-11 3.88115e-12 9.56709e-12 0.711401 0.118884 0 0 0 0 0 0 0 0 0 0 0 0 0 0 0 0 0 0 0 0 0 0 0 0 0 0 0 0 0 0 0 0 0 0 0 0 0 0 0 0 0 0
0.430281 1.13781e-11 3.60455e-12 7.77359e-12 0.683204 0.107208 0 0 0 0 0 0 0 0 0 0 0 0 0 0 0 0 0 0 0 0 0 0 0 0 0 0 0 0 0 0 0 0 0 0 0 0 0 0 0 0 0 0
0.452368 9.67215e-12 3.35279e-12 6.31936e-12 0.653356 0.0967839 0 0 0 0 0 0 0 0 0 0 0 0 0 0 0 0 0 0 0 0 0 0 0 0 0 0 0 0 0 0 0 0 0 0 0 0 0 0 0 0 0 0
0.475588 8.25868e-12 3.12267e-12 5.13601e-12 0.621893 0.0874346 0 0 0 0 0 0 0 0 0 0 0 0 0 0 0 0 0 0 0 0 0 0 0 0 0 0 0 0 0 0 0 0 0 0 0 0 0 0 0 0 0 0
0.5 7.09069e-12 2.91337e-12 4.17732e-12 0.589127 0.079048 0 0 0 0 0 0 0 0 0 0 0 0 0 0 0 0 0 0 0 0 0 0 0 0 0 0 0 0 0 0 0 0 0 0 0 0 0 0 0 0 0 0
0.525665 6.11953e-12 2.72227e-12 3.39726e-12 0.555151 0.0714906 0 0 0 0 0 0 0 0 0 0 0 0 0 0 0 0 0 0 0 0 0 0 0 0 0 0 0 0 0 0 0 0 0 0 0 0 0 0 0 0 0 0
0.552648 5.3094e-12 2.54758e-12 2.76182e-12 0.520176 0.0646667 0 0 0 0 0 0 0 0 0 0 0 0 0 0 0 0 0 0 0 0 0 0 0 0 0 0 0 0 0 0 0 0 0 0 0 0 0 0 0 0 0 0
0.581015 4.63642e-12 2.38661e-12 2.24981e-12 0.485248 0.0585295 0 0 0 0 0 0 0 0 0 0 0 0 0 0 0 0 0 0 0 0 0 0 0 0 0 0 0 0 0 0 0 0 0 0 0 0 0 0 0 0 0 0
0.610839 4.07215e-12 2.23912e-12 1.83303e-12 0.450139 0.0529831 0 0 0 0 0 0 0 0 0 0 0 0 0 0 0 0 0 0 0 0 0 0 0 0 0 0 0 0 0 0 0 0 0 0 0 0 0 0 0 0 0 0
0.642193 3.59659e-12 2.10355e-12 1.49304e-12 0.415126 0.0479608 0 0 0 0 0 0 0 0 0 0 0 0 0 0 0 0 0 0 0 0 0 0 0 0 0 0 0 0 0 0 0 0 0 0 0 0 0 0 0 0 0 0
0.675157 3.19546e-12 1.97893e-12 1.21653e-12 0.380706 0.043417 0 0 0 0 0 0 0 0 0 0 0 0 0 0 0 0 0 0 0 0 0 0 0 0 0 0 0 0 0 0 0 0 0 0 0 0 0 0 0 0 0 0
0.709813 2.85677e-12 1.86438e-12 9.92393e-13 0.347382 0.0393142 0 0 0 0 0 0 0 0 0 0 0 0 0 0 0 0 0 0 0 0 0 0 0 0 0 0 0 0 0 0 0 0 0 0 0 0 0 0 0 0 0 0
0.746248 2.56824e-12 1.75864e-12 8.09597e-13 0.315234 0.0355976 0 0 0 0 0 0 0 0 0 0 0 0 0 0 0 0 0 0 0 0 0 0 0 0 0 0 0 0 0 0 0 0 0 0 0 0 0 0 0 0 0 0
0.784553 2.32107e-12 1.66069e-12 6.60374e-13 0.284513 0.0322288 0 0 0 0 0 0 0 0 0 0 0 0 0 0 0 0 0 0 0 0 0 0 0 0 0 0 0 0 0 0 0 0 0 0 0 0 0 0 0 0 0 0
0.824824 2.10806e-12 1.56909e-12 5.38963e-13 0.255668 0.02918 0 0 0 0 0 0 0 0 0 0 0 0 0 0 0 0 0 0 0 0 0 0 0 0 0 0 0 0 0 0 0 0 0 0 0 0 0 0 0 0 0 0
0.867162 1.92396e-12 1.48364e-12 4.40324e-13 0.228863 0.0264245 0 0 0 0 0 0 0 0 0 0 0 0 0 0 0 0 0 0 0 0 0 0 0 0 0 0 0 0 0 0 0 0 0 0 0 0 0 0 0 0 0 0
0.911674 1.76356e-12 1.40385e-12 3.59709e-13 0.203968 0.0239264 0 0 0 0 0 0 0 0 0 0 0 0 0 0 0 0 0 0 0 0 0 0 0 0 0 0 0 0 0 0 0 0 0 0 0 0 0 0 0 0 0 0
0.95847 1.62277e-12 1.3289e-12 2.93864e-13 0.181088 0.0216625 0 0 0 0 0 0 0 0 0 0 0 0 0 0 0 0 0 0 0 0 0 0 0 0 0 0 0 0 0 0 0 0 0 0 0 0 0 0 0 0 0 0
1.00767 1.49921e-12 1.25904e-12 2.40168e-13 0.160197 0.0196133 0 0 0 0 0 0 0 0 0 0 0 0 0 0 0 0 0 0 0 0 0 0 0 0 0 0 0 0 0 0 0 0 0 0 0 0 0 0 0 0 0 0
1.05939 1.39042e-12 1.19409e-12 1.96327e-13 0.1412 0.0177577 0 0 0 0 0 0 0 0 0 0 0 0 0 0 0 0 0 0 0 0 0 0 0 0 0 0 0 0 0 0 0 0 0 0 0 0 0 0 0 0 0 0
1.11377 1.2937e-12 1.13323e-12 1.60464e-13 0.124035 0.0160756 0 0 0 0 0 0 0 0 0 0 0 0 0 0 0 0 0 0 0 0 0 0 0 0 0 0 0 0 0 0 0 0 0 0 0 0 0 0 0 0 0 0
1.17094 1.20704e-12 1.07593e-12 1.31115e-13 0.108625 0.0145507 0 0 0 0 0 0 0 0 0 0 0 0 0 0 0 0 0 0 0 0 0 0 0 0 0 0 0 0 0 0 0 0 0 0 0 0 0 0 0 0 0 0
1.23105 1.12933e-12 1.02213e-12 1.07198e-13 0.094922 0.0131718 0 0 0 0 0 0 0 0 0 0 0 0 0 0 0 0 0 0 0 0 0 0 0 0 0 0 0 0 0 0 0 0 0 0 0 0 0 0 0 0 0 0
1.29424 1.06159e-12 9.73974e-13 8.76206e-14 0.0825367 0.011922 0 0 0 0 0 0 0 0 0 0 0 0 0 0 0 0 0 0 0 0 0 0 0 0 0 0 0 0 0 0 0 0 0 0 0 0 0 0 0 0 0 0
1.36067 1.00089e-12 9.29236e-13 7.16535e-14 0.0715898 0.0107909 0 0 0 0 0 0 0 0 0 0 0 0 0 0 0 0 0 0 0 0 0 0 0 0 0 0 0 0 0 0 0 0 0 0 0 0 0 0 0 0 0 0
1.43051 9.45637e-13 8.8708e-13 5.85567e-14 0.061923 0.00976525 0 0 0 0 0 0 0 0 0 0 0 0 0 0 0 0 0 0 0 0 0 0 0 0 0 0 0 0 0 0 0 0 0 0 0 0 0 0 0 0 0 0
1.50394 8.95245e-13 8.47353e-13 4.7892e-14 0.053496 0.00883844 0 0 0 0 0 0 0 0 0 0 0 0 0 0 0 0 0 0 0 0 0 0 0 0 0 0 0 0 0 0 0 0 0 0 0 0 0 0 0 0 0 0
1.58114 8.48811e-13 8.0965e-13 3.9161e-14 0.0461363 0.00799869 0 0 0 0 0 0 0 0 0 0 0 0 0 0 0 0 0 0 0 0 0 0 0 0 0 0 0 0 0 0 0 0 0 0 0 0 0 0 0 0 0 0
1.6623 8.05807e-13 7.73811e-13 3.19968e-14 0.0397077 0.00723702 0 0 0 0 0 0 0 0 0 0 0 0 0 0 0 0 0 0 0 0 0 0 0 0 0 0 0 0 0 0 0 0 0 0 0 0 0 0 0 0 0 0
1.74763 7.66433e-13 7.40282e-13 2.61512e-14 0.0341207 0.00654817 0 0 0 0 0 0 0 0 0 0 0 0 0 0 0 0 0 0 0 0 0 0 0 0 0 0 0 0 0 0 0 0 0 0 0 0 0 0 0 0 0 0
1.83733 7.31171e-13 7.09801e-13 2.137e-14 0.0292271 0.00592452 0 0 0 0 0 0 0 0 0 0 0 0 0 0 0 0 0 0 0 0 0 0 0 0 0 0 0 0 0 0 0 0 0 0 0 0 0 0 0 0 0 0
1.93164 6.98925e-13 6.81468e-13 1.74563e-14 0.024976 0.00535951 0 0 0 0 0 0 0 0 0 0 0 0 0 0 0 0 0 0 0 0 0 0 0 0 0 0 0 0 0 0 0 0 0 0 0 0 0 0 0 0 0 0
2.03079 6.69113e-13 6.54855e-13 1.42579e-14 0.0213087 0.00484802 0 0 0 0 0 0 0 0 0 0 0 0 0 0 0 0 0 0 0 0 0 0 0 0 0 0 0 0 0 0 0 0 0 0 0 0 0 0 0 0 0 0
2.13503 6.41414e-13 6.29767e-13 1.16465e-14 0.0181576 0.0043855 0 0 0 0 0 0 0 0 0 0 0 0 0 0 0 0 0 0 0 0 0 0 0 0 0 0 0 0 0 0 0 0 0 0 0 0 0 0 0 0 0 0
2.24463 6.15995e-13 6.06487e-13 9.50767e-15 0.0154347 0.00396642 0 0 0 0 0 0 0 0 0 0 0 0 0 0 0 0 0 0 0 0 0 0 0 0 0 0 0 0 0 0 0 0 0 0 0 0 0 0 0 0 0 0
2.35984 5.92103e-13 5.84345e-13 7.75801e-15 0.0131025 0.00358687 0 0 0 0 0 0 0 0 0 0 0 0 0 0 0 0 0 0 0 0 0 0 0 0 0 0 0 0 0 0 0 0 0 0 0 0 0 0 0 0 0 0
2.48097 5.69817e-13 5.63492e-13 6.3244e-15 0.011099 0.0032429 0 0 0 0 0 0 0 0 0 0 0 0 0 0 0 0 0 0 0 0 0 0 0 0 0 0 0 0 0 0 0 0 0 0 0 0 0 0 0 0 0 0
2.60832 5.49418e-13 5.44261e-13 5.15747e-15 0.00938714 0.00293218 0 0 0 0 0 0 0 0 0 0 0 0 0 0 0 0 0 0 0 0 0 0 0 0 0 0 0 0 0 0 0 0 0 0 0 0 0 0 0 0 0 0
2.74221 5.30267e-13 5.26064e-13 4.20386e-15 0.00792782 0.00265087 0 0 0 0 0 0 0 0 0 0 0 0 0 0 0 0 0 0 0 0 0 0 0 0 0 0 0 0 0 0 0 0 0 0 0 0 0 0 0 0 0 0
2.88297 5.12633e-13 5.09212e-13 3.42079e-15 0.00667298 0.00239558 0 0 0 0 0 0 0 0 0 0 0 0 0 0 0 0 0 0 0 0 0 0 0 0 0 0 0 0 0 0 0 0 0 0 0 0 0 0 0 0 0 0
3.03095 4.96114e-13 4.93331e-13 2.78323e-15 0.00561006 0.00216485 0 0 0 0 0 0 0 0 0 0 0 0 0 0 0 0 0 0 0 0 0 0 0 0 0 0 0 0 0 0 0 0 0 0 0 0 0 0 0 0 0 0
3.18653 4.81737e-13 4.79474e-13 2.26342e-15 0.00469844 0.00195614 0 0 0 0 0 0 0 0 0 0 0 0 0 0 0 0 0 0 0 0 0 0 0 0 0 0 0 0 0 0 0 0 0 0 0 0 0 0 0 0 0 0
3.35009 4.6824e-13 4.66402e-13 1.83829e-15 0.00392596 0.00176701 0 0 0 0 0 0 0 0 0 0 0 0 0 0 0 0 0 0 0 0 0 0 0 0 0 0 0 0 0 0 0 0 0 0 0 0 0 0 0 0 0 0
3.52205 4.53776e-13 4.52285e-13 1.49039e-15 0.00328443 0.00159556 0 0 0 0 0 0 0 0 0 0 0 0 0 0 0 0 0 0 0 0 0 0 0 0 0 0 0 0 0 0 0 0 0 0 0 0 0 0 0 0 0 0
3.70284 4.39625e-13 4.38417e-13 1.20764e-15 0.00274698 0.00144066 0 0 0 0 0 0 0 0 0 0 0 0 0 0 0 0 0 0 0 0 0 0 0 0 0 0 0 0 0 0 0 0 0 0 0 0 0 0 0 0 0 0
3.89291 4.26017e-13 4.25041e-13 9.76586e-16 0.00229236 0.00130027 0 0 0 0 0 0 0 0 0 0 0 0 0 0 0 0 0 0 0 0 0 0 0 0 0 0 0 0 0 0 0 0 0 0 0 0 0 0 0 0 0 0
4.09273 4.13174e-13 4.12386e-13 7.87604e-16 0.00190623 0.0011729 0 0 0 0 0 0 0 0 0 0 0 0 0 0 0 0 0 0 0 0 0 0 0 0 0 0 0 0 0 0 0 0 0 0 0 0 0 0 0 0 0 0
4.30281 3.99808e-13 3.99174e-13 6.33408e-16 0.00158428 0.00105746 0 0 0 0 0 0 0 0 0 0 0 0 0 0 0 0 0 0 0 0 0 0 0 0 0 0 0 0 0 0 0 0 0 0 0 0 0 0 0 0 0 0
4.52368 3.87531e-13 3.87023e-13 5.08045e-16 0.00131098 0.000952963 0 0 0 0 0 0 0 0 0 0 0 0 0 0 0 0 0 0 0 0 0 0 0 0 0 0 0 0 0 0 0 0 0 0 0 0 0 0 0 0 0 0
4.75588 3.76886e-13 3.7648e-13 4.05809e-16 0.00107674 0.000858144 0 0 0 0 0 0 0 0 0 0 0 0 0 0 0 0 0 0 0 0 0 0 0 0 0 0 0 0 0 0 0 0 0 0 0 0 0 0 0 0 0 0
5 3.68872e-13 3.6855e-13 3.22139e-16 0.000873307 0.00077191 0 0 0 0 0 0 0 0 0 0 0 0 0 0 0 0 0 0 0 0 0 0 0 0 0 0 0 0 0 0 0 0 0 0 0 0 0 0 0 0 0 0
5.25665 3.64455e-13 3.642e-13 2.54083e-16 0.00069716 0.00069364 0 0 0 0 0 0 0 0 0 0 0 0 0 0 0 0 0 0 0 0 0 0 0 0 0 0 0 0 0 0 0 0 0 0 0 0 0 0 0 0 0 0
5.52648 3.63129e-13 3.6293e-13 1.99071e-16 0.00054821 0.000622704 0 0 0 0 0 0 0 0 0 0 0 0 0 0 0 0 0 0 0 0 0 0 0 0 0 0 0 0 0 0 0 0 0 0 0 0 0 0 0 0 0 0
5.81015 3.66698e-13 3.66544e-13 1.54108e-16 0.00042026 0.000558022 0 0 0 0 0 0 0 0 0 0 0 0 0 0 0 0 0 0 0 0 0 0 0 0 0 0 0 0 0 0 0 0 0 0 0 0 0 0 0 0 0 0
6.10839 3.73594e-13 3.73477e-13 1.17778e-16 0.000315256 0.000499226 0 0 0 0 0 0 0 0 0 0 0 0 0 0 0 0 0 0 0 0 0 0 0 0 0 0 0 0 0 0 0 0 1.4013e-45 0 4.2039e-45 0 1.12104e-44 0 2.52234e-44 0 5.88545e-44 0
6.42193 3.79031e-13 3.78943e-13 8.83811e-17 0.000233176 0.000445725 0 0 0 0 0 0 0 0 0 0 0 0 0 0 0 0 0 0 0 0 0 0 0 0 1.4013e-45 0 5.60519e-45 0 1.96182e-44 0 6.02558e-44 0 1.65353e-43 0 4.23192e-43 0 1.01874e-42 0 2.36119e-42 0 5.16378e-42 0
6.75157 3.79918e-13 3.79854e-13 6.38658e-17 0.000168104 0.000396314 0 0 0 0 0 0 0 0 0 0 0 0 0 0 0 0 0 0 1.4013e-45 0 9.80909e-45 0 4.34403e-44 0 1.66755e-43 0 5.78736e-43 0 1.81608e-42 0 5.182e-42 0 1.35197e-41 0 3.31141e-41 0 7.63848e-41 0 1.69926e-40 0 3.57702e-40 0
7.09813 3.85909e-13 3.85867e-13 4.27672e-17 0.000110822 0.000349804 0 0 0 0 0 0 0 0 0 0 0 0 0 0 2.8026e-45 0 2.8026e-44 0 1.75162e-43 0 8.88423e-43 0 3.7723e-42 0 1.36669e-41 0 4.46636e-41 0 1.32552e-40 0 3.59359e-40 0 8.94646e-40 0 2.09751e-39 0 4.64498e-39 0 9.93758e-39 0 2.01726e-38 0
7.46248 4.75374e-13 4.7535e-13 2.40953e-17 5.0687e-05 0.000304477 0 0 0 0 0 0 0 0 0 0 1.4013e-45 0 3.36312e-44 0 3.78351e-43 0 2.93712e-42 0 1.7243e-41 0 8.04682e-41 0 3.18578e-40 0 1.08375e-39 0 3.34268e-39 0 9.40714e-39 0 2.42913e-38 0 5.78407e-38 0 1.30083e-37 0 2.77103e-37 0 5.71231e-37 0 1.12016e-36 0
7.84553 9.23643e-13 9.23631e-13 1.2041e-17 1.30364e-05 0.00026131 0 0 0 0 0 0 0 0 9.80909e-45 0 3.48923e-43 0 5.63182e-42 0 5.62075e-41 0 3.951e-40 0 2.12786e-39 0 9.21105e-39 0 3.40973e-38 0 1.09263e-37 0 3.18975e-37 0 8.53452e-37 0 2.10406e-36 0 4.80224e-36 0 1.03811e-35 0 2.13123e-35 0 4.24094e-35 0 8.04733e-35 0
8.24824 1.9211e-12 1.92109e-12 1.47129e-17 7.65856e-06 0.000224576 0 0 0 0 0 0 2.24208e-44 0 1.99265e-42 0 5.68423e-41 0 8.01876e-40 0 7.15196e-39 0 4.57077e-38 0 2.26737e-37 0 9.13731e-37 0 3.17306e-36 0 9.60591e-36 0 2.66136e-35 0 6.78669e-35 0 1.60104e-34 0 3.50988e-34 0 7.30712e-34 0 1.44837e-33 0 2.7869e-33 0 5.12541e-33 0
8.67162 2.93206e-12 2.93203e-12 2.64651e-17 9.02611e-06 0.000195519 0 0 0 0 5.60519e-45 0 3.07585e-42 0 2.24289e-40 0 5.43074e-39 0 6.73246e-38 0 5.39627e-37 0 3.15012e-36 0 1.44511e-35 0 5.44057e-35 0 1.7779e-34 0 5.09894e-34 0 1.34412e-33 0 3.27448e-33 0 7.40778e-33 0 1.56291e-32 0 3.13935e-32 0 6.0182e-32 0 1.12158e-31 0 2.00225e-31 0
9.11674 4.32291e-12 4.32286e-12 5.16124e-17 1.19393e-05 0.000166629 0 0 0 0 7.27274e-43 0 3.30053e-40 0 1.95221e-38 0 4.04578e-37 0 4.43545e-36 0 3.21162e-35 0 1.72007e-34 0 7.32521e-34 0 2.58496e-33 0 7.97273e-33 0 2.1719e-32 0 5.46065e-32 0 1.2737e-31 0 2.76888e-31 0 5.63273e-31 0 1.09354e-30 0 2.03078e-30 0 3.67136e-30 0 6.37128e-30 0
9.5847 4.86497e-12 4.8649e-12 7.34344e-17 1.50945e-05 0.000149221 0 0 1.4013e-45 0 6.43252e-41 0 2.1664e-38 0 1.04995e-36 0 1.87658e-35 0 1.83033e-34 0 1.2032e-33 0 5.93712e-33 0 2.35573e-32 0 7.81666e-32 0 2.28188e-31 0 5.91937e-31 0 1.42276e-30 0 3.18417e-30 0 6.66449e-30 0 1.30955e-29 0 2.46135e-29 0 4.43482e-29 0 7.78903e-29 0 1.31581e-28 0
10.0767 4.35958e-12 4.35951e-12 7.06242e-17 1.61997e-05 0.000141713 0 0 1.20512e-43 0 3.61797e-39 0 9.17128e-37 0 3.67765e-35 0 5.70995e-34 0 4.98309e-33 0 2.98798e-32 0 1.36386e-31 0 5.05937e-31 0 1.58329e-30 0 4.38646e-30 0 1.08614e-29 0 2.50118e-29 0 5.38182e-29 0 1.08652e-28 0 2.06572e-28 0 3.7648e-28 0 6.59113e-28 0 1.12622e-27 0 1.85446e-27 0
10.5939 3.65755e-12 3.65748e-12 6.40404e-17 1.75091e-05 0.00013926 0 0 8.47926e-42 0 1.53763e-37 0 2.97472e-35 0 9.96128e-34 0 1.35277e-32 0 1.06207e-31 0 5.83518e-31 0 2.47316e-30 0 8.6056e-30 0 2.54715e-29 0 6.71432e-29 0 1.59055e-28 0 3.51658e-28 0 7.2888e-28 0 1.4219e-27 0 2.61986e-27 0 4.63683e-27 0 7.89887e-27 0 1.31483e-26 0 2.11295e-26 0
11.1377 2.87543e-12 2.87538e-12 5.06863e-17 1.76274e-05 0.000142727 1.26117e-44 0 4.44504e-40 0 4.99429e-36 0 7.47181e-34 0 2.10787e-32 0 2.52023e-31 0 1.78927e-30 0 9.0459e-30 0 3.57295e-29 0 1.16981e-28 0 3.28383e-28 0 8.25612e-28 0 1.87514e-27 0 3.98826e-27 0 7.97747e-27 0 1.50629e-26 0 2.69377e-26 0 4.63657e-26 0 7.69566e-26 0 1.24953e-25 0 1.96203e-25 0
11.7094 2.29594e-12 2.2959e-12 3.98307e-17 1.73484e-05 0.000143569 8.89825e-43 0 1.90457e-38 0 1.35715e-34 0 1.58998e-32 0 3.8106e-31 0 4.03624e-30 0 2.60407e-29 0 1.21637e-28 0 4.49278e-28 0 1.38821e-27 0 3.70538e-27 0 8.90594e-27 0 1.94332e-26 0 3.98375e-26 0 7.70323e-26 0 1.41006e-25 0 2.45112e-25 0 4.10854e-25 0 6.65261e-25 0 1.05491e-24 0 1.62034e-24 0
12.3105 1.79276e-12 1.79273e-12 3.05328e-17 1.70312e-05 0.000142828 4.93145e-41 0 6.49033e-37 0 2.99907e-33 0 2.78448e-31 0 5.71466e-30 0 5.39424e-29 0 3.17741e-28 0 1.37659e-27 0 4.77032e-27 0 1.39498e-26 0 3.54917e-26 0 8.17296e-26 0 1.71672e-25 0 3.39802e-25 0 6.36246e-25 0 1.13076e-24 0 1.91326e-24 0 3.12711e-24 0 4.94571e-24 0 7.66789e-24 0 1.15337e-23 0
