# 0.00035215 1 88 : grain size, compostion index, size index
# Heating and cooling timescale: 2.58865e-05 7.08065e+09
# Ratio of heating to cooling to determine stochastic cutoff: 100
# Equilibrium emission is recorded even for those grains in the stochastic regime.
# Emission spectrum was computed for: 
# Type: IRSF
# Scales: 0.25 0.5 1 1.5 2 2.5 3 3.5 4 4.5 5 5.5 6 6.5 7 7.5 8 8.5 9 9.5 10
# StochasticallyHeated: 0 0 0 0 0 0 0 0 0 0 0 0 0 0 0 0 0 0 0 0 0
# Temperature: -1
# Wavelength  CExt  CAbs  CSca  Albedo G EqEm1 StEm1 EqEm2 StEm2 EqEm3 StEm3 EqEm4 StEm4 EqEm5 StEm5 EqEm6 StEm6 EqEm7 StEm7 EqEm8 StEm8 EqEm9 StEm9 EqEm10 StEm10 EqEm11 StEm11 EqEm12 StEm12 EqEm13 StEm13 EqEm14 StEm14 EqEm15 StEm15 EqEm16 StEm16 EqEm17 StEm17 EqEm18 StEm18 EqEm19 StEm19 EqEm20 StEm20 EqEm21 StEm21
0.05 7.90504e-07 2.77547e-07 5.12957e-07 0.648898 0.856031 0 0 0 0 0 0 0 0 0 0 0 0 0 0 0 0 0 0 0 0 0 0 0 0 0 0 0 0 0 0 0 0 0 0 0 0 0 0 0 0 0 0
0.0525665 7.91155e-07 2.73317e-07 5.17838e-07 0.654534 0.843763 0 0 0 0 0 0 0 0 0 0 0 0 0 0 0 0 0 0 0 0 0 0 0 0 0 0 0 0 0 0 0 0 0 0 0 0 0 0 0 0 0 0
0.0552647 7.91834e-07 2.70212e-07 5.21622e-07 0.658751 0.833589 0 0 0 0 0 0 0 0 0 0 0 0 0 0 0 0 0 0 0 0 0 0 0 0 0 0 0 0 0 0 0 0 0 0 0 0 0 0 0 0 0 0
0.0581015 7.92486e-07 2.68966e-07 5.2352e-07 0.660604 0.827366 0 0 0 0 0 0 0 0 0 0 0 0 0 0 0 0 0 0 0 0 0 0 0 0 0 0 0 0 0 0 0 0 0 0 0 0 0 0 0 0 0 0
0.0610839 7.9314e-07 2.65383e-07 5.27757e-07 0.665402 0.818802 0 0 0 0 0 0 0 0 0 0 0 0 0 0 0 0 0 0 0 0 0 0 0 0 0 0 0 0 0 0 0 0 0 0 0 0 0 0 0 0 0 0
0.0642193 7.93973e-07 2.56144e-07 5.37829e-07 0.677389 0.800905 0 0 0 0 0 0 0 0 0 0 0 0 0 0 0 0 0 0 0 0 0 0 0 0 0 0 0 0 0 0 0 0 0 0 0 0 0 0 0 0 0 0
0.0675157 7.95036e-07 2.47158e-07 5.47878e-07 0.689123 0.781358 0 0 0 0 0 0 0 0 0 0 0 0 0 0 0 0 0 0 0 0 0 0 0 0 0 0 0 0 0 0 0 0 0 0 0 0 0 0 0 0 0 0
0.0709813 7.96181e-07 2.46847e-07 5.49334e-07 0.689961 0.774439 0 0 0 0 0 0 0 0 0 0 0 0 0 0 0 0 0 0 0 0 0 0 0 0 0 0 0 0 0 0 0 0 0 0 0 0 0 0 0 0 0 0
0.0746248 7.97277e-07 2.51268e-07 5.46009e-07 0.684842 0.775837 0 0 0 0 0 0 0 0 0 0 0 0 0 0 0 0 0 0 0 0 0 0 0 0 0 0 0 0 0 0 0 0 0 0 0 0 0 0 0 0 0 0
0.0784553 7.98297e-07 2.57155e-07 5.41142e-07 0.677871 0.780714 0 0 0 0 0 0 0 0 0 0 0 0 0 0 0 0 0 0 0 0 0 0 0 0 0 0 0 0 0 0 0 0 0 0 0 0 0 0 0 0 0 0
0.0824824 7.99299e-07 2.63826e-07 5.35472e-07 0.669928 0.78653 0 0 0 0 0 0 0 0 0 0 0 0 0 0 0 0 0 0 0 0 0 0 0 0 0 0 0 0 0 0 0 0 0 0 0 0 0 0 0 0 0 0
0.0867162 8.00311e-07 2.65897e-07 5.34414e-07 0.667758 0.785471 0 0 0 0 0 0 0 0 0 0 0 0 0 0 0 0 0 0 0 0 0 0 0 0 0 0 0 0 0 0 0 0 0 0 0 0 0 0 0 0 0 0
0.0911674 8.01455e-07 2.65471e-07 5.35983e-07 0.668763 0.78046 0 0 0 0 0 0 0 0 0 0 0 0 0 0 0 0 0 0 0 0 0 0 0 0 0 0 0 0 0 0 0 0 0 0 0 0 0 0 0 0 0 0
0.095847 8.02589e-07 2.67511e-07 5.35078e-07 0.66669 0.778735 0 0 0 0 0 0 0 0 0 0 0 0 0 0 0 0 0 0 0 0 0 0 0 0 0 0 0 0 0 0 0 0 0 0 0 0 0 0 0 0 0 0
0.100767 8.03277e-07 2.77555e-07 5.25722e-07 0.654472 0.78988 0 0 0 0 0 0 0 0 0 0 0 0 0 0 0 0 0 0 0 0 0 0 0 0 0 0 0 0 0 0 0 0 0 0 0 0 0 0 0 0 0 0
0.105939 8.03703e-07 2.87386e-07 5.16317e-07 0.642423 0.804163 0 0 0 0 0 0 0 0 0 0 0 0 0 0 0 0 0 0 0 0 0 0 0 0 0 0 0 0 0 0 0 0 0 0 0 0 0 0 0 0 0 0
0.111377 8.03399e-07 3.04513e-07 4.98886e-07 0.620969 0.8314 0 0 0 0 0 0 0 0 0 0 0 0 0 0 0 0 0 0 0 0 0 0 0 0 0 0 0 0 0 0 0 0 0 0 0 0 0 0 0 0 0 0
0.117094 8.03221e-07 3.21841e-07 4.8138e-07 0.599312 0.863069 0 0 0 0 0 0 0 0 0 0 0 0 0 0 0 0 0 0 0 0 0 0 0 0 0 0 0 0 0 0 0 0 0 0 0 0 0 0 0 0 0 0
0.123105 8.03544e-07 3.33267e-07 4.70278e-07 0.585254 0.885255 0 0 0 0 0 0 0 0 0 0 0 0 0 0 0 0 0 0 0 0 0 0 0 0 0 0 0 0 0 0 0 0 0 0 0 0 0 0 0 0 0 0
0.129424 8.04052e-07 3.4315e-07 4.60902e-07 0.573224 0.904827 0 0 0 0 0 0 0 0 0 0 0 0 0 0 0 0 0 0 0 0 0 0 0 0 0 0 0 0 0 0 0 0 0 0 0 0 0 0 0 0 0 0
0.136067 8.0456e-07 3.51212e-07 4.53348e-07 0.563474 0.92069 0 0 0 0 0 0 0 0 0 0 0 0 0 0 0 0 0 0 0 0 0 0 0 0 0 0 0 0 0 0 0 0 0 0 0 0 0 0 0 0 0 0
0.143051 8.04817e-07 3.57516e-07 4.473e-07 0.555779 0.933053 0 0 0 0 0 0 0 0 0 0 0 0 0 0 0 0 0 0 0 0 0 0 0 0 0 0 0 0 0 0 0 0 0 0 0 0 0 0 0 0 0 0
0.150394 8.04586e-07 3.60914e-07 4.43671e-07 0.551428 0.941007 0 0 0 0 0 0 0 0 0 0 0 0 0 0 0 0 0 0 0 0 0 0 0 0 0 0 0 0 0 0 0 0 0 0 0 0 0 0 0 0 0 0
0.158114 8.04262e-07 3.5927e-07 4.44992e-07 0.553293 0.941841 0 0 0 0 0 0 0 0 0 0 0 0 0 0 0 0 0 0 0 0 0 0 0 0 0 0 0 0 0 0 0 0 0 0 0 0 0 0 0 0 0 0
0.16623 8.04726e-07 3.50302e-07 4.54425e-07 0.564695 0.93129 0 0 0 0 0 0 0 0 0 0 0 0 0 0 0 0 0 0 0 0 0 0 0 0 0 0 0 0 0 0 0 0 0 0 0 0 0 0 0 0 0 0
0.174762 8.06445e-07 3.33687e-07 4.72759e-07 0.586225 0.905562 0 0 0 0 0 0 0 0 0 0 0 0 0 0 0 0 0 0 0 0 0 0 0 0 0 0 0 0 0 0 0 0 0 0 0 0 0 0 0 0 0 0
0.183733 8.08707e-07 3.13312e-07 4.95395e-07 0.612576 0.870934 0 0 0 0 0 0 0 0 0 0 0 0 0 0 0 0 0 0 0 0 0 0 0 0 0 0 0 0 0 0 0 0 0 0 0 0 0 0 0 0 0 0
0.193164 8.11274e-07 2.92504e-07 5.1877e-07 0.639451 0.835371 0 0 0 0 0 0 0 0 0 0 0 0 0 0 0 0 0 0 0 0 0 0 0 0 0 0 0 0 0 0 0 0 0 0 0 0 0 0 0 0 0 0
0.203079 8.14077e-07 2.74776e-07 5.39301e-07 0.662469 0.80607 0 0 0 0 0 0 0 0 0 0 0 0 0 0 0 0 0 0 0 0 0 0 0 0 0 0 0 0 0 0 0 0 0 0 0 0 0 0 0 0 0 0
0.213503 8.17191e-07 2.59898e-07 5.57293e-07 0.681961 0.782355 0 0 0 0 0 0 0 0 0 0 0 0 0 0 0 0 0 0 0 0 0 0 0 0 0 0 0 0 0 0 0 0 0 0 0 0 0 0 0 0 0 0
0.224463 8.20958e-07 2.50982e-07 5.69976e-07 0.694281 0.766133 0 0 0 0 0 0 0 0 0 0 0 0 0 0 0 0 0 0 0 0 0 0 0 0 0 0 0 0 0 0 0 0 0 0 0 0 0 0 0 0 0 0
0.235984 8.25198e-07 2.47304e-07 5.77894e-07 0.700309 0.755347 0 0 0 0 0 0 0 0 0 0 0 0 0 0 0 0 0 0 0 0 0 0 0 0 0 0 0 0 0 0 0 0 0 0 0 0 0 0 0 0 0 0
0.248097 8.29157e-07 2.51243e-07 5.77914e-07 0.69699 0.751861 0 0 0 0 0 0 0 0 0 0 0 0 0 0 0 0 0 0 0 0 0 0 0 0 0 0 0 0 0 0 0 0 0 0 0 0 0 0 0 0 0 0
0.260832 8.31297e-07 2.59013e-07 5.72284e-07 0.688423 0.753681 0 0 0 0 0 0 0 0 0 0 0 0 0 0 0 0 0 0 0 0 0 0 0 0 0 0 0 0 0 0 0 0 0 0 0 0 0 0 0 0 0 0
0.274221 8.31886e-07 2.67073e-07 5.64813e-07 0.678955 0.757243 0 0 0 0 0 0 0 0 0 0 0 0 0 0 0 0 0 0 0 0 0 0 0 0 0 0 0 0 0 0 0 0 0 0 0 0 0 0 0 0 0 0
0.288297 8.31612e-07 2.76679e-07 5.54933e-07 0.667298 0.765897 0 0 0 0 0 0 0 0 0 0 0 0 0 0 0 0 0 0 0 0 0 0 0 0 0 0 0 0 0 0 0 0 0 0 0 0 0 0 0 0 0 0
0.303095 8.31894e-07 2.83454e-07 5.4844e-07 0.659267 0.772578 0 0 0 0 0 0 0 0 0 0 0 0 0 0 0 0 0 0 0 0 0 0 0 0 0 0 0 0 0 0 0 0 0 0 0 0 0 0 0 0 0 0
0.318653 8.32419e-07 2.89108e-07 5.43311e-07 0.65269 0.778485 0 0 0 0 0 0 0 0 0 0 0 0 0 0 0 0 0 0 0 0 0 0 0 0 0 0 0 0 0 0 0 0 0 0 0 0 0 0 0 0 0 0
0.335009 8.33259e-07 2.93794e-07 5.39465e-07 0.647416 0.783596 0 0 0 0 0 0 0 0 0 0 0 0 0 0 0 0 0 0 0 0 0 0 0 0 0 0 0 0 0 0 0 0 0 0 0 0 0 0 0 0 0 0
0.352205 8.34415e-07 2.97327e-07 5.37087e-07 0.64367 0.787198 0 0 0 0 0 0 0 0 0 0 0 0 0 0 0 0 0 0 0 0 0 0 0 0 0 0 0 0 0 0 0 0 0 0 0 0 0 0 0 0 0 0
0.370284 8.35776e-07 2.99958e-07 5.35817e-07 0.641102 0.78939 0 0 0 0 0 0 0 0 0 0 0 0 0 0 0 0 0 0 0 0 0 0 0 0 0 0 0 0 0 0 0 0 0 0 0 0 0 0 0 0 0 0
0.389291 8.37263e-07 3.01784e-07 5.35479e-07 0.639559 0.790166 0 0 0 0 0 0 0 0 0 0 0 0 0 0 0 0 0 0 0 0 0 0 0 0 0 0 0 0 0 0 0 0 0 0 0 0 0 0 0 0 0 0
0.409273 8.38809e-07 3.03385e-07 5.35424e-07 0.638315 0.790578 0 0 0 0 0 0 0 0 0 0 0 0 0 0 0 0 0 0 0 0 0 0 0 0 0 0 0 0 0 0 0 0 0 0 0 0 0 0 0 0 0 0
0.430281 8.40391e-07 3.04889e-07 5.35502e-07 0.637206 0.790823 0 0 0 0 0 0 0 0 0 0 0 0 0 0 0 0 0 0 0 0 0 0 0 0 0 0 0 0 0 0 0 0 0 0 0 0 0 0 0 0 0 0
0.452368 8.42079e-07 3.06454e-07 5.35625e-07 0.636075 0.79125 0 0 0 0 0 0 0 0 0 0 0 0 0 0 0 0 0 0 0 0 0 0 0 0 0 0 0 0 0 0 0 0 0 0 0 0 0 0 0 0 0 0
0.475588 8.43845e-07 3.07993e-07 5.35851e-07 0.635012 0.791616 0 0 0 0 0 0 0 0 0 0 0 0 0 0 0 0 0 0 0 0 0 0 0 0 0 0 0 0 0 0 0 0 0 0 0 0 0 0 0 0 0 0
0.5 8.45735e-07 3.09408e-07 5.36327e-07 0.634155 0.791727 0 0 0 0 0 0 0 0 0 0 0 0 0 0 0 0 0 0 0 0 0 0 0 0 0 0 0 0 0 0 0 0 0 0 0 0 0 0 0 0 0 0
0.525665 8.47738e-07 3.10759e-07 5.36979e-07 0.633426 0.791676 0 0 0 0 0 0 0 0 0 0 0 0 0 0 0 0 0 0 0 0 0 0 0 0 0 0 0 0 0 0 0 0 0 0 0 0 0 0 0 0 0 0
0.552648 8.49803e-07 3.12078e-07 5.37725e-07 0.632764 0.791496 0 0 0 0 0 0 0 0 0 0 0 0 0 0 0 0 0 0 0 0 0 0 0 0 0 0 0 0 0 0 0 0 0 0 0 0 0 0 0 0 0 0
0.581015 8.52032e-07 3.12983e-07 5.3905e-07 0.632663 0.790544 0 0 0 0 0 0 0 0 0 0 0 0 0 0 0 0 0 0 0 0 0 0 0 0 0 0 0 0 0 0 0 0 0 0 0 0 0 0 0 0 0 0
0.610839 8.54317e-07 3.13895e-07 5.40421e-07 0.632577 0.789538 0 0 0 0 0 0 0 0 0 0 0 0 0 0 0 0 0 0 0 0 0 0 0 0 0 0 0 0 0 0 0 0 0 0 0 0 0 0 0 0 0 0
0.642193 8.56662e-07 3.14814e-07 5.41847e-07 0.63251 0.788476 0 0 0 0 0 0 0 0 0 0 0 0 0 0 0 0 0 0 0 0 0 0 0 0 0 0 0 0 0 0 0 0 0 0 0 0 0 0 0 0 0 0
0.675157 8.59084e-07 3.15578e-07 5.43506e-07 0.632658 0.787094 0 0 0 0 0 0 0 0 0 0 0 0 0 0 0 0 0 0 0 0 0 0 0 0 0 0 0 0 0 0 0 0 0 0 0 0 0 0 0 0 0 0
0.709813 8.61574e-07 3.16193e-07 5.45382e-07 0.633006 0.785409 0 0 0 0 0 0 0 0 0 0 0 0 0 0 0 0 0 0 0 0 0 0 0 0 0 0 0 0 0 0 0 0 0 0 0 0 0 0 0 0 0 0
0.746248 8.64099e-07 3.16738e-07 5.47361e-07 0.633447 0.783549 0 0 0 0 0 0 0 0 0 0 0 0 0 0 0 0 0 0 0 0 0 0 0 0 0 0 0 0 0 0 0 0 0 0 0 0 0 0 0 0 0 0
0.784553 8.66669e-07 3.17272e-07 5.49397e-07 0.633918 0.781628 0 0 0 0 0 0 0 0 0 0 0 0 0 0 0 0 0 0 0 0 0 0 0 0 0 0 0 0 0 0 0 0 0 0 0 0 0 0 0 0 0 0
0.824824 8.69357e-07 3.17792e-07 5.51565e-07 0.634452 0.779651 0 0 0 0 0 0 0 0 0 0 0 0 0 0 0 0 0 0 0 0 0 0 0 0 0 0 0 0 0 0 0 0 0 0 0 0 0 0 0 0 0 0
0.867162 8.71811e-07 3.18287e-07 5.53523e-07 0.634912 0.777524 0 0 0 0 0 0 0 0 0 0 0 0 0 0 0 0 0 0 0 0 0 0 0 0 0 0 0 0 0 0 0 0 0 0 0 0 0 0 0 0 0 0
0.911674 8.74817e-07 3.18763e-07 5.56054e-07 0.635623 0.775466 0 0 0 0 0 0 0 0 0 0 0 0 0 0 0 0 0 0 0 0 0 0 0 0 0 0 0 0 0 0 0 0 0 0 0 0 0 0 0 0 0 0
0.95847 8.76958e-07 3.19232e-07 5.57726e-07 0.635978 0.773126 0 0 0 0 0 0 0 0 0 0 0 0 0 0 0 0 0 0 0 0 0 0 0 0 0 0 0 0 0 0 0 0 0 0 0 0 0 0 0 0 0 0
1.00767 8.8062e-07 3.19598e-07 5.61022e-07 0.637076 0.771064 0 0 0 0 0 0 0 0 0 0 0 0 0 0 0 0 0 0 0 0 0 0 0 0 0 0 0 0 0 0 0 0 0 0 0 0 0 0 0 0 0 0
1.05939 8.81683e-07 3.19929e-07 5.61754e-07 0.637138 0.768153 0 0 0 0 0 0 0 0 0 0 0 0 0 0 0 0 0 0 0 0 0 0 0 0 0 0 0 0 0 0 0 0 0 0 0 0 0 0 0 0 0 0
1.11377 8.8748e-07 3.19884e-07 5.67596e-07 0.63956 0.766156 0 0 0 0 0 0 0 0 0 0 0 0 0 0 0 0 0 0 0 0 0 0 0 0 0 0 0 0 0 0 0 0 0 0 0 0 0 0 0 0 0 0
1.17094 8.85937e-07 3.19732e-07 5.66205e-07 0.639103 0.762218 0 0 0 0 0 0 0 0 0 0 0 0 0 0 0 0 0 0 0 0 0 0 0 0 0 0 0 0 0 0 0 0 0 0 0 0 0 0 0 0 0 0
1.23105 8.92777e-07 3.19249e-07 5.73528e-07 0.642409 0.759646 0 0 0 0 0 0 0 0 0 0 0 0 0 0 0 0 0 0 0 0 0 0 0 0 0 0 0 0 0 0 0 0 0 0 0 0 0 0 0 0 0 0
1.29424 8.96578e-07 3.18073e-07 5.78504e-07 0.645236 0.755758 0 0 0 0 0 0 0 0 0 0 0 0 0 0 0 0 0 0 0 0 0 0 0 0 0 0 0 0 0 0 0 0 0 0 0 0 0 0 0 0 0 0
1.36067 8.9136e-07 3.16353e-07 5.75007e-07 0.645089 0.749385 0 0 0 0 0 0 0 0 0 0 0 0 0 0 0 0 0 0 0 0 0 0 0 0 0 0 0 0 0 0 0 0 0 0 0 0 0 0 0 0 0 0
1.43051 9.04252e-07 3.15652e-07 5.886e-07 0.650925 0.748283 0 0 0 0 0 0 0 0 0 0 0 0 0 0 0 0 0 0 0 0 0 0 0 0 0 0 0 0 0 0 0 0 0 0 0 0 0 0 0 0 0 0
1.50394 9.09753e-07 3.1291e-07 5.96843e-07 0.656049 0.743834 0 0 0 0 0 0 0 0 0 0 0 0 0 0 0 0 0 0 0 0 0 0 0 0 0 0 0 0 0 0 0 0 0 0 0 0 0 0 0 0 0 0
1.58114 8.97562e-07 3.1053e-07 5.87032e-07 0.65403 0.732535 0 0 0 0 0 0 0 0 0 0 0 0 0 0 0 0 0 0 0 0 0 0 0 0 0 0 0 0 0 0 0 0 0 0 0 0 0 0 0 0 0 0
1.6623 9.04416e-07 3.07905e-07 5.96511e-07 0.659553 0.727925 0 0 0 0 0 0 0 0 0 0 0 0 0 0 0 0 0 0 0 0 0 0 0 0 0 0 0 0 0 0 0 0 0 0 0 0 0 0 0 0 0 0
1.74763 9.25551e-07 3.03203e-07 6.22348e-07 0.672409 0.729818 0 0 0 0 0 0 0 0 0 0 0 0 0 0 0 0 0 0 0 0 0 0 0 0 0 0 0 0 0 0 0 0 0 0 0 0 0 0 0 0 0 0
1.83733 9.21934e-07 3.00068e-07 6.21866e-07 0.674523 0.723196 0 0 0 0 0 0 0 0 0 0 0 0 0 0 0 0 0 0 0 0 0 0 0 0 0 0 0 0 0 0 0 0 0 0 0 0 0 0 0 0 0 0
1.93164 9.04391e-07 2.96624e-07 6.07767e-07 0.672018 0.708469 0 0 0 0 0 0 0 0 0 0 0 0 0 0 0 0 0 0 0 0 0 0 0 0 0 0 0 0 0 0 0 0 0 0 0 0 0 0 0 0 0 0
2.03079 9.13581e-07 2.92569e-07 6.21012e-07 0.679756 0.7001 0 0 0 0 0 0 0 0 0 0 0 0 0 0 0 0 0 0 0 0 0 0 0 0 0 0 0 0 0 0 0 0 0 0 0 0 0 0 0 0 0 0
2.13503 9.45206e-07 2.89574e-07 6.55631e-07 0.693639 0.702279 0 0 0 0 0 0 0 0 0 0 0 0 0 0 0 0 0 0 0 0 0 0 0 0 0 0 0 0 0 0 0 0 0 0 0 0 0 0 0 0 0 0
2.24463 9.57883e-07 2.85125e-07 6.72758e-07 0.702338 0.702492 0 0 0 0 0 0 0 0 0 0 0 0 0 0 0 0 0 0 0 0 0 0 0 0 0 0 0 0 0 0 0 0 0 0 0 0 0 0 0 0 0 0
2.35984 9.33455e-07 2.78967e-07 6.54488e-07 0.701146 0.685972 0 0 0 0 0 0 0 0 0 0 0 0 0 0 0 0 0 0 0 0 0 0 0 0 0 0 0 0 0 0 0 0 0 0 0 0 0 0 0 0 0 0
2.48097 9.04684e-07 2.79323e-07 6.25361e-07 0.691248 0.659964 0 0 0 0 0 0 0 0 0 0 0 0 0 0 0 0 0 0 0 0 0 0 0 0 0 0 0 0 0 0 0 0 0 0 0 0 0 0 0 0 0 0
2.60832 9.17283e-07 2.85514e-07 6.31769e-07 0.68874 0.661206 0 0 0 0 0 0 0 0 0 0 0 0 0 0 0 0 0 0 0 0 0 0 0 0 0 0 0 0 0 0 0 0 0 0 0 0 0 0 0 0 0 0
2.74221 9.50452e-07 2.74523e-07 6.7593e-07 0.711166 0.669939 0 0 0 0 0 0 0 0 0 0 0 0 0 0 0 0 0 0 0 0 0 0 0 0 0 0 0 0 0 0 0 0 0 0 0 0 0 0 0 0 0 0
2.88297 9.74571e-07 2.66777e-07 7.07793e-07 0.726262 0.683217 0 0 0 0 0 0 0 0 0 0 0 0 0 0 0 0 0 0 0 0 0 0 0 0 0 0 0 0 0 0 0 0 0 0 0 0 0 0 0 0 0 0
3.03095 9.94819e-07 2.71915e-07 7.22903e-07 0.726668 0.659887 0 0 0 0 0 0 0 0 0 0 0 0 0 0 0 0 0 0 0 0 0 0 0 0 0 0 0 0 0 0 0 0 0 0 0 0 0 0 0 0 0 0
3.18653 9.84994e-07 2.70697e-07 7.14297e-07 0.725179 0.655785 0 0 0 0 0 0 0 0 0 0 0 0 0 0 0 0 0 0 0 0 0 0 0 0 0 0 0 0 0 0 0 0 0 0 0 0 0 0 0 0 0 0
3.35009 9.52936e-07 2.58083e-07 6.94852e-07 0.72917 0.621148 0 0 0 0 0 0 0 0 0 0 0 0 0 0 0 0 0 0 0 0 0 0 0 0 0 0 0 0 0 0 0 0 0 0 0 0 0 0 0 0 0 0
3.52205 9.08689e-07 2.62212e-07 6.46477e-07 0.711439 0.58769 0 0 0 0 0 0 0 0 0 0 0 0 0 0 0 0 0 0 0 0 0 0 0 0 0 0 0 0 0 0 0 0 0 0 0 0 0 0 0 0 0 0
3.70284 9.32848e-07 2.50741e-07 6.82107e-07 0.731209 0.584929 0 0 0 0 0 0 0 0 0 0 0 0 0 0 0 0 0 0 0 0 0 0 0 0 0 0 0 0 0 0 0 0 0 0 0 0 0 0 0 0 0 0
3.89291 9.26544e-07 2.57745e-07 6.68798e-07 0.721821 0.584278 0 0 0 0 0 0 0 0 0 0 0 0 0 0 0 0 0 0 0 0 0 0 0 0 0 0 0 0 0 0 0 0 0 0 0 0 0 0 0 0 0 0
4.09273 9.99379e-07 2.45581e-07 7.53798e-07 0.754266 0.616815 0 0 0 0 0 0 0 0 0 0 0 0 0 0 0 0 0 0 0 0 0 0 0 0 0 0 0 0 0 0 0 0 0 0 0 0 0 0 0 0 0 0
4.30281 1.02029e-06 2.59521e-07 7.60766e-07 0.745639 0.609179 0 0 0 0 0 0 0 0 0 0 0 0 0 0 0 0 0 0 0 0 0 0 0 0 0 0 0 0 0 0 0 0 0 0 0 0 0 0 0 0 0 0
4.52368 1.05923e-06 2.39788e-07 8.19441e-07 0.77362 0.645949 0 0 0 0 0 0 0 0 0 0 0 0 0 0 0 0 0 0 0 0 0 0 0 0 0 0 0 0 0 0 0 0 0 0 0 0 0 0 0 0 0 0
4.75588 1.0907e-06 2.65767e-07 8.24935e-07 0.756334 0.615576 0 0 0 0 0 0 0 0 0 0 0 0 0 0 0 0 0 0 0 0 0 0 0 0 0 0 0 0 0 0 0 0 0 0 0 0 0 0 0 0 0 0
5 1.02268e-06 2.30561e-07 7.92116e-07 0.774552 0.623375 0 0 0 0 0 0 0 0 0 0 0 0 0 0 0 0 0 0 0 0 0 0 0 0 0 0 0 0 0 0 0 0 0 0 0 0 0 0 0 0 0 0
5.25665 1.0517e-06 2.60507e-07 7.9119e-07 0.752298 0.613127 0 0 0 0 0 0 0 0 0 0 0 0 0 0 0 0 0 0 0 0 0 0 0 0 0 0 0 0 0 0 0 0 0 0 0 0 0 0 0 0 0 0
5.52648 9.85769e-07 2.4926e-07 7.36509e-07 0.747142 0.54928 0 0 0 0 0 0 0 0 0 0 0 0 0 0 0 0 0 0 0 0 0 0 0 0 0 0 0 0 0 0 0 0 0 0 0 0 0 0 0 0 0 0
5.81015 9.27827e-07 2.32694e-07 6.95133e-07 0.749206 0.537384 0 0 0 0 0 0 0 0 0 0 0 0 0 0 0 0 0 0 0 0 0 0 0 0 0 0 0 0 0 0 0 0 0 0 0 0 0 0 0 0 0 0
6.10839 9.37737e-07 2.4952e-07 6.88217e-07 0.733912 0.487319 0 0 0 0 0 0 0 0 0 0 0 0 0 0 0 0 0 0 0 0 0 0 0 0 0 0 0 0 0 0 0 0 0 0 0 0 0 0 0 0 0 0
6.42193 9.30655e-07 2.42817e-07 6.87837e-07 0.73909 0.431944 0 0 0 0 0 0 0 0 0 0 0 0 0 0 0 0 0 0 0 0 0 0 0 0 0 0 0 0 0 0 0 0 0 0 0 0 0 0 0 0 0 0
6.75157 9.02731e-07 2.30211e-07 6.7252e-07 0.744983 0.422054 0 0 0 0 0 0 0 0 0 0 0 0 0 0 0 0 0 0 0 0 0 0 0 0 0 0 0 0 0 0 0 0 0 0 0 0 0 0 0 0 0 0
7.09813 1.00278e-06 2.58091e-07 7.4469e-07 0.742625 0.391796 0 0 0 0 0 0 0 0 0 0 0 0 0 0 0 0 0 0 0 0 0 0 0 0 0 0 0 0 0 0 0 0 0 0 0 0 0 0 0 0 0 0
7.46248 1.00579e-06 2.30899e-07 7.74889e-07 0.77043 0.429088 0 0 0 0 0 0 0 0 0 0 0 0 0 0 0 0 0 0 0 0 0 0 0 0 0 0 0 0 0 0 0 0 0 0 0 0 0 0 0 0 0 0
7.84553 1.05951e-06 2.30279e-07 8.29235e-07 0.782656 0.464311 0 0 0 0 0 0 0 0 0 0 0 0 0 0 0 0 0 0 0 0 0 0 0 0 0 0 0 0 0 0 0 0 0 0 0 0 0 0 0 0 0 0
8.24824 1.15584e-06 2.44832e-07 9.11008e-07 0.788178 0.471752 0 0 0 0 0 0 0 0 0 0 0 0 0 0 0 0 0 0 0 0 0 0 0 0 0 0 0 0 0 0 0 0 0 0 0 0 0 0 0 0 0 0
8.67162 1.18286e-06 2.44933e-07 9.37926e-07 0.792932 0.435675 0 0 0 0 0 0 0 0 0 0 0 0 0 0 0 0 0 0 0 0 0 0 0 0 0 0 0 0 0 0 0 0 0 0 0 0 0 0 0 0 0 0
9.11674 1.15722e-06 2.16885e-07 9.40339e-07 0.812582 0.436603 0 0 0 0 0 0 0 0 0 0 0 0 0 0 0 0 0 0 0 0 0 0 0 0 0 0 0 0 0 0 0 0 0 0 0 0 0 0 0 0 0 0
9.5847 1.21925e-06 2.17442e-07 1.00181e-06 0.82166 0.450144 0 0 0 0 0 0 0 0 0 0 0 0 0 0 0 0 0 0 0 0 0 0 0 0 0 0 0 0 0 0 0 0 0 0 0 0 0 0 0 0 0 0
10.0767 1.30698e-06 2.32338e-07 1.07464e-06 0.822232 0.461899 0 0 0 0 0 0 0 0 0 0 0 0 0 0 0 0 0 0 0 0 0 0 0 0 0 0 0 0 0 0 0 0 0 0 0 0 0 0 0 0 1.4013e-45 0
10.5939 1.35583e-06 2.51955e-07 1.10387e-06 0.814169 0.460455 0 0 0 0 0 0 0 0 0 0 0 0 0 0 0 0 0 0 0 0 0 0 0 0 0 0 0 0 0 0 1.4013e-45 0 4.2039e-45 0 1.26117e-44 0 3.50325e-44 0 9.66896e-44 0 2.49431e-43 0
11.1377 1.25536e-06 2.40443e-07 1.01491e-06 0.808466 0.439574 0 0 0 0 0 0 0 0 0 0 0 0 0 0 0 0 0 0 0 0 0 0 0 0 2.8026e-45 0 1.26117e-44 0 5.1848e-44 0 1.82169e-43 0 6.0396e-43 0 1.81889e-42 0 5.11614e-42 0 1.3161e-41 0 3.25367e-41 0
11.7094 1.20698e-06 2.32201e-07 9.74783e-07 0.807619 0.413982 0 0 0 0 0 0 0 0 0 0 0 0 0 0 0 0 0 0 1.4013e-45 0 1.4013e-44 0 8.40779e-44 0 4.28797e-43 0 1.84411e-42 0 7.26293e-42 0 2.39538e-41 0 7.51012e-41 0 2.14486e-40 0 5.73365e-40 0 1.40846e-39 0 3.33167e-39 0
12.3105 1.14794e-06 2.17357e-07 9.3058e-07 0.810654 0.390024 0 0 0 0 0 0 0 0 0 0 0 0 0 0 2.8026e-45 0 2.94273e-44 0 2.76056e-43 0 1.9436e-42 0 1.09736e-41 0 5.18354e-41 0 2.07658e-40 0 7.64829e-40 0 2.37988e-39 0 7.05677e-39 0 1.91472e-38 0 4.87852e-38 0 1.14695e-37 0 2.6014e-37 0
12.9424 1.13203e-06 2.18811e-07 9.13223e-07 0.80671 0.36848 0 0 0 0 0 0 0 0 0 0 0 0 1.82169e-44 0 3.51726e-43 0 4.23753e-42 0 3.60834e-41 0 2.3113e-40 0 1.19938e-39 0 5.252e-39 0 1.96618e-38 0 6.79504e-38 0 2.00038e-37 0 5.62492e-37 0 1.45362e-36 0 3.53836e-36 0 7.97868e-36 0 1.73872e-35 0
13.6067 1.11411e-06 2.2667e-07 8.87445e-07 0.796547 0.348238 0 0 0 0 0 0 0 0 1.4013e-45 0 8.12753e-44 0 2.67928e-42 0 4.62961e-41 0 4.93299e-40 0 3.78404e-39 0 2.21369e-38 0 1.05999e-37 0 4.31875e-37 0 1.51589e-36 0 4.93105e-36 0 1.3771e-35 0 3.68169e-35 0 9.08343e-35 0 2.11708e-34 0 4.58803e-34 0 9.62514e-34 0
14.3051 1.07195e-06 2.33409e-07 8.3854e-07 0.782257 0.325969 0 0 0 0 0 0 0 0 1.61149e-43 0 1.1258e-41 0 3.13752e-40 0 4.71789e-39 0 4.47856e-38 0 3.11015e-37 0 1.66912e-36 0 7.40396e-36 0 2.81665e-35 0 9.2986e-35 0 2.85548e-34 0 7.58454e-34 0 1.93267e-33 0 4.5626e-33 0 1.02037e-32 0 2.12935e-32 0 4.30841e-32 0
15.0394 1.01143e-06 2.32754e-07 7.78672e-07 0.769876 0.295116 0 0 0 0 0 0 7.70714e-44 0 2.07742e-41 0 1.17756e-39 0 2.78983e-38 0 3.67506e-37 0 3.12561e-36 0 1.97463e-35 0 9.76258e-35 0 4.02673e-34 0 1.43513e-33 0 4.46942e-33 0 1.29934e-32 0 3.29048e-32 0 8.01042e-32 0 1.81341e-31 0 3.89919e-31 0 7.84991e-31 0 1.53459e-30 0
15.8114 9.57261e-07 2.27369e-07 7.29891e-07 0.762479 0.253152 0 0 0 0 2.8026e-45 0 9.88896e-42 0 2.04071e-39 0 9.49777e-38 0 1.92797e-36 0 2.23934e-35 0 1.71554e-34 0 9.90526e-34 0 4.52957e-33 0 1.74341e-32 0 5.8397e-32 0 1.72053e-31 0 4.74795e-31 0 1.14905e-30 0 2.67837e-30 0 5.82619e-30 0 1.20679e-29 0 2.34793e-29 0 4.44219e-29 0
16.623 9.21105e-07 2.226e-07 6.98505e-07 0.758334 0.205111 0 0 0 0 4.37205e-43 0 9.96142e-40 0 1.58458e-37 0 6.11398e-36 0 1.07144e-34 0 1.10405e-33 0 7.65762e-33 0 4.05865e-32 0 1.72322e-31 0 6.21016e-31 0 1.96093e-30 0 5.48052e-30 0 1.43927e-29 0 3.33607e-29 0 7.46141e-29 0 1.56263e-28 0 3.12366e-28 0 5.88307e-28 0 1.07894e-27 0
17.4762 8.99336e-07 2.20767e-07 6.78569e-07 0.754523 0.157811 0 0 0 0 5.13071e-41 0 8.00792e-38 0 9.9454e-36 0 3.21053e-34 0 4.89216e-33 0 4.49844e-32 0 2.83858e-31 0 1.38684e-30 0 5.48687e-30 0 1.8574e-29 0 5.54476e-29 0 1.47384e-28 0 3.6923e-28 0 8.2142e-28 0 1.76637e-27 0 3.56816e-27 0 6.89548e-27 0 1.25916e-26 0 2.24189e-26 0
18.3733 8.8505e-07 2.21873e-07 6.63177e-07 0.74931 0.114967 0 0 5.60519e-45 0 4.77041e-39 0 5.19982e-36 0 5.10326e-34 0 1.39037e-32 0 1.8548e-31 0 1.53043e-30 0 8.82656e-30 0 3.99098e-29 0 1.47644e-28 0 4.70912e-28 0 1.33268e-27 0 3.37727e-27 0 8.08982e-27 0 1.73082e-26 0 3.58538e-26 0 6.99822e-26 0 1.3096e-25 0 2.32213e-25 0 4.01963e-25 0
