# 1.2589e-06 1 62 : grain size, compostion index, size index
# Heating and cooling timescale: 112.745 6782.82
# Ratio of heating to cooling to determine stochastic cutoff: 100
# Equilibrium emission is recorded even for those grains in the stochastic regime.
# Emission spectrum was computed for: 
# Type: IRSF
# Scales: 0.25 0.5 1 1.5 2 2.5 3 3.5 4 4.5 5 5.5 6 6.5 7 7.5 8 8.5 9 9.5 10
# StochasticallyHeated: 1 1 1 1 1 1 1 1 1 1 1 1 1 1 1 1 1 1 1 1 1
# Temperature: -1
# Wavelength  CExt  CAbs  CSca  Albedo G EqEm1 StEm1 EqEm2 StEm2 EqEm3 StEm3 EqEm4 StEm4 EqEm5 StEm5 EqEm6 StEm6 EqEm7 StEm7 EqEm8 StEm8 EqEm9 StEm9 EqEm10 StEm10 EqEm11 StEm11 EqEm12 StEm12 EqEm13 StEm13 EqEm14 StEm14 EqEm15 StEm15 EqEm16 StEm16 EqEm17 StEm17 EqEm18 StEm18 EqEm19 StEm19 EqEm20 StEm20 EqEm21 StEm21
0.05 1.76883e-12 1.50868e-12 2.60151e-13 0.147075 0.0293382 0 0 0 0 0 0 0 0 0 0 0 0 0 0 0 0 0 0 0 0 0 0 0 0 0 0 0 0 0 0 0 0 0 0 0 0 0 0 0 0 0 0
0.0525665 1.95508e-12 1.66753e-12 2.87543e-13 0.147075 0.0324274 0 0 0 0 0 0 0 0 0 0 0 0 0 0 0 0 0 0 0 0 0 0 0 0 0 0 0 0 0 0 0 0 0 0 0 0 0 0 0 0 0 0
0.0552647 2.16094e-12 1.84312e-12 3.1782e-13 0.147075 0.0358419 0 0 0 0 0 0 0 0 0 0 0 0 0 0 0 0 0 0 0 0 0 0 0 0 0 0 0 0 0 0 0 0 0 0 0 0 0 0 0 0 0 0
0.0581015 2.38847e-12 2.03719e-12 3.51285e-13 0.147075 0.0396158 0 0 0 0 0 0 0 0 0 0 0 0 0 0 0 0 0 0 0 0 0 0 0 0 0 0 0 0 0 0 0 0 0 0 0 0 0 0 0 0 0 0
0.0610839 2.63997e-12 2.25169e-12 3.88274e-13 0.147075 0.0437872 0 0 0 0 0 0 0 0 0 0 0 0 0 0 0 0 0 0 0 0 0 0 0 0 0 0 0 0 0 0 0 0 0 0 0 0 0 0 0 0 0 0
0.0642193 2.91794e-12 2.48879e-12 4.29157e-13 0.147075 0.0483978 0 0 0 0 0 0 0 0 0 0 0 0 0 0 0 0 0 0 0 0 0 0 0 0 0 0 0 0 0 0 0 0 0 0 0 0 0 0 0 0 0 0
0.0675157 3.22519e-12 2.75084e-12 4.74345e-13 0.147075 0.0534938 0 0 0 0 0 0 0 0 0 0 0 0 0 0 0 0 0 0 0 0 0 0 0 0 0 0 0 0 0 0 0 0 0 0 0 0 0 0 0 0 0 0
0.0709813 3.56479e-12 3.04049e-12 5.24291e-13 0.147075 0.0591265 0 0 0 0 0 0 0 0 0 0 0 0 0 0 0 0 0 0 0 0 0 0 0 0 0 0 0 0 0 0 0 0 0 0 0 0 0 0 0 0 0 0
0.0746248 3.94014e-12 3.36064e-12 5.79497e-13 0.147075 0.0653522 0 0 0 0 0 0 0 0 0 0 0 0 0 0 0 0 0 0 0 0 0 0 0 0 0 0 0 0 0 0 0 0 0 0 0 0 0 0 0 0 0 0
0.0784553 4.35502e-12 3.7145e-12 6.40515e-13 0.147075 0.0722335 0 0 0 0 0 0 0 0 0 0 0 0 0 0 0 0 0 0 0 0 0 0 0 0 0 0 0 0 0 0 0 0 0 0 0 0 0 0 0 0 0 0
0.0824824 4.81358e-12 4.10562e-12 7.07958e-13 0.147075 0.0798393 0 0 0 0 0 0 0 0 0 0 0 0 0 0 0 0 0 0 0 0 0 0 0 0 0 0 0 0 0 0 0 0 0 0 0 0 0 0 0 0 0 0
0.0867162 5.32043e-12 4.53793e-12 7.82503e-13 0.147075 0.088246 0 0 0 0 0 0 0 0 0 0 0 0 0 0 0 0 0 0 0 0 0 0 0 0 0 0 0 0 0 0 0 0 0 0 0 0 0 0 0 0 0 0
0.0911674 5.88064e-12 5.01575e-12 8.64896e-13 0.147075 0.0975379 0 0 0 0 0 0 0 0 0 0 0 0 0 0 0 0 0 0 0 0 0 0 0 0 0 0 0 0 0 0 0 0 0 0 0 0 0 0 0 0 0 0
0.095847 6.49985e-12 5.54388e-12 9.55966e-13 0.147075 0.107808 0 0 0 0 0 0 0 0 0 0 0 0 0 0 0 0 0 0 0 0 0 0 0 0 0 0 0 0 0 0 0 0 0 0 0 0 0 0 0 0 0 0
0.100767 7.01566e-12 5.9901e-12 1.02556e-12 0.146182 0.116391 0 0 0 0 0 0 0 0 0 0 0 0 0 0 0 0 0 0 0 0 0 0 0 0 0 0 0 0 0 0 0 0 0 0 0 0 0 0 0 0 0 0
0.105939 6.58513e-12 5.6569e-12 9.28235e-13 0.140959 0.111645 0 0 0 0 0 0 0 0 0 0 0 0 0 0 0 0 0 0 0 0 0 0 0 0 0 0 0 0 0 0 0 0 0 0 0 0 0 0 0 0 0 0
0.111377 6.05122e-12 5.2265e-12 8.24717e-13 0.136289 0.105455 0 0 0 0 0 0 0 0 0 0 0 0 0 0 0 0 0 0 0 0 0 0 0 0 0 0 0 0 0 0 0 0 0 0 0 0 0 0 0 0 0 0
0.117094 5.45309e-12 4.72943e-12 7.23657e-13 0.132706 0.0987745 0 0 0 0 0 0 0 0 0 0 0 0 0 0 0 0 0 0 0 0 0 0 0 0 0 0 0 0 0 0 0 0 0 0 0 0 0 0 0 0 0 0
0.123105 4.75756e-12 4.1377e-12 6.19856e-13 0.130289 0.0921906 0 0 0 0 0 0 0 0 0 0 0 0 0 0 0 0 0 0 0 0 0 0 0 0 0 0 0 0 0 0 0 0 0 0 0 0 0 0 0 0 0 0
0.129424 4.0423e-12 3.52532e-12 5.16984e-13 0.127893 0.0859924 0 0 0 0 0 0 0 0 0 0 0 0 0 0 0 0 0 0 0 0 0 0 0 0 0 0 0 0 0 0 0 0 0 0 0 0 0 0 0 0 0 0
0.136067 3.36276e-12 2.92834e-12 4.34423e-13 0.129186 0.0804279 0 0 0 0 0 0 0 0 0 0 0 0 0 0 0 0 0 0 0 0 0 0 0 0 0 0 0 0 0 0 0 0 0 0 0 0 0 0 0 0 0 0
0.143051 2.60539e-12 2.25175e-12 3.53644e-13 0.135735 0.0762343 0 0 0 0 0 0 0 0 0 0 0 0 0 0 0 0 0 0 0 0 0 0 0 0 0 0 0 0 0 0 0 0 0 0 0 0 0 0 0 0 0 0
0.150394 1.85737e-12 1.5824e-12 2.74973e-13 0.148044 0.0727295 0 0 0 0 0 0 0 0 0 0 0 0 0 0 0 0 0 0 0 0 0 0 0 0 0 0 0 0 0 0 0 0 0 0 0 0 0 0 0 0 0 0
0.158114 1.23972e-12 1.03453e-12 2.05189e-13 0.165513 0.0664551 0 0 0 0 0 0 0 0 0 0 0 0 0 0 0 0 0 0 0 0 0 0 0 0 0 0 0 0 0 0 0 0 0 0 0 0 0 0 0 0 0 0
0.16623 8.11821e-13 6.62166e-13 1.49655e-13 0.184345 0.0589093 0 0 0 0 0 0 0 0 0 0 0 0 0 0 0 0 0 0 0 0 0 0 0 0 0 0 0 0 0 0 0 0 0 0 0 0 0 0 0 0 0 0
0.174762 5.72524e-13 4.62606e-13 1.09918e-13 0.191988 0.0518445 0 0 0 0 0 0 0 0 0 0 0 0 0 0 0 0 0 0 0 0 0 0 0 0 0 0 0 0 0 0 0 0 0 0 0 0 0 0 0 0 0 0
0.183733 4.04916e-13 3.23809e-13 8.11068e-14 0.200305 0.0456652 0 0 0 0 0 0 0 0 0 0 0 0 0 0 0 0 0 0 0 0 0 0 0 0 0 0 0 0 0 0 0 0 0 0 0 0 0 0 0 0 0 0
0.193164 3.01591e-13 2.41124e-13 6.04672e-14 0.200494 0.0403737 0 0 0 0 0 0 0 0 0 0 0 0 0 0 0 0 0 0 0 0 0 0 0 0 0 0 0 0 0 0 0 0 0 0 0 0 0 0 0 0 0 0
0.203079 2.65605e-13 2.19871e-13 4.5734e-14 0.172188 0.0358207 0 0 0 0 0 0 0 0 0 0 0 0 0 0 0 0 0 0 0 0 0 0 0 0 0 0 0 0 0 0 0 0 0 0 0 0 0 0 0 0 0 0
0.213503 2.43642e-13 2.08421e-13 3.52215e-14 0.144562 0.031861 0 0 0 0 0 0 0 0 0 0 0 0 0 0 0 0 0 0 0 0 0 0 0 0 0 0 0 0 0 0 0 0 0 0 0 0 0 0 0 0 0 0
0.224463 2.22923e-13 1.95298e-13 2.76254e-14 0.123924 0.0284274 0 0 0 0 0 0 0 0 0 0 0 0 0 0 0 0 0 0 0 0 0 0 0 0 0 0 0 0 0 0 0 0 0 0 0 0 0 0 0 0 0 0
0.235984 2.06858e-13 1.85043e-13 2.18148e-14 0.105458 0.0254538 0 0 0 0 0 0 0 0 0 0 0 0 0 0 0 0 0 0 0 0 0 0 0 0 0 0 0 0 0 0 0 0 0 0 0 0 0 0 0 0 0 0
0.248097 1.93351e-13 1.7603e-13 1.7321e-14 0.0895829 0.0228542 0 0 0 0 0 0 0 0 0 0 0 0 0 0 0 0 0 0 0 0 0 0 0 0 0 0 0 0 0 0 0 0 0 0 0 0 0 0 0 0 0 0
0.260832 1.82085e-13 1.68241e-13 1.38438e-14 0.0760295 0.0205537 0 0 0 0 0 0 0 0 0 0 0 0 0 0 0 0 0 0 0 0 0 0 0 0 0 0 0 0 0 0 0 0 0 0 0 0 0 0 0 0 0 0
0.274221 1.71831e-13 1.60724e-13 1.11073e-14 0.0646407 0.0185036 0 0 0 0 0 0 0 0 0 0 0 0 0 0 0 0 0 0 0 0 0 0 0 0 0 0 0 0 0 0 0 0 0 0 0 0 0 0 0 0 0 0
0.288297 1.623e-13 1.53356e-13 8.9441e-15 0.0551085 0.0166753 0 0 0 0 0 0 0 0 0 0 0 0 0 0 0 0 0 0 0 0 0 0 0 0 0 0 0 0 0 0 0 0 0 0 0 0 0 0 0 0 0 0
0.303095 1.53414e-13 1.46194e-13 7.22001e-15 0.0470624 0.0150389 0 0 0 0 0 0 0 0 0 0 0 0 0 0 0 0 0 0 0 0 0 0 0 0 0 0 0 0 0 0 0 0 0 0 0 0 0 0 0 0 0 0
0.318653 1.45083e-13 1.3924e-13 5.84299e-15 0.0402735 0.0135688 0 0 0 0 0 0 0 0 0 0 0 0 0 0 0 0 0 0 0 0 0 0 0 0 0 0 0 0 0 0 0 0 0 0 0 0 0 0 0 0 0 0
0.335009 1.37265e-13 1.32527e-13 4.73824e-15 0.0345189 0.0122474 0 0 0 0 0 0 0 0 0 0 0 0 0 0 0 0 0 0 0 0 0 0 0 0 0 0 0 0 0 0 0 0 0 0 0 0 0 0 0 0 0 0
0.352205 1.29934e-13 1.26085e-13 3.8485e-15 0.0296189 0.0110591 0 0 0 0 0 0 0 0 0 0 0 0 0 0 0 0 0 0 0 0 0 0 0 0 0 0 0 0 0 0 0 0 0 0 0 0 0 0 0 0 0 0
0.370284 1.23027e-13 1.19895e-13 3.13183e-15 0.0254565 0.00998925 0 0 0 0 0 0 0 0 0 0 0 0 0 0 0 0 0 0 0 0 0 0 0 0 0 0 0 0 0 0 0 0 0 0 0 0 0 0 0 0 0 0
0.389291 1.16535e-13 1.13984e-13 2.55067e-15 0.0218876 0.00902545 0 0 0 0 0 0 0 0 0 0 0 0 0 0 0 0 0 0 0 0 0 0 0 0 0 0 0 0 0 0 0 0 0 0 0 0 0 0 0 0 0 0
0.409273 1.10413e-13 1.08333e-13 2.08021e-15 0.0188403 0.00815608 0 0 0 0 0 0 0 0 0 0 0 0 0 0 0 0 0 0 0 0 0 0 0 0 0 0 0 0 0 0 0 0 0 0 0 0 0 0 0 0 0 0
0.430281 1.04647e-13 1.0295e-13 1.69777e-15 0.0162237 0.00737119 0 0 0 0 0 0 0 0 0 0 0 0 0 0 0 0 0 0 0 0 0 0 0 0 0 0 0 0 0 0 0 0 0 0 0 0 0 0 0 0 0 0
0.452368 9.92081e-14 9.78214e-14 1.38669e-15 0.0139776 0.00666459 0 0 0 0 0 0 0 0 0 0 0 0 0 0 0 0 0 0 0 0 0 0 0 0 0 0 0 0 0 0 0 0 0 0 0 0 0 0 0 0 0 0
0.475588 9.40674e-14 9.29342e-14 1.13322e-15 0.0120469 0.00602583 0 0 0 0 0 0 0 0 0 0 0 0 0 0 0 0 0 0 0 0 0 0 0 0 0 0 0 0 0 0 0 0 0 0 0 0 0 0 0 0 0 0
0.5 8.92141e-14 8.82874e-14 9.26654e-16 0.0103869 0.00544846 0 0 0 0 0 0 0 0 0 0 0 0 0 0 0 0 0 0 0 0 0 0 0 0 0 0 0 0 0 0 0 0 0 0 0 0 0 0 0 0 0 0
0.525665 8.46238e-14 8.38656e-14 7.5828e-16 0.0089606 0.0049267 0 0 0 0 0 0 0 0 0 0 0 0 0 0 0 0 0 0 0 0 0 0 0 0 0 0 0 0 0 0 0 0 0 0 0 0 0 0 0 0 0 0
0.552648 8.02761e-14 7.96553e-14 6.20839e-16 0.00773379 0.00445554 0 0 0 0 0 0 0 0 0 0 0 0 0 0 0 0 0 0 0 0 0 0 0 0 0 0 0 0 0 0 0 0 0 0 0 0 0 0 0 0 0 0
0.581015 7.61807e-14 7.56725e-14 5.08169e-16 0.00667058 0.00403047 0 0 0 0 0 0 0 0 0 0 0 0 0 0 0 0 0 0 0 0 0 0 0 0 0 0 0 0 0 0 0 0 0 0 0 0 0 0 0 0 0 0
0.610839 7.23065e-14 7.18905e-14 4.16019e-16 0.00575355 0.00364564 0 0 0 0 0 0 0 0 0 0 0 0 0 0 0 0 0 0 0 0 0 0 0 0 0 0 0 0 0 0 0 0 0 0 0 0 0 0 0 0 0 0
0.642193 6.86081e-14 6.82673e-14 3.40785e-16 0.00496713 0.00329731 0 0 0 0 0 0 0 0 0 0 0 0 0 0 0 0 0 0 0 0 0 0 0 0 0 0 0 0 0 0 0 0 0 0 0 0 0 0 0 0 0 0
0.675157 6.51226e-14 6.48435e-14 2.7915e-16 0.00428653 0.002983 0 0 0 0 0 0 0 0 0 0 0 0 0 0 0 0 0 0 0 0 0 0 0 0 0 0 0 0 0 0 0 0 0 0 0 0 0 0 0 0 0 0
0.709813 6.18447e-14 6.16161e-14 2.28626e-16 0.00369678 0.00269874 0 0 0 0 0 0 0 0 0 0 0 0 0 0 0 0 0 0 0 0 0 0 0 0 0 0 0 0 0 0 0 0 0 0 0 0 0 0 0 0 0 0
0.746248 5.87464e-14 5.85591e-14 1.87286e-16 0.00318804 0.0024414 0 0 0 0 0 0 0 0 0 0 0 0 0 0 0 0 0 0 0 0 0 0 0 0 0 0 0 0 0 0 0 0 0 0 0 0 0 0 0 0 0 0
0.784553 5.58142e-14 5.56608e-14 1.53375e-16 0.00274795 0.00220842 0 0 0 0 0 0 0 0 0 0 0 0 0 0 0 0 0 0 0 0 0 0 0 0 0 0 0 0 0 0 0 0 0 0 0 0 0 0 0 0 0 0
0.824824 5.3038e-14 5.29124e-14 1.25618e-16 0.00236846 0.00199814 0 0 0 0 0 0 0 0 0 0 0 0 0 0 0 0 0 0 0 0 0 0 0 0 0 0 0 0 0 0 0 0 0 0 0 0 0 0 0 0 0 0
0.867162 5.03964e-14 5.02935e-14 1.02878e-16 0.00204138 0.00180797 0 0 0 0 0 0 0 0 0 0 0 0 0 0 0 0 0 0 0 0 0 0 0 0 0 0 0 0 0 0 0 0 0 0 0 0 0 0 0 0 0 0
0.911674 4.79278e-14 4.78436e-14 8.4212e-17 0.00175706 0.0016358 0 0 0 0 0 0 0 0 0 0 0 0 0 0 0 0 0 0 0 0 0 0 0 0 0 0 0 0 0 0 0 0 0 0 0 0 0 0 0 0 0 0
0.95847 4.56142e-14 4.55453e-14 6.88798e-17 0.00151005 0.00147997 0 0 0 0 0 0 0 0 0 0 0 0 0 0 0 0 0 0 0 0 0 0 0 0 0 0 0 0 0 0 0 0 0 0 0 0 0 0 0 0 0 0
1.00767 4.34232e-14 4.3367e-14 5.61986e-17 0.0012942 0.0013391 0 0 0 0 0 0 0 0 0 0 0 0 0 0 0 0 0 0 0 0 0 0 0 0 0 0 0 0 0 0 0 0 0 0 0 0 0 0 0 0 0 0
1.05939 4.22691e-14 4.22233e-14 4.5862e-17 0.001085 0.0012117 0 0 0 0 0 0 0 0 0 0 0 0 0 0 0 0 0 0 0 0 0 0 0 0 0 0 0 0 0 0 0 0 0 0 0 0 0 0 0 0 0 0
1.11377 4.13044e-14 4.12669e-14 3.74817e-17 0.000907449 0.00109633 0 0 0 0 0 0 0 0 0 0 0 0 0 0 0 0 0 0 0 0 0 0 0 0 0 0 0 0 0 0 0 0 0 0 0 0 0 0 0 0 0 0
1.17094 4.05171e-14 4.04864e-14 3.06951e-17 0.000757584 0.000991861 0 0 0 0 0 0 0 0 0 0 0 0 0 0 0 0 0 0 0 0 0 0 0 0 0 0 0 0 0 0 0 0 0 0 0 0 0 0 0 0 0 0
1.23105 3.98195e-14 3.97943e-14 2.51298e-17 0.000631094 0.000897359 0 0 0 0 0 0 0 0 0 0 0 0 0 0 0 0 0 0 0 0 0 0 0 0 0 0 0 0 0 0 0 0 0 0 0 0 0 0 0 0 0 0
1.29424 3.90629e-14 3.90423e-14 2.05834e-17 0.000526931 0.000811886 0 0 0 0 0 0 0 0 0 0 0 0 0 0 0 0 0 0 0 0 0 0 0 0 0 0 0 0 0 0 0 0 0 0 0 0 0 0 0 0 0 0
1.36067 3.82167e-14 3.81997e-14 1.69323e-17 0.00044306 0.000734609 0 0 0 0 0 0 0 0 0 0 0 0 0 0 0 0 0 0 0 0 0 0 0 0 0 0 0 0 0 0 0 0 0 0 0 0 0 0 0 0 0 0
1.43051 3.73123e-14 3.72985e-14 1.37768e-17 0.000369229 0.000664541 0 0 0 0 0 0 0 0 0 0 0 0 0 0 0 0 0 0 0 0 0 0 0 0 0 0 0 0 0 0 0 0 0 0 0 0 0 0 0 0 0 0
1.50394 3.63828e-14 3.63716e-14 1.12613e-17 0.000309521 0.000601179 0 0 0 0 0 0 0 0 0 0 0 0 0 0 0 0 0 0 0 0 0 0 0 0 0 0 0 0 0 0 0 0 0 0 0 0 0 0 0 0 0 0
1.58114 3.54844e-14 3.54752e-14 9.21458e-18 0.000259679 0.00054393 0 0 0 0 0 0 0 0 0 0 0 0 0 0 0 0 0 0 0 0 0 0 0 0 0 0 0 0 0 0 0 0 0 0 0 0 0 0 0 0 0 0
1.6623 3.4665e-14 3.46574e-14 7.53941e-18 0.000217494 0.000492039 0 0 0 0 0 0 0 0 0 0 0 0 0 0 0 0 0 0 0 0 0 0 0 0 0 0 0 0 0 0 0 0 0 0 0 0 0 0 0 0 0 0
1.74763 3.3971e-14 3.39649e-14 6.16804e-18 0.000181568 0.000445065 0 0 0 0 0 0 0 0 0 0 0 0 0 0 0 0 0 0 0 0 0 0 0 0 0 0 0 0 0 0 0 0 0 0 0 0 0 0 0 0 0 0
1.83733 3.34521e-14 3.34471e-14 5.04397e-18 0.000150782 0.000402522 0 0 0 0 0 0 0 0 0 0 0 0 0 0 0 0 0 0 0 0 0 0 0 0 0 0 0 0 0 0 0 0 0 0 0 0 0 0 0 0 0 0
1.93164 3.31307e-14 3.31266e-14 4.12323e-18 0.000124454 0.00036409 0 0 0 0 0 0 0 0 0 0 0 0 0 0 0 0 0 0 0 0 0 0 0 0 0 0 0 0 0 0 0 0 0 0 0 0 0 0 0 0 0 0
2.03079 3.30058e-14 3.30024e-14 3.37255e-18 0.000102181 0.00032932 0 0 0 0 0 0 0 0 0 0 0 0 0 0 0 0 0 0 0 0 0 0 0 0 0 0 0 0 0 0 0 0 0 0 0 0 0 0 0 0 0 0
2.13503 3.30298e-14 3.30271e-14 2.76113e-18 8.3595e-05 0.000297812 0 0 0 0 0 0 0 0 0 0 0 0 0 0 0 0 0 0 0 0 0 0 0 0 0 0 0 0 0 0 0 0 0 0 0 0 0 0 0 0 0 0
2.24463 3.30939e-14 3.30916e-14 2.26255e-18 6.83676e-05 0.000269275 0 0 0 0 0 0 0 0 0 0 0 0 0 0 0 0 0 0 0 0 0 0 0 0 0 0 0 0 0 0 0 0 0 0 0 0 0 0 0 0 0 0
2.35984 3.31669e-14 3.31651e-14 1.85514e-18 5.59333e-05 0.000243496 0 0 0 0 0 0 0 0 0 0 0 0 0 0 0 0 0 0 0 0 0 0 0 0 0 0 0 0 0 0 0 0 0 0 0 0 0 0 0 0 0 0
2.48097 3.32923e-14 3.32907e-14 1.52159e-18 4.57041e-05 0.000220139 0 0 0 0 0 0 0 0 0 0 0 0 0 0 0 0 0 0 0 0 0 0 0 0 0 0 0 0 0 0 0 0 0 0 0 0 0 0 0 0 0 0
2.60832 3.34755e-14 3.34742e-14 1.24877e-18 3.73041e-05 0.000198997 0 0 0 0 0 0 0 0 0 0 0 0 0 0 0 0 0 0 0 0 0 0 0 0 0 0 0 0 0 0 0 0 0 0 0 0 0 0 0 0 0 0
2.74221 3.376e-14 3.3759e-14 1.02566e-18 3.0381e-05 0.000179867 0 0 0 0 0 0 0 0 0 0 0 0 0 0 0 0 0 0 0 0 0 0 0 0 0 0 0 0 0 0 0 0 0 0 0 0 0 0 0 0 0 0
2.88297 3.41506e-14 3.41498e-14 8.43858e-19 2.47099e-05 0.000162545 0 0 0 0 0 0 0 0 0 0 0 0 0 0 0 0 0 0 0 0 0 0 0 0 0 0 0 0 0 0 0 0 0 0 0 0 0 0 0 0 0 0
3.03095 3.46396e-14 3.46389e-14 6.96932e-19 2.01195e-05 0.000146879 0 0 0 0 0 0 0 0 0 0 0 0 0 0 0 0 0 0 0 0 0 0 0 0 0 0 0 0 0 0 0 0 0 0 0 0 0 0 0 0 0 0
3.18653 3.4805e-14 3.48045e-14 5.76966e-19 1.65771e-05 0.000132698 0 0 0 0 0 0 0 0 0 0 0 0 0 0 0 0 0 0 0 0 0 0 0 0 0 0 0 0 0 0 0 0 0 0 0 0 0 0 0 0 0 0
3.35009 3.56841e-14 3.56837e-14 4.7173e-19 1.32196e-05 0.000119852 0 0 0 0 0 0 0 0 0 0 0 0 0 0 0 0 0 0 0 0 0 0 0 0 0 0 0 0 0 0 0 0 0 0 0 0 0 0 0 0 0 0
3.52205 3.5556e-14 3.55556e-14 4.10455e-19 1.15439e-05 0.000108224 0 0 0 0 0 0 0 0 0 0 0 0 0 0 0 0 0 0 0 0 0 0 0 0 0 0 0 0 0 0 0 0 0 0 0 0 0 0 0 0 0 0
3.70284 3.31901e-14 3.31897e-14 3.33911e-19 1.00606e-05 9.77076e-05 0 0 0 0 0 0 0 0 0 0 0 0 0 0 0 0 0 0 0 0 0 0 0 0 0 0 0 0 0 0 0 0 0 0 0 0 0 0 0 0 0 0
3.89291 3.25145e-14 3.25142e-14 2.73612e-19 8.41508e-06 8.81768e-05 0 0 0 0 0 0 0 0 0 0 0 0 0 0 0 0 0 0 0 0 0 0 0 0 0 0 0 0 0 0 0 0 0 0 0 0 0 0 0 0 0 0
4.09273 3.19835e-14 3.19833e-14 2.2436e-19 7.01485e-06 7.95339e-05 0 0 0 0 0 0 0 0 0 0 0 0 0 0 0 0 0 0 0 0 0 0 0 0 0 0 0 0 0 0 0 0 0 0 0 0 0 0 0 0 0 0
4.30281 3.15991e-14 3.15989e-14 1.84052e-19 5.8246e-06 7.1702e-05 0 0 0 0 0 0 0 0 0 0 0 0 0 0 0 0 0 0 0 0 0 0 0 0 0 0 0 0 0 0 0 0 0 0 0 0 0 0 0 0 0 0
4.52368 3.1374e-14 3.13738e-14 1.51143e-19 4.81746e-06 6.46145e-05 0 0 0 0 0 0 0 0 0 0 0 0 0 0 0 0 0 0 0 0 0 0 0 0 0 0 0 0 0 0 0 0 0 0 0 0 0 0 0 0 0 0
4.75588 3.12658e-14 3.12656e-14 1.24322e-19 3.97629e-06 5.81848e-05 0 0 0 0 0 0 0 0 0 0 0 0 0 0 0 0 0 0 0 0 0 0 0 0 0 0 0 1.4013e-45 0 1.4013e-45 0 2.8026e-45 0 5.60519e-45 0 9.80909e-45 0 1.54143e-44 0 2.52234e-44 0 3.92364e-44
5 3.11886e-14 3.11885e-14 1.02478e-19 3.28576e-06 5.23383e-05 0 0 0 0 0 0 0 0 0 0 0 0 0 0 0 0 0 1.4013e-45 0 2.8026e-45 0 5.60519e-45 0 1.26117e-44 0 2.66247e-44 0 5.04467e-44 0 9.3887e-44 0 1.66755e-43 0 2.88667e-43 0 4.82047e-43 0 7.83326e-43 0 1.24155e-42 0 1.92538e-42
5.25665 3.10649e-14 3.10648e-14 8.45563e-20 2.72193e-06 4.70255e-05 0 0 0 0 0 0 0 0 0 0 0 1.4013e-45 0 5.60519e-45 0 1.82169e-44 0 5.04467e-44 0 1.26117e-43 0 2.87266e-43 0 6.12367e-43 0 1.22333e-42 0 2.31915e-42 0 4.2137e-42 0 7.37083e-42 0 1.2487e-41 0 2.06075e-41 0 3.29768e-41 0 5.15538e-41 0 7.89015e-41
5.52648 3.09001e-14 3.09001e-14 6.97691e-20 2.25789e-06 4.22166e-05 0 0 0 0 0 0 0 1.4013e-45 0 1.4013e-44 0 7.00649e-44 0 2.62043e-43 0 8.11352e-43 0 2.18462e-42 0 5.2927e-42 0 1.17625e-41 0 2.45073e-41 0 4.79945e-41 0 8.93804e-41 0 1.59573e-40 0 2.74596e-40 0 4.58044e-40 0 7.44735e-40 0 1.1753e-39 0 1.81311e-39 0 2.73987e-39
5.81015 3.06719e-14 3.06718e-14 5.75025e-20 1.87476e-06 3.78335e-05 0 0 0 0 0 7.00649e-45 0 8.96831e-44 0 6.13769e-43 0 2.82782e-42 0 1.01132e-41 0 3.04124e-41 0 7.96078e-41 0 1.881e-40 0 4.08631e-40 0 8.33481e-40 0 1.6008e-39 0 2.92785e-39 0 5.13945e-39 0 8.70429e-39 1.4013e-45 1.43013e-38 4.2039e-45 2.29167e-38 9.80909e-45 3.56783e-38 2.24208e-44 5.43318e-38 4.90454e-44 8.10923e-38
6.10839 3.04143e-14 3.04142e-14 4.72946e-20 1.55501e-06 3.38495e-05 0 0 0 4.2039e-45 0 2.69049e-43 0 3.38554e-42 0 2.18701e-41 0 9.66896e-41 0 3.33688e-40 0 9.72744e-40 0 2.47794e-39 0 5.71325e-39 0 1.21389e-38 0 2.42524e-38 1.4013e-45 4.57054e-38 4.2039e-45 8.21364e-38 1.54143e-44 1.4182e-37 4.76441e-44 2.3649e-37 1.27518e-43 3.82872e-37 3.26503e-43 6.04884e-37 7.8753e-43 9.29349e-37 1.76283e-42 1.39747e-36 3.81574e-42 2.06074e-36
6.42193 3.01206e-14 3.01206e-14 3.87575e-20 1.28674e-06 3.02148e-05 0 4.2039e-45 0 1.75162e-43 0 9.24857e-42 0 1.08763e-40 0 6.67643e-40 0 2.8329e-39 0 9.44478e-39 0 2.67122e-38 0 6.62669e-38 1.4013e-45 1.49184e-37 7.00649e-45 3.10182e-37 3.08286e-44 6.07346e-37 1.20512e-43 1.12364e-36 4.18988e-43 1.98493e-36 1.2948e-42 3.37259e-36 3.66019e-42 5.53944e-36 9.32424e-42 8.84024e-36 2.28412e-41 1.37748e-35 5.28794e-41 2.08925e-35 1.13815e-40 3.10317e-35 2.37245e-40 4.52242e-35
6.75157 2.99083e-14 2.99082e-14 3.15117e-20 1.05361e-06 2.68652e-05 0 1.62551e-43 0 5.77615e-42 0 2.74329e-40 0 3.01739e-39 0 1.76233e-38 0 7.18432e-38 0 2.31599e-37 2.8026e-45 6.36003e-37 1.82169e-44 1.53757e-36 1.16308e-43 3.38187e-36 5.84341e-43 6.88478e-36 2.44386e-42 1.32184e-35 8.79875e-42 2.40188e-35 2.87476e-41 4.17259e-35 8.40387e-41 6.97938e-35 2.25752e-40 1.12957e-34 5.49359e-40 1.77756e-34 1.28817e-39 2.73276e-34 2.86238e-39 4.09304e-34 5.93461e-39 6.00685e-34 1.19348e-38 8.6542e-34
7.09813 2.94261e-14 2.94261e-14 2.56055e-20 8.70163e-07 2.3711e-05 0 5.03767e-42 0 1.62807e-40 0 6.9715e-39 0 7.18519e-38 0 3.99815e-37 1.4013e-45 1.56757e-36 1.68156e-44 4.89044e-36 1.87774e-43 1.30499e-35 1.43773e-42 3.0765e-35 8.29429e-42 6.61509e-35 3.85651e-41 1.31928e-34 1.50373e-40 2.48493e-34 5.0872e-40 4.43678e-34 1.56864e-39 7.583e-34 4.35174e-39 1.24915e-33 1.11393e-38 1.9928e-33 2.59554e-38 3.09347e-33 5.83813e-38 4.69382e-33 1.24766e-37 6.94459e-33 2.49632e-37 1.00731e-32 4.85187e-37 1.4351e-32
7.46248 2.90351e-14 2.90351e-14 2.0294e-20 6.98946e-07 2.06406e-05 0 1.35437e-40 0 3.99033e-39 0 1.54509e-37 0 1.49477e-36 2.8026e-45 7.93446e-36 8.12753e-44 2.995e-35 1.33964e-42 9.05013e-35 1.29368e-41 2.34842e-34 8.99101e-41 5.40232e-34 4.76052e-40 1.13623e-33 2.05346e-39 2.22107e-33 7.49222e-39 4.1062e-33 2.38823e-38 7.20717e-33 6.97018e-38 1.21237e-32 1.8397e-37 1.96761e-32 4.49792e-37 3.09525e-32 1.00565e-36 4.74129e-32 2.17422e-36 7.1028e-32 4.47738e-36 1.03838e-31 8.66007e-36 1.48908e-31 1.62944e-35 2.09845e-31
7.84553 2.8629e-14 2.8629e-14 1.53603e-20 5.36529e-07 1.7712e-05 0 3.16413e-39 0 8.5218e-38 0 2.99203e-36 2.8026e-45 2.72166e-35 2.0459e-43 1.37987e-34 5.81118e-42 5.01946e-34 8.29064e-41 1.47031e-33 7.1675e-40 3.71283e-33 4.5317e-39 8.33942e-33 2.21189e-38 1.7166e-32 8.88384e-38 3.29065e-32 3.04284e-37 5.97404e-32 9.16566e-37 1.03122e-31 2.53875e-36 1.70802e-31 6.39063e-36 2.73204e-31 1.49573e-35 4.23942e-31 3.21532e-35 6.4102e-31 6.69474e-35 9.48413e-31 1.33087e-34 1.37045e-30 2.49257e-34 1.94354e-30 4.54738e-34 2.7099e-30
8.24824 3.19117e-14 3.19116e-14 1.13009e-20 3.5413e-07 1.52241e-05 0 7.30689e-38 0 1.80351e-36 0 5.75715e-35 2.08793e-43 4.93212e-34 1.54661e-41 2.39123e-33 3.7363e-40 8.39071e-33 4.6818e-39 2.38447e-32 3.64295e-38 5.86365e-32 2.10496e-37 1.28673e-31 9.50892e-37 2.59364e-31 3.56851e-36 4.87808e-31 1.15096e-35 8.7005e-31 3.28521e-35 1.47765e-30 8.658e-35 2.41073e-30 2.08337e-34 3.80184e-30 4.67782e-34 5.82133e-30 9.68697e-34 8.69147e-30 1.94602e-33 1.27043e-29 3.74093e-33 1.81503e-29 6.79493e-33 2.54625e-29 1.20379e-32 3.51362e-29
8.67162 3.876e-14 3.876e-14 9.79949e-21 2.52825e-07 1.32493e-05 0 1.61609e-36 0 3.66463e-35 3.78351e-44 1.06635e-33 1.71127e-41 8.61738e-33 1.02588e-39 3.99996e-32 2.12142e-38 1.35517e-31 2.34958e-37 3.73909e-31 1.65397e-36 8.96022e-31 8.77252e-36 1.92213e-30 3.68161e-35 3.79596e-30 1.29524e-34 7.00805e-30 3.94542e-34 1.22856e-29 1.06993e-33 2.05373e-29 2.68945e-33 3.3016e-29 6.20002e-33 5.13537e-29 1.3382e-32 7.76168e-29 2.67441e-32 1.14464e-28 5.19273e-32 1.65346e-28 9.66876e-32 2.33623e-28 1.70577e-31 3.24295e-28 2.93873e-31 4.42999e-28
