# 1.8836e-06 1 69 : grain size, compostion index, size index
# Heating and cooling timescale: 33.5298 20799.3
# Ratio of heating to cooling to determine stochastic cutoff: 100
# Equilibrium emission is recorded even for those grains in the stochastic regime.
# Emission spectrum was computed for: 
# Type: IRSF
# Scales: 0.25 0.5 1 1.5 2 2.5 3 3.5 4 4.5 5 5.5 6 6.5 7 7.5 8 8.5 9 9.5 10
# StochasticallyHeated: 1 1 1 1 0 0 0 0 0 0 0 0 0 0 0 0 0 0 0 0 0
# Temperature: -1
# Wavelength  CExt  CAbs  CSca  Albedo G EqEm1 StEm1 EqEm2 StEm2 EqEm3 StEm3 EqEm4 StEm4 EqEm5 StEm5 EqEm6 StEm6 EqEm7 StEm7 EqEm8 StEm8 EqEm9 StEm9 EqEm10 StEm10 EqEm11 StEm11 EqEm12 StEm12 EqEm13 StEm13 EqEm14 StEm14 EqEm15 StEm15 EqEm16 StEm16 EqEm17 StEm17 EqEm18 StEm18 EqEm19 StEm19 EqEm20 StEm20 EqEm21 StEm21
0.05 5.55382e-12 4.04624e-12 1.50757e-12 0.271448 0.0745485 0 0 0 0 0 0 0 0 0 0 0 0 0 0 0 0 0 0 0 0 0 0 0 0 0 0 0 0 0 0 0 0 0 0 0 0 0 0 0 0 0 0
0.0525665 6.13861e-12 4.47229e-12 1.66632e-12 0.271448 0.0823981 0 0 0 0 0 0 0 0 0 0 0 0 0 0 0 0 0 0 0 0 0 0 0 0 0 0 0 0 0 0 0 0 0 0 0 0 0 0 0 0 0 0
0.0552647 6.78497e-12 4.9432e-12 1.84177e-12 0.271448 0.0910742 0 0 0 0 0 0 0 0 0 0 0 0 0 0 0 0 0 0 0 0 0 0 0 0 0 0 0 0 0 0 0 0 0 0 0 0 0 0 0 0 0 0
0.0581015 7.4994e-12 5.4637e-12 2.0357e-12 0.271448 0.100664 0 0 0 0 0 0 0 0 0 0 0 0 0 0 0 0 0 0 0 0 0 0 0 0 0 0 0 0 0 0 0 0 0 0 0 0 0 0 0 0 0 0
0.0610839 8.28904e-12 6.039e-12 2.25005e-12 0.271448 0.111263 0 0 0 0 0 0 0 0 0 0 0 0 0 0 0 0 0 0 0 0 0 0 0 0 0 0 0 0 0 0 0 0 0 0 0 0 0 0 0 0 0 0
0.0642193 9.16184e-12 6.67487e-12 2.48697e-12 0.271448 0.122979 0 0 0 0 0 0 0 0 0 0 0 0 0 0 0 0 0 0 0 0 0 0 0 0 0 0 0 0 0 0 0 0 0 0 0 0 0 0 0 0 0 0
0.0675157 1.01265e-11 7.37771e-12 2.74883e-12 0.271448 0.135928 0 0 0 0 0 0 0 0 0 0 0 0 0 0 0 0 0 0 0 0 0 0 0 0 0 0 0 0 0 0 0 0 0 0 0 0 0 0 0 0 0 0
0.0709813 1.11928e-11 8.15454e-12 3.03827e-12 0.271448 0.15024 0 0 0 0 0 0 0 0 0 0 0 0 0 0 0 0 0 0 0 0 0 0 0 0 0 0 0 0 0 0 0 0 0 0 0 0 0 0 0 0 0 0
0.0746248 1.23714e-11 9.01317e-12 3.35819e-12 0.271448 0.16606 0 0 0 0 0 0 0 0 0 0 0 0 0 0 0 0 0 0 0 0 0 0 0 0 0 0 0 0 0 0 0 0 0 0 0 0 0 0 0 0 0 0
0.0784553 1.3674e-11 9.96222e-12 3.71179e-12 0.271448 0.183545 0 0 0 0 0 0 0 0 0 0 0 0 0 0 0 0 0 0 0 0 0 0 0 0 0 0 0 0 0 0 0 0 0 0 0 0 0 0 0 0 0 0
0.0824824 1.51138e-11 1.10112e-11 4.10262e-12 0.271448 0.202872 0 0 0 0 0 0 0 0 0 0 0 0 0 0 0 0 0 0 0 0 0 0 0 0 0 0 0 0 0 0 0 0 0 0 0 0 0 0 0 0 0 0
0.0867162 1.67052e-11 1.21706e-11 4.53461e-12 0.271448 0.224233 0 0 0 0 0 0 0 0 0 0 0 0 0 0 0 0 0 0 0 0 0 0 0 0 0 0 0 0 0 0 0 0 0 0 0 0 0 0 0 0 0 0
0.0911674 1.84642e-11 1.34521e-11 5.01208e-12 0.271448 0.247844 0 0 0 0 0 0 0 0 0 0 0 0 0 0 0 0 0 0 0 0 0 0 0 0 0 0 0 0 0 0 0 0 0 0 0 0 0 0 0 0 0 0
0.095847 2.04084e-11 1.48686e-11 5.53983e-12 0.271448 0.273941 0 0 0 0 0 0 0 0 0 0 0 0 0 0 0 0 0 0 0 0 0 0 0 0 0 0 0 0 0 0 0 0 0 0 0 0 0 0 0 0 0 0
0.100767 2.21839e-11 1.61669e-11 6.01708e-12 0.271236 0.294678 0 0 0 0 0 0 0 0 0 0 0 0 0 0 0 0 0 0 0 0 0 0 0 0 0 0 0 0 0 0 0 0 0 0 0 0 0 0 0 0 0 0
0.105939 2.19137e-11 1.59873e-11 5.92635e-12 0.270441 0.276508 0 0 0 0 0 0 0 0 0 0 0 0 0 0 0 0 0 0 0 0 0 0 0 0 0 0 0 0 0 0 0 0 0 0 0 0 0 0 0 0 0 0
0.111377 2.13651e-11 1.56027e-11 5.76246e-12 0.269713 0.258772 0 0 0 0 0 0 0 0 0 0 0 0 0 0 0 0 0 0 0 0 0 0 0 0 0 0 0 0 0 0 0 0 0 0 0 0 0 0 0 0 0 0
0.117094 2.0529e-11 1.49891e-11 5.53994e-12 0.269859 0.240789 0 0 0 0 0 0 0 0 0 0 0 0 0 0 0 0 0 0 0 0 0 0 0 0 0 0 0 0 0 0 0 0 0 0 0 0 0 0 0 0 0 0
0.123105 1.91857e-11 1.39828e-11 5.2029e-12 0.271186 0.223239 0 0 0 0 0 0 0 0 0 0 0 0 0 0 0 0 0 0 0 0 0 0 0 0 0 0 0 0 0 0 0 0 0 0 0 0 0 0 0 0 0 0
0.129424 1.73417e-11 1.26223e-11 4.71943e-12 0.272144 0.206687 0 0 0 0 0 0 0 0 0 0 0 0 0 0 0 0 0 0 0 0 0 0 0 0 0 0 0 0 0 0 0 0 0 0 0 0 0 0 0 0 0 0
0.136067 1.53223e-11 1.10509e-11 4.27136e-12 0.278768 0.191812 0 0 0 0 0 0 0 0 0 0 0 0 0 0 0 0 0 0 0 0 0 0 0 0 0 0 0 0 0 0 0 0 0 0 0 0 0 0 0 0 0 0
0.143051 1.26204e-11 8.90187e-12 3.71853e-12 0.294645 0.180629 0 0 0 0 0 0 0 0 0 0 0 0 0 0 0 0 0 0 0 0 0 0 0 0 0 0 0 0 0 0 0 0 0 0 0 0 0 0 0 0 0 0
0.150394 9.46577e-12 6.42479e-12 3.04098e-12 0.321261 0.171784 0 0 0 0 0 0 0 0 0 0 0 0 0 0 0 0 0 0 0 0 0 0 0 0 0 0 0 0 0 0 0 0 0 0 0 0 0 0 0 0 0 0
0.158114 6.54512e-12 4.20959e-12 2.33553e-12 0.356835 0.155212 0 0 0 0 0 0 0 0 0 0 0 0 0 0 0 0 0 0 0 0 0 0 0 0 0 0 0 0 0 0 0 0 0 0 0 0 0 0 0 0 0 0
0.16623 4.38082e-12 2.65799e-12 1.72283e-12 0.393267 0.135362 0 0 0 0 0 0 0 0 0 0 0 0 0 0 0 0 0 0 0 0 0 0 0 0 0 0 0 0 0 0 0 0 0 0 0 0 0 0 0 0 0 0
0.174762 3.08962e-12 1.82249e-12 1.26713e-12 0.410124 0.117565 0 0 0 0 0 0 0 0 0 0 0 0 0 0 0 0 0 0 0 0 0 0 0 0 0 0 0 0 0 0 0 0 0 0 0 0 0 0 0 0 0 0
0.183733 2.18631e-12 1.25287e-12 9.33443e-13 0.426948 0.102608 0 0 0 0 0 0 0 0 0 0 0 0 0 0 0 0 0 0 0 0 0 0 0 0 0 0 0 0 0 0 0 0 0 0 0 0 0 0 0 0 0 0
0.193164 1.61143e-12 9.17652e-13 6.93779e-13 0.430536 0.0902066 0 0 0 0 0 0 0 0 0 0 0 0 0 0 0 0 0 0 0 0 0 0 0 0 0 0 0 0 0 0 0 0 0 0 0 0 0 0 0 0 0 0
0.203079 1.34692e-12 8.24235e-13 5.22685e-13 0.388059 0.0797655 0 0 0 0 0 0 0 0 0 0 0 0 0 0 0 0 0 0 0 0 0 0 0 0 0 0 0 0 0 0 0 0 0 0 0 0 0 0 0 0 0 0
0.213503 1.173e-12 7.7164e-13 4.01359e-13 0.342165 0.0708162 0 0 0 0 0 0 0 0 0 0 0 0 0 0 0 0 0 0 0 0 0 0 0 0 0 0 0 0 0 0 0 0 0 0 0 0 0 0 0 0 0 0
0.224463 1.02997e-12 7.15759e-13 3.14206e-13 0.305065 0.0631315 0 0 0 0 0 0 0 0 0 0 0 0 0 0 0 0 0 0 0 0 0 0 0 0 0 0 0 0 0 0 0 0 0 0 0 0 0 0 0 0 0 0
0.235984 9.19885e-13 6.72167e-13 2.47718e-13 0.269293 0.0565138 0 0 0 0 0 0 0 0 0 0 0 0 0 0 0 0 0 0 0 0 0 0 0 0 0 0 0 0 0 0 0 0 0 0 0 0 0 0 0 0 0 0
0.248097 8.30794e-13 6.34361e-13 1.96433e-13 0.23644 0.0507444 0 0 0 0 0 0 0 0 0 0 0 0 0 0 0 0 0 0 0 0 0 0 0 0 0 0 0 0 0 0 0 0 0 0 0 0 0 0 0 0 0 0
0.260832 7.58936e-13 6.02114e-13 1.56822e-13 0.206634 0.045645 0 0 0 0 0 0 0 0 0 0 0 0 0 0 0 0 0 0 0 0 0 0 0 0 0 0 0 0 0 0 0 0 0 0 0 0 0 0 0 0 0 0
0.274221 6.97322e-13 5.7161e-13 1.25712e-13 0.180278 0.0411034 0 0 0 0 0 0 0 0 0 0 0 0 0 0 0 0 0 0 0 0 0 0 0 0 0 0 0 0 0 0 0 0 0 0 0 0 0 0 0 0 0 0
0.288297 6.43519e-13 5.4237e-13 1.01149e-13 0.157182 0.0370545 0 0 0 0 0 0 0 0 0 0 0 0 0 0 0 0 0 0 0 0 0 0 0 0 0 0 0 0 0 0 0 0 0 0 0 0 0 0 0 0 0 0
0.303095 5.96035e-13 5.14445e-13 8.15899e-14 0.136888 0.0334302 0 0 0 0 0 0 0 0 0 0 0 0 0 0 0 0 0 0 0 0 0 0 0 0 0 0 0 0 0 0 0 0 0 0 0 0 0 0 0 0 0 0
0.318653 5.53739e-13 4.8775e-13 6.59891e-14 0.11917 0.0301736 0 0 0 0 0 0 0 0 0 0 0 0 0 0 0 0 0 0 0 0 0 0 0 0 0 0 0 0 0 0 0 0 0 0 0 0 0 0 0 0 0 0
0.335009 5.1581e-13 4.62328e-13 5.34819e-14 0.103685 0.0272455 0 0 0 0 0 0 0 0 0 0 0 0 0 0 0 0 0 0 0 0 0 0 0 0 0 0 0 0 0 0 0 0 0 0 0 0 0 0 0 0 0 0
0.352205 4.81636e-13 4.38219e-13 4.34171e-14 0.090145 0.0246112 0 0 0 0 0 0 0 0 0 0 0 0 0 0 0 0 0 0 0 0 0 0 0 0 0 0 0 0 0 0 0 0 0 0 0 0 0 0 0 0 0 0
0.370284 4.50631e-13 4.15315e-13 3.53163e-14 0.0783708 0.0222384 0 0 0 0 0 0 0 0 0 0 0 0 0 0 0 0 0 0 0 0 0 0 0 0 0 0 0 0 0 0 0 0 0 0 0 0 0 0 0 0 0 0
0.389291 4.22373e-13 3.93622e-13 2.87509e-14 0.06807 0.0200997 0 0 0 0 0 0 0 0 0 0 0 0 0 0 0 0 0 0 0 0 0 0 0 0 0 0 0 0 0 0 0 0 0 0 0 0 0 0 0 0 0 0
0.409273 3.96501e-13 3.73061e-13 2.34401e-14 0.0591173 0.0181697 0 0 0 0 0 0 0 0 0 0 0 0 0 0 0 0 0 0 0 0 0 0 0 0 0 0 0 0 0 0 0 0 0 0 0 0 0 0 0 0 0 0
0.430281 3.72753e-13 3.53629e-13 1.9124e-14 0.0513049 0.0164263 0 0 0 0 0 0 0 0 0 0 0 0 0 0 0 0 0 0 0 0 0 0 0 0 0 0 0 0 0 0 0 0 0 0 0 0 0 0 0 0 0 0
0.452368 3.50855e-13 3.3524e-13 1.56148e-14 0.044505 0.014856 0 0 0 0 0 0 0 0 0 0 0 0 0 0 0 0 0 0 0 0 0 0 0 0 0 0 0 0 0 0 0 0 0 0 0 0 0 0 0 0 0 0
0.475588 3.30577e-13 3.1782e-13 1.27566e-14 0.038589 0.0134357 0 0 0 0 0 0 0 0 0 0 0 0 0 0 0 0 0 0 0 0 0 0 0 0 0 0 0 0 0 0 0 0 0 0 0 0 0 0 0 0 0 0
0.5 3.1179e-13 3.01361e-13 1.04287e-14 0.0334478 0.0121515 0 0 0 0 0 0 0 0 0 0 0 0 0 0 0 0 0 0 0 0 0 0 0 0 0 0 0 0 0 0 0 0 0 0 0 0 0 0 0 0 0 0
0.525665 2.94308e-13 2.85777e-13 8.53149e-15 0.0289883 0.0109905 0 0 0 0 0 0 0 0 0 0 0 0 0 0 0 0 0 0 0 0 0 0 0 0 0 0 0 0 0 0 0 0 0 0 0 0 0 0 0 0 0 0
0.552648 2.77983e-13 2.70999e-13 6.98361e-15 0.0251225 0.00994157 0 0 0 0 0 0 0 0 0 0 0 0 0 0 0 0 0 0 0 0 0 0 0 0 0 0 0 0 0 0 0 0 0 0 0 0 0 0 0 0 0 0
0.581015 2.62792e-13 2.57077e-13 5.71501e-15 0.0217473 0.00899489 0 0 0 0 0 0 0 0 0 0 0 0 0 0 0 0 0 0 0 0 0 0 0 0 0 0 0 0 0 0 0 0 0 0 0 0 0 0 0 0 0 0
0.610839 2.48595e-13 2.43917e-13 4.67775e-15 0.0188168 0.00813759 0 0 0 0 0 0 0 0 0 0 0 0 0 0 0 0 0 0 0 0 0 0 0 0 0 0 0 0 0 0 0 0 0 0 0 0 0 0 0 0 0 0
0.642193 2.35175e-13 2.31344e-13 3.83112e-15 0.0162905 0.00736129 0 0 0 0 0 0 0 0 0 0 0 0 0 0 0 0 0 0 0 0 0 0 0 0 0 0 0 0 0 0 0 0 0 0 0 0 0 0 0 0 0 0
0.675157 2.2265e-13 2.19512e-13 3.13769e-15 0.0140925 0.00666065 0 0 0 0 0 0 0 0 0 0 0 0 0 0 0 0 0 0 0 0 0 0 0 0 0 0 0 0 0 0 0 0 0 0 0 0 0 0 0 0 0 0
0.709813 2.10949e-13 2.0838e-13 2.56944e-15 0.0121804 0.00602678 0 0 0 0 0 0 0 0 0 0 0 0 0 0 0 0 0 0 0 0 0 0 0 0 0 0 0 0 0 0 0 0 0 0 0 0 0 0 0 0 0 0
0.746248 1.99978e-13 1.97873e-13 2.10454e-15 0.0105239 0.0054528 0 0 0 0 0 0 0 0 0 0 0 0 0 0 0 0 0 0 0 0 0 0 0 0 0 0 0 0 0 0 0 0 0 0 0 0 0 0 0 0 0 0
0.784553 1.89642e-13 1.87918e-13 1.72329e-15 0.00908709 0.00493303 0 0 0 0 0 0 0 0 0 0 0 0 0 0 0 0 0 0 0 0 0 0 0 0 0 0 0 0 0 0 0 0 0 0 0 0 0 0 0 0 0 0
0.824824 1.7992e-13 1.78509e-13 1.41121e-15 0.00784353 0.00446382 0 0 0 0 0 0 0 0 0 0 0 0 0 0 0 0 0 0 0 0 0 0 0 0 0 0 0 0 0 0 0 0 0 0 0 0 0 0 0 0 0 0
0.867162 1.70719e-13 1.69563e-13 1.15563e-15 0.00676918 0.00403938 0 0 0 0 0 0 0 0 0 0 0 0 0 0 0 0 0 0 0 0 0 0 0 0 0 0 0 0 0 0 0 0 0 0 0 0 0 0 0 0 0 0
0.911674 1.62154e-13 1.61209e-13 9.45849e-16 0.00583302 0.00365505 0 0 0 0 0 0 0 0 0 0 0 0 0 0 0 0 0 0 0 0 0 0 0 0 0 0 0 0 0 0 0 0 0 0 0 0 0 0 0 0 0 0
0.95847 1.54146e-13 1.53373e-13 7.73563e-16 0.00501837 0.00330714 0 0 0 0 0 0 0 0 0 0 0 0 0 0 0 0 0 0 0 0 0 0 0 0 0 0 0 0 0 0 0 0 0 0 0 0 0 0 0 0 0 0
1.00767 1.46594e-13 1.45963e-13 6.31093e-16 0.00430503 0.00299259 0 0 0 0 0 0 0 0 0 0 0 0 0 0 0 0 0 0 0 0 0 0 0 0 0 0 0 0 0 0 0 0 0 0 0 0 0 0 0 0 0 0
1.05939 1.42561e-13 1.42046e-13 5.14973e-16 0.0036123 0.00270805 0 0 0 0 0 0 0 0 0 0 0 0 0 0 0 0 0 0 0 0 0 0 0 0 0 0 0 0 0 0 0 0 0 0 0 0 0 0 0 0 0 0
1.11377 1.39192e-13 1.38772e-13 4.20846e-16 0.00302348 0.00245036 0 0 0 0 0 0 0 0 0 0 0 0 0 0 0 0 0 0 0 0 0 0 0 0 0 0 0 0 0 0 0 0 0 0 0 0 0 0 0 0 0 0
1.17094 1.36441e-13 1.36096e-13 3.44626e-16 0.00252582 0.00221699 0 0 0 0 0 0 0 0 0 0 0 0 0 0 0 0 0 0 0 0 0 0 0 0 0 0 0 0 0 0 0 0 0 0 0 0 0 0 0 0 0 0
1.23105 1.34005e-13 1.33723e-13 2.82118e-16 0.00210527 0.00200586 0 0 0 0 0 0 0 0 0 0 0 0 0 0 0 0 0 0 0 0 0 0 0 0 0 0 0 0 0 0 0 0 0 0 0 0 0 0 0 0 0 0
1.29424 1.31391e-13 1.3116e-13 2.31069e-16 0.00175864 0.00181489 0 0 0 0 0 0 0 0 0 0 0 0 0 0 0 0 0 0 0 0 0 0 0 0 0 0 0 0 0 0 0 0 0 0 0 0 0 0 0 0 0 0
1.36067 1.28479e-13 1.28289e-13 1.90078e-16 0.00147944 0.00164221 0 0 0 0 0 0 0 0 0 0 0 0 0 0 0 0 0 0 0 0 0 0 0 0 0 0 0 0 0 0 0 0 0 0 0 0 0 0 0 0 0 0
1.43051 1.25395e-13 1.2524e-13 1.54642e-16 0.00123324 0.00148563 0 0 0 0 0 0 0 0 0 0 0 0 0 0 0 0 0 0 0 0 0 0 0 0 0 0 0 0 0 0 0 0 0 0 0 0 0 0 0 0 0 0
1.50394 1.22224e-13 1.22097e-13 1.264e-16 0.00103417 0.00134403 0 0 0 0 0 0 0 0 0 0 0 0 0 0 0 0 0 0 0 0 0 0 0 0 0 0 0 0 0 0 0 0 0 0 0 0 0 0 0 0 0 0
1.58114 1.19166e-13 1.19063e-13 1.03421e-16 0.000867876 0.00121608 0 0 0 0 0 0 0 0 0 0 0 0 0 0 0 0 0 0 0 0 0 0 0 0 0 0 0 0 0 0 0 0 0 0 0 0 0 0 0 0 0 0
1.6623 1.16382e-13 1.16297e-13 8.46196e-17 0.000727087 0.0011001 0 0 0 0 0 0 0 0 0 0 0 0 0 0 0 0 0 0 0 0 0 0 0 0 0 0 0 0 0 0 0 0 0 0 0 0 0 0 0 0 0 0
1.74763 1.14024e-13 1.13954e-13 6.92254e-17 0.000607115 0.0009951 0 0 0 0 0 0 0 0 0 0 0 0 0 0 0 0 0 0 0 0 0 0 0 0 0 0 0 0 0 0 0 0 0 0 0 0 0 0 0 0 0 0
1.83733 1.12252e-13 1.12195e-13 5.66094e-17 0.000504307 0.000900001 0 0 0 0 0 0 0 0 0 0 0 0 0 0 0 0 0 0 0 0 0 0 0 0 0 0 0 0 0 0 0 0 0 0 0 0 0 0 0 0 0 0
1.93164 1.11153e-13 1.11106e-13 4.62743e-17 0.000416312 0.00081409 0 0 0 0 0 0 0 0 0 0 0 0 0 0 0 0 0 0 0 0 0 0 0 0 0 0 0 0 0 0 0 0 0 0 0 0 0 0 0 0 0 0
2.03079 1.10713e-13 1.10675e-13 3.78486e-17 0.000341864 0.000736358 0 0 0 0 0 0 0 0 0 0 0 0 0 0 0 0 0 0 0 0 0 0 0 0 0 0 0 0 0 0 0 0 0 0 0 0 0 0 0 0 0 0
2.13503 1.10775e-13 1.10744e-13 3.09855e-17 0.000279716 0.00066592 0 0 0 0 0 0 0 0 0 0 0 0 0 0 0 0 0 0 0 0 0 0 0 0 0 0 0 0 0 0 0 0 0 0 0 0 0 0 0 0 0 0
2.24463 1.10977e-13 1.10952e-13 2.53906e-17 0.000228791 0.000602119 0 0 0 0 0 0 0 0 0 0 0 0 0 0 0 0 0 0 0 0 0 0 0 0 0 0 0 0 0 0 0 0 0 0 0 0 0 0 0 0 0 0
2.35984 1.11208e-13 1.11187e-13 2.08181e-17 0.0001872 0.000544484 0 0 0 0 0 0 0 0 0 0 0 0 0 0 0 0 0 0 0 0 0 0 0 0 0 0 0 0 0 0 0 0 0 0 0 0 0 0 0 0 0 0
2.48097 1.11622e-13 1.11605e-13 1.70747e-17 0.000152969 0.00049226 0 0 0 0 0 0 0 0 0 0 0 0 0 0 0 0 0 0 0 0 0 0 0 0 0 0 0 0 0 0 0 0 0 0 0 0 0 0 0 0 0 0
2.60832 1.12218e-13 1.12204e-13 1.40134e-17 0.000124877 0.00044499 0 0 0 0 0 0 0 0 0 0 0 0 0 0 0 0 0 0 0 0 0 0 0 0 0 0 0 0 0 0 0 0 0 0 0 0 0 0 0 0 0 0
2.74221 1.13164e-13 1.13152e-13 1.15101e-17 0.000101712 0.000402218 0 0 0 0 0 0 0 0 0 0 0 0 0 0 0 0 0 0 0 0 0 0 0 0 0 0 0 0 0 0 0 0 0 0 0 0 0 0 0 0 0 0
2.88297 1.14464e-13 1.14454e-13 9.46923e-18 8.27268e-05 0.000363484 0 0 0 0 0 0 0 0 0 0 0 0 0 0 0 0 0 0 0 0 0 0 0 0 0 0 0 0 0 0 0 0 0 0 0 0 0 0 0 0 0 0
3.03095 1.16099e-13 1.16091e-13 7.8205e-18 6.73606e-05 0.000328457 0 0 0 0 0 0 0 0 0 0 0 0 0 0 0 0 0 0 0 0 0 0 0 0 0 0 0 0 0 0 0 0 0 0 0 0 0 0 0 0 0 0
3.18653 1.16644e-13 1.16638e-13 6.47417e-18 5.55035e-05 0.000296746 0 0 0 0 0 0 0 0 0 0 0 0 0 0 0 0 0 0 0 0 0 0 0 0 0 0 0 0 0 0 0 0 0 0 0 0 0 0 0 0 0 0
3.35009 1.19589e-13 1.19584e-13 5.29334e-18 4.42627e-05 0.000268021 0 0 0 0 0 0 0 0 0 0 0 0 0 0 0 0 0 0 0 0 0 0 0 0 0 0 0 0 0 0 0 0 0 0 0 0 0 0 0 0 0 0
3.52205 1.19154e-13 1.19149e-13 4.60578e-18 3.8654e-05 0.000242019 0 0 0 0 0 0 0 0 0 0 0 0 0 0 0 0 0 0 0 0 0 0 0 0 0 0 0 0 0 0 0 0 0 0 0 0 0 0 0 0 0 0
3.70284 1.11216e-13 1.11212e-13 3.74683e-18 3.36898e-05 0.000218503 0 0 0 0 0 0 0 0 0 0 0 0 0 0 0 0 0 0 0 0 0 0 0 0 0 0 0 0 0 0 0 0 0 0 0 0 0 0 0 0 0 0
3.89291 1.08954e-13 1.08951e-13 3.07016e-18 2.81786e-05 0.000197191 0 0 0 0 0 0 0 0 0 0 0 0 0 0 0 0 0 0 0 0 0 0 0 0 0 0 0 0 0 0 0 0 0 0 0 0 0 0 0 0 0 0
4.09273 1.07164e-13 1.07161e-13 2.51748e-18 2.3492e-05 0.000177863 0 0 0 0 0 0 0 0 0 0 0 0 0 0 0 0 0 0 0 0 0 0 0 0 0 0 0 0 0 0 0 0 0 0 0 0 0 0 0 0 0 0
4.30281 1.05875e-13 1.05873e-13 2.06525e-18 1.95064e-05 0.000160349 0 0 0 0 0 0 0 0 0 0 0 0 0 0 0 0 0 0 0 0 0 0 0 0 0 0 0 0 0 0 0 0 0 0 0 0 0 0 0 0 0 0
4.52368 1.05118e-13 1.05116e-13 1.69595e-18 1.61338e-05 0.0001445 0 0 0 0 0 0 0 0 0 0 0 0 0 0 0 0 0 0 0 0 0 0 0 0 0 0 0 0 0 0 0 0 0 0 0 0 0 0 0 0 0 0
4.75588 1.04756e-13 1.04755e-13 1.39504e-18 1.3317e-05 0.000130121 0 0 0 0 0 0 0 0 0 0 0 0 0 0 0 0 0 0 0 0 0 0 0 0 0 0 0 0 0 0 0 0 0 0 0 0 0 0 0 0 0 0
5 1.0449e-13 1.04489e-13 1.1498e-18 1.10039e-05 0.000117047 0 0 0 0 0 0 0 0 0 0 0 0 0 0 0 0 0 0 0 0 0 0 0 0 0 0 0 0 0 0 0 0 0 0 0 0 0 0 0 0 0 0
5.25665 1.04079e-13 1.04078e-13 9.48776e-19 9.1159e-06 0.000105166 0 0 0 0 0 0 0 0 0 0 0 0 0 0 0 0 0 0 0 0 0 0 0 0 0 0 0 0 0 0 0 0 0 0 0 0 0 0 0 0 0 0
5.52648 1.03519e-13 1.03518e-13 7.82843e-19 7.56232e-06 9.44119e-05 0 0 0 0 0 0 0 0 0 0 0 0 0 0 0 0 0 0 0 0 0 0 0 0 0 0 0 0 0 0 0 0 0 0 0 0 0 0 0 0 1.4013e-45 0
5.81015 1.02754e-13 1.02753e-13 6.45204e-19 6.27911e-06 8.46096e-05 0 0 0 0 0 0 0 0 0 0 0 0 0 0 0 0 0 0 0 0 0 0 0 0 0 0 0 0 0 0 1.4013e-45 0 2.8026e-45 0 8.40779e-45 0 2.24208e-44 0 5.46506e-44 0 1.20512e-43 0
6.10839 1.01892e-13 1.01892e-13 5.30668e-19 5.20813e-06 7.57004e-05 0 0 0 0 0 0 0 0 0 0 0 0 0 0 0 0 0 0 0 0 0 0 1.4013e-45 0 2.8026e-45 0 1.26117e-44 0 3.92364e-44 0 1.17709e-43 0 3.237e-43 0 8.15556e-43 0 1.98284e-42 0 4.46173e-42 0 9.51482e-42 0
6.42193 1.00903e-13 1.00903e-13 4.34874e-19 4.3098e-06 6.7572e-05 0 0 0 0 0 0 0 0 0 0 0 0 0 0 0 0 0 0 2.8026e-45 0 1.68156e-44 0 7.84727e-44 0 3.09687e-43 0 1.06078e-42 0 3.22999e-42 0 9.18972e-42 0 2.40309e-41 0 5.80166e-41 0 1.35019e-40 0 2.92004e-40 0 6.00057e-40 0
6.75157 1.00194e-13 1.00194e-13 3.53581e-19 3.52897e-06 6.0081e-05 0 0 0 0 0 0 0 3.08286e-44 0 0 0 0 0 0 5.60519e-45 0 4.62428e-44 0 2.87266e-43 0 1.46296e-42 0 6.16992e-42 0 2.28804e-41 0 7.37223e-41 0 2.12609e-40 0 5.74793e-40 0 1.43408e-39 0 3.31649e-39 0 7.40645e-39 0 1.54257e-38 0 3.06039e-38 0
7.09813 9.85765e-14 9.85762e-14 2.87306e-19 2.91455e-06 5.30271e-05 0 0 0 0 0 3.64338e-44 0 1.49939e-42 0 0 2.8026e-45 0 4.2039e-44 0 4.70836e-43 0 3.65599e-42 0 2.08471e-41 0 9.78975e-41 0 3.85036e-40 0 1.33927e-39 0 4.07551e-39 0 1.11611e-38 0 2.87441e-38 0 6.85842e-38 0 1.52248e-37 0 3.26924e-37 0 6.56939e-37 0 1.26046e-36 0
7.46248 9.72664e-14 9.72661e-14 2.27701e-19 2.341e-06 4.61609e-05 0 0 0 4.2039e-45 0 1.72079e-42 0 6.28721e-41 5.60519e-45 0 2.07392e-43 0 3.36172e-42 0 3.29389e-41 0 2.31703e-40 0 1.21343e-39 0 5.28379e-39 0 1.94374e-38 0 6.36171e-38 0 1.83354e-37 0 4.78029e-37 0 1.17554e-36 0 2.68826e-36 0 5.73972e-36 0 1.18736e-35 0 2.30601e-35 0 4.28597e-35 0
7.84553 9.59048e-14 9.59046e-14 1.72347e-19 1.79706e-06 3.96113e-05 0 1.4013e-45 0 2.21405e-43 0 6.80723e-41 5.60519e-45 2.22829e-39 5.12875e-43 0 1.48958e-41 0 2.11034e-40 0 1.84961e-39 0 1.18288e-38 0 5.71363e-38 0 2.31552e-37 0 7.99323e-37 0 2.46897e-36 0 6.75751e-36 0 1.68125e-35 0 3.95671e-35 0 8.69023e-35 0 1.788e-34 0 3.5698e-34 0 6.71196e-34 0 1.2103e-33 0
8.24824 1.06901e-13 1.06901e-13 1.26807e-19 1.18621e-06 3.40474e-05 0 5.32493e-44 0 9.97725e-42 1.4013e-45 2.58515e-39 5.32493e-43 7.60345e-38 3.93835e-41 0 9.7037e-40 0 1.20781e-38 0 9.52136e-38 0 5.56177e-37 0 2.48766e-36 0 9.41577e-36 0 3.05956e-35 0 8.94414e-35 0 2.33056e-34 0 5.54599e-34 0 1.25179e-33 0 2.64574e-33 0 5.25514e-33 0 1.01438e-32 0 1.84935e-32 0 3.24012e-32 0
8.67162 1.29838e-13 1.29838e-13 1.09948e-19 8.46809e-07 2.96311e-05 0 2.5938e-42 0 4.15788e-40 9.52883e-44 9.14433e-38 4.41507e-41 2.42309e-36 2.64742e-39 0 5.57834e-38 0 6.13906e-37 0 4.37543e-36 0 2.34483e-35 0 9.74822e-35 0 3.45753e-34 0 1.06067e-33 0 2.94249e-33 0 7.31693e-33 0 1.66903e-32 0 3.6204e-32 0 7.37737e-32 0 1.41706e-31 0 2.64886e-31 0 4.68967e-31 0 7.99457e-31 0
9.11674 1.78214e-13 1.78214e-13 1.30788e-19 7.33883e-07 2.52802e-05 0 1.20827e-40 0 1.67736e-38 9.67316e-42 3.14426e-36 3.32634e-39 7.52607e-35 1.63321e-37 0 2.96549e-36 0 2.90294e-35 0 1.87981e-34 0 9.28127e-34 0 3.59923e-33 0 1.20006e-32 0 3.48538e-32 0 9.19918e-32 0 2.188e-31 0 4.794e-31 0 1.00132e-30 0 1.97071e-30 0 3.66663e-30 0 6.64775e-30 0 1.14458e-29 0 1.90103e-29 0
9.5847 2.17243e-13 2.17243e-13 1.81404e-19 8.35029e-07 2.26236e-05 0 4.2917e-39 1.96182e-44 5.17953e-37 6.99273e-40 8.30876e-35 1.80809e-37 1.80105e-33 7.34059e-36 0 1.15695e-34 0 1.01317e-33 0 5.98893e-33 0 2.73516e-32 0 9.92765e-32 0 3.1211e-31 0 8.60489e-31 0 2.16603e-30 0 4.93846e-30 0 1.04138e-29 0 2.09829e-29 0 3.99539e-29 0 7.21172e-29 0 1.27008e-28 0 2.12951e-28 0 3.45036e-28 0
10.0767 2.10285e-13 2.10284e-13 1.99578e-19 9.49084e-07 2.14823e-05 0 1.04564e-37 1.53863e-42 1.10103e-35 3.24876e-38 1.51737e-33 6.40471e-36 2.98611e-32 2.17008e-34 0 2.98943e-33 0 2.35476e-32 0 1.27626e-31 0 5.41209e-31 0 1.84457e-30 0 5.48361e-30 0 1.4388e-29 0 3.46215e-29 0 7.58223e-29 0 1.54168e-28 0 3.0019e-28 0 5.53904e-28 0 9.71386e-28 0 1.66411e-27 0 2.72066e-27 0 4.30552e-27 0
10.5939 1.79041e-13 1.79041e-13 1.77161e-19 9.89498e-07 2.11262e-05 1.4013e-45 1.9469e-36 8.36379e-41 1.79482e-34 1.08563e-36 2.13313e-32 1.65357e-34 3.82045e-31 4.71737e-33 0 5.71736e-32 0 4.07184e-31 0 2.0321e-30 0 8.03043e-30 0 2.57791e-29 0 7.26672e-29 0 1.81894e-28 0 4.19319e-28 0 8.8384e-28 0 1.7359e-27 0 3.27186e-27 0 5.85928e-27 0 9.99749e-27 0 1.66827e-26 0 2.66278e-26 0 4.12053e-26 0
11.1377 1.49577e-13 1.49577e-13 1.4889e-19 9.95402e-07 2.16361e-05 1.41531e-43 3.10736e-35 3.59613e-39 2.51653e-33 2.9396e-35 2.58885e-31 3.50316e-33 4.2298e-30 8.48564e-32 0 9.10499e-31 0 5.8918e-30 0 2.71841e-29 0 1.00455e-28 0 3.04628e-28 0 8.1633e-28 0 1.95385e-27 0 4.32421e-27 0 8.78871e-27 0 1.67018e-26 0 3.05207e-26 0 5.31237e-26 0 8.83092e-26 0 1.43722e-25 0 2.24222e-25 0 3.39655e-25 0
