# 0.00044668 0 164 : grain size, compostion index, size index
# Heating and cooling timescale: 1.47357e-05 9.04179e+11
# Ratio of heating to cooling to determine stochastic cutoff: 100
# Equilibrium emission is recorded even for those grains in the stochastic regime.
# Emission spectrum was computed for: 
# Type: IRSF
# Scales: 0.25 0.5 1 1.5 2 2.5 3 3.5 4 4.5 5 5.5 6 6.5 7 7.5 8 8.5 9 9.5 10
# StochasticallyHeated: 0 0 0 0 0 0 0 0 0 0 0 0 0 0 0 0 0 0 0 0 0
# Temperature: -1
# Wavelength  CExt  CAbs  CSca  Albedo G EqEm1 StEm1 EqEm2 StEm2 EqEm3 StEm3 EqEm4 StEm4 EqEm5 StEm5 EqEm6 StEm6 EqEm7 StEm7 EqEm8 StEm8 EqEm9 StEm9 EqEm10 StEm10 EqEm11 StEm11 EqEm12 StEm12 EqEm13 StEm13 EqEm14 StEm14 EqEm15 StEm15 EqEm16 StEm16 EqEm17 StEm17 EqEm18 StEm18 EqEm19 StEm19 EqEm20 StEm20 EqEm21 StEm21
0.05 3.21422e-07 1.16762e-07 2.0466e-07 0.636732 0.00576547 0 0 0 0 0 0 0 0 0 0 0 0 0 0 0 0 0 0 0 0 0 0 0 0 0 0 0 0 0 0 0 0 0 0 0 0 0 0 0 0 0 0
0.0525665 3.55267e-07 1.29057e-07 2.2621e-07 0.636732 0.00637255 0 0 0 0 0 0 0 0 0 0 0 0 0 0 0 0 0 0 0 0 0 0 0 0 0 0 0 0 0 0 0 0 0 0 0 0 0 0 0 0 0 0
0.0552647 3.92674e-07 1.42646e-07 2.50028e-07 0.636732 0.00704355 0 0 0 0 0 0 0 0 0 0 0 0 0 0 0 0 0 0 0 0 0 0 0 0 0 0 0 0 0 0 0 0 0 0 0 0 0 0 0 0 0 0
0.0581015 4.34021e-07 1.57666e-07 2.76355e-07 0.636732 0.0077852 0 0 0 0 0 0 0 0 0 0 0 0 0 0 0 0 0 0 0 0 0 0 0 0 0 0 0 0 0 0 0 0 0 0 0 0 0 0 0 0 0 0
0.0610839 4.79721e-07 1.74267e-07 3.05454e-07 0.636732 0.00860494 0 0 0 0 0 0 0 0 0 0 0 0 0 0 0 0 0 0 0 0 0 0 0 0 0 0 0 0 0 0 0 0 0 0 0 0 0 0 0 0 0 0
0.0642193 5.30234e-07 1.92617e-07 3.37617e-07 0.636732 0.009511 0 0 0 0 0 0 0 0 0 0 0 0 0 0 0 0 0 0 0 0 0 0 0 0 0 0 0 0 0 0 0 0 0 0 0 0 0 0 0 0 0 0
0.0675157 5.86065e-07 2.12899e-07 3.73166e-07 0.636732 0.0105125 0 0 0 0 0 0 0 0 0 0 0 0 0 0 0 0 0 0 0 0 0 0 0 0 0 0 0 0 0 0 0 0 0 0 0 0 0 0 0 0 0 0
0.0709813 6.47774e-07 2.35316e-07 4.12459e-07 0.636732 0.0116194 0 0 0 0 0 0 0 0 0 0 0 0 0 0 0 0 0 0 0 0 0 0 0 0 0 0 0 0 0 0 0 0 0 0 0 0 0 0 0 0 0 0
0.0746248 7.15982e-07 2.60093e-07 4.55889e-07 0.636732 0.0128428 0 0 0 0 0 0 0 0 0 0 0 0 0 0 0 0 0 0 0 0 0 0 0 0 0 0 0 0 0 0 0 0 0 0 0 0 0 0 0 0 0 0
0.0784553 7.91371e-07 2.8748e-07 5.03891e-07 0.636732 0.0141951 0 0 0 0 0 0 0 0 0 0 0 0 0 0 0 0 0 0 0 0 0 0 0 0 0 0 0 0 0 0 0 0 0 0 0 0 0 0 0 0 0 0
0.0824824 8.74699e-07 3.1775e-07 5.56949e-07 0.636732 0.0156898 0 0 0 0 0 0 0 0 0 0 0 0 0 0 0 0 0 0 0 0 0 0 0 0 0 0 0 0 0 0 0 0 0 0 0 0 0 0 0 0 0 0
0.0867162 9.66801e-07 3.51208e-07 6.15593e-07 0.636732 0.0173419 0 0 0 0 0 0 0 0 0 0 0 0 0 0 0 0 0 0 0 0 0 0 0 0 0 0 0 0 0 0 0 0 0 0 0 0 0 0 0 0 0 0
0.0911674 1.0686e-06 3.88188e-07 6.80412e-07 0.636732 0.0191679 0 0 0 0 0 0 0 0 0 0 0 0 0 0 0 0 0 0 0 0 0 0 0 0 0 0 0 0 0 0 0 0 0 0 0 0 0 0 0 0 0 0
0.095847 1.18112e-06 4.29063e-07 7.52056e-07 0.636732 0.0211862 0 0 0 0 0 0 0 0 0 0 0 0 0 0 0 0 0 0 0 0 0 0 0 0 0 0 0 0 0 0 0 0 0 0 0 0 0 0 0 0 0 0
0.100767 1.28568e-06 4.70788e-07 8.14896e-07 0.633823 0.0235692 0 0 0 0 0 0 0 0 0 0 0 0 0 0 0 0 0 0 0 0 0 0 0 0 0 0 0 0 0 0 0 0 0 0 0 0 0 0 0 0 0 0
0.105939 1.2859e-06 4.91759e-07 7.94137e-07 0.617575 0.0256046 0 0 0 0 0 0 0 0 0 0 0 0 0 0 0 0 0 0 0 0 0 0 0 0 0 0 0 0 0 0 0 0 0 0 0 0 0 0 0 0 0 0
0.111377 1.28669e-06 4.96269e-07 7.90416e-07 0.614304 0.0289403 0 0 0 0 0 0 0 0 0 0 0 0 0 0 0 0 0 0 0 0 0 0 0 0 0 0 0 0 0 0 0 0 0 0 0 0 0 0 0 0 0 0
0.117094 1.28681e-06 5.13827e-07 7.72979e-07 0.600696 0.0274507 0 0 0 0 0 0 0 0 0 0 0 0 0 0 0 0 0 0 0 0 0 0 0 0 0 0 0 0 0 0 0 0 0 0 0 0 0 0 0 0 0 0
0.123105 1.28726e-06 5.3393e-07 7.5333e-07 0.58522 0.0236555 0 0 0 0 0 0 0 0 0 0 0 0 0 0 0 0 0 0 0 0 0 0 0 0 0 0 0 0 0 0 0 0 0 0 0 0 0 0 0 0 0 0
0.129424 1.28805e-06 5.49012e-07 7.3904e-07 0.573766 0.0199126 0 0 0 0 0 0 0 0 0 0 0 0 0 0 0 0 0 0 0 0 0 0 0 0 0 0 0 0 0 0 0 0 0 0 0 0 0 0 0 0 0 0
0.136067 1.28892e-06 5.60771e-07 7.28146e-07 0.564929 0.0168557 0 0 0 0 0 0 0 0 0 0 0 0 0 0 0 0 0 0 0 0 0 0 0 0 0 0 0 0 0 0 0 0 0 0 0 0 0 0 0 0 0 0
0.143051 1.28975e-06 5.70489e-07 7.19264e-07 0.557676 0.0143876 0 0 0 0 0 0 0 0 0 0 0 0 0 0 0 0 0 0 0 0 0 0 0 0 0 0 0 0 0 0 0 0 0 0 0 0 0 0 0 0 0 0
0.150394 1.2904e-06 5.78386e-07 7.12014e-07 0.551778 0.0122986 0 0 0 0 0 0 0 0 0 0 0 0 0 0 0 0 0 0 0 0 0 0 0 0 0 0 0 0 0 0 0 0 0 0 0 0 0 0 0 0 0 0
0.158114 1.29071e-06 5.83497e-07 7.0721e-07 0.547924 0.01055 0 0 0 0 0 0 0 0 0 0 0 0 0 0 0 0 0 0 0 0 0 0 0 0 0 0 0 0 0 0 0 0 0 0 0 0 0 0 0 0 0 0
0.16623 1.29067e-06 5.83281e-07 7.07392e-07 0.54808 0.00908216 0 0 0 0 0 0 0 0 0 0 0 0 0 0 0 0 0 0 0 0 0 0 0 0 0 0 0 0 0 0 0 0 0 0 0 0 0 0 0 0 0 0
0.174762 1.29083e-06 5.75133e-07 7.15695e-07 0.554446 0.00782097 0 0 0 0 0 0 0 0 0 0 0 0 0 0 0 0 0 0 0 0 0 0 0 0 0 0 0 0 0 0 0 0 0 0 0 0 0 0 0 0 0 0
0.183733 1.29194e-06 5.56119e-07 7.35823e-07 0.569548 0.00667218 0 0 0 0 0 0 0 0 0 0 0 0 0 0 0 0 0 0 0 0 0 0 0 0 0 0 0 0 0 0 0 0 0 0 0 0 0 0 0 0 0 0
0.193164 1.29473e-06 5.23034e-07 7.71694e-07 0.596028 0.00556038 0 0 0 0 0 0 0 0 0 0 0 0 0 0 0 0 0 0 0 0 0 0 0 0 0 0 0 0 0 0 0 0 0 0 0 0 0 0 0 0 0 0
0.203079 1.29896e-06 4.81634e-07 8.1733e-07 0.629217 0.00446034 0 0 0 0 0 0 0 0 0 0 0 0 0 0 0 0 0 0 0 0 0 0 0 0 0 0 0 0 0 0 0 0 0 0 0 0 0 0 0 0 0 0
0.213503 1.3041e-06 4.43401e-07 8.60695e-07 0.659994 0.00342932 0 0 0 0 0 0 0 0 0 0 0 0 0 0 0 0 0 0 0 0 0 0 0 0 0 0 0 0 0 0 0 0 0 0 0 0 0 0 0 0 0 0
0.224463 1.30973e-06 4.16307e-07 8.93421e-07 0.682142 0.00254317 0 0 0 0 0 0 0 0 0 0 0 0 0 0 0 0 0 0 0 0 0 0 0 0 0 0 0 0 0 0 0 0 0 0 0 0 0 0 0 0 0 0
0.235984 1.31548e-06 4.01999e-07 9.13476e-07 0.694408 0.00182186 0 0 0 0 0 0 0 0 0 0 0 0 0 0 0 0 0 0 0 0 0 0 0 0 0 0 0 0 0 0 0 0 0 0 0 0 0 0 0 0 0 0
0.248097 1.32074e-06 3.98678e-07 9.22064e-07 0.698141 0.00138916 0 0 0 0 0 0 0 0 0 0 0 0 0 0 0 0 0 0 0 0 0 0 0 0 0 0 0 0 0 0 0 0 0 0 0 0 0 0 0 0 0 0
0.260832 1.32425e-06 4.05135e-07 9.19111e-07 0.694064 0.00141961 0 0 0 0 0 0 0 0 0 0 0 0 0 0 0 0 0 0 0 0 0 0 0 0 0 0 0 0 0 0 0 0 0 0 0 0 0 0 0 0 0 0
0.274221 1.32469e-06 4.20161e-07 9.04533e-07 0.682824 0.00187131 0 0 0 0 0 0 0 0 0 0 0 0 0 0 0 0 0 0 0 0 0 0 0 0 0 0 0 0 0 0 0 0 0 0 0 0 0 0 0 0 0 0
0.288297 1.32323e-06 4.40476e-07 8.82749e-07 0.667119 0.00251556 0 0 0 0 0 0 0 0 0 0 0 0 0 0 0 0 0 0 0 0 0 0 0 0 0 0 0 0 0 0 0 0 0 0 0 0 0 0 0 0 0 0
0.303095 1.32215e-06 4.60672e-07 8.61473e-07 0.651572 0.0028362 0 0 0 0 0 0 0 0 0 0 0 0 0 0 0 0 0 0 0 0 0 0 0 0 0 0 0 0 0 0 0 0 0 0 0 0 0 0 0 0 0 0
0.318653 1.32234e-06 4.77242e-07 8.45101e-07 0.639093 0.00297223 0 0 0 0 0 0 0 0 0 0 0 0 0 0 0 0 0 0 0 0 0 0 0 0 0 0 0 0 0 0 0 0 0 0 0 0 0 0 0 0 0 0
0.335009 1.32355e-06 4.89357e-07 8.34192e-07 0.630269 0.00293231 0 0 0 0 0 0 0 0 0 0 0 0 0 0 0 0 0 0 0 0 0 0 0 0 0 0 0 0 0 0 0 0 0 0 0 0 0 0 0 0 0 0
0.352205 1.32538e-06 4.9752e-07 8.2786e-07 0.624621 0.00278811 0 0 0 0 0 0 0 0 0 0 0 0 0 0 0 0 0 0 0 0 0 0 0 0 0 0 0 0 0 0 0 0 0 0 0 0 0 0 0 0 0 0
0.370284 1.32763e-06 5.02555e-07 8.25077e-07 0.621465 0.00261033 0 0 0 0 0 0 0 0 0 0 0 0 0 0 0 0 0 0 0 0 0 0 0 0 0 0 0 0 0 0 0 0 0 0 0 0 0 0 0 0 0 0
0.389291 1.33013e-06 5.05327e-07 8.24805e-07 0.620092 0.00243645 0 0 0 0 0 0 0 0 0 0 0 0 0 0 0 0 0 0 0 0 0 0 0 0 0 0 0 0 0 0 0 0 0 0 0 0 0 0 0 0 0 0
0.409273 1.3328e-06 5.06743e-07 8.26055e-07 0.61979 0.00226652 0 0 0 0 0 0 0 0 0 0 0 0 0 0 0 0 0 0 0 0 0 0 0 0 0 0 0 0 0 0 0 0 0 0 0 0 0 0 0 0 0 0
0.430281 1.33551e-06 5.07521e-07 8.27986e-07 0.619979 0.00210471 0 0 0 0 0 0 0 0 0 0 0 0 0 0 0 0 0 0 0 0 0 0 0 0 0 0 0 0 0 0 0 0 0 0 0 0 0 0 0 0 0 0
0.452368 1.33827e-06 5.08155e-07 8.30112e-07 0.620289 0.00193723 0 0 0 0 0 0 0 0 0 0 0 0 0 0 0 0 0 0 0 0 0 0 0 0 0 0 0 0 0 0 0 0 0 0 0 0 0 0 0 0 0 0
0.475588 1.34107e-06 5.0892e-07 8.32147e-07 0.620511 0.00177642 0 0 0 0 0 0 0 0 0 0 0 0 0 0 0 0 0 0 0 0 0 0 0 0 0 0 0 0 0 0 0 0 0 0 0 0 0 0 0 0 0 0
0.5 1.34392e-06 5.09881e-07 8.34034e-07 0.6206 0.00162159 0 0 0 0 0 0 0 0 0 0 0 0 0 0 0 0 0 0 0 0 0 0 0 0 0 0 0 0 0 0 0 0 0 0 0 0 0 0 0 0 0 0
0.525665 1.34684e-06 5.11016e-07 8.35824e-07 0.620582 0.0014751 0 0 0 0 0 0 0 0 0 0 0 0 0 0 0 0 0 0 0 0 0 0 0 0 0 0 0 0 0 0 0 0 0 0 0 0 0 0 0 0 0 0
0.552648 1.34988e-06 5.12225e-07 8.37652e-07 0.620539 0.00134175 0 0 0 0 0 0 0 0 0 0 0 0 0 0 0 0 0 0 0 0 0 0 0 0 0 0 0 0 0 0 0 0 0 0 0 0 0 0 0 0 0 0
0.581015 1.35304e-06 5.13421e-07 8.39618e-07 0.620543 0.00121775 0 0 0 0 0 0 0 0 0 0 0 0 0 0 0 0 0 0 0 0 0 0 0 0 0 0 0 0 0 0 0 0 0 0 0 0 0 0 0 0 0 0
0.610839 1.35634e-06 5.1452e-07 8.4182e-07 0.620655 0.00110516 0 0 0 0 0 0 0 0 0 0 0 0 0 0 0 0 0 0 0 0 0 0 0 0 0 0 0 0 0 0 0 0 0 0 0 0 0 0 0 0 0 0
0.642193 1.35982e-06 5.15453e-07 8.44369e-07 0.620941 0.00100302 0 0 0 0 0 0 0 0 0 0 0 0 0 0 0 0 0 0 0 0 0 0 0 0 0 0 0 0 0 0 0 0 0 0 0 0 0 0 0 0 0 0
0.675157 1.36348e-06 5.16172e-07 8.47307e-07 0.62143 0.000910957 0 0 0 0 0 0 0 0 0 0 0 0 0 0 0 0 0 0 0 0 0 0 0 0 0 0 0 0 0 0 0 0 0 0 0 0 0 0 0 0 0 0
0.709813 1.36726e-06 5.16649e-07 8.50607e-07 0.622127 0.00082817 0 0 0 0 0 0 0 0 0 0 0 0 0 0 0 0 0 0 0 0 0 0 0 0 0 0 0 0 0 0 0 0 0 0 0 0 0 0 0 0 0 0
0.746248 1.37125e-06 5.16884e-07 8.54369e-07 0.623057 0.000754183 0 0 0 0 0 0 0 0 0 0 0 0 0 0 0 0 0 0 0 0 0 0 0 0 0 0 0 0 0 0 0 0 0 0 0 0 0 0 0 0 0 0
0.784553 1.37537e-06 5.16885e-07 8.58488e-07 0.624186 0.000686995 0 0 0 0 0 0 0 0 0 0 0 0 0 0 0 0 0 0 0 0 0 0 0 0 0 0 0 0 0 0 0 0 0 0 0 0 0 0 0 0 0 0
0.824824 1.37963e-06 5.16669e-07 8.62959e-07 0.625501 0.000626788 0 0 0 0 0 0 0 0 0 0 0 0 0 0 0 0 0 0 0 0 0 0 0 0 0 0 0 0 0 0 0 0 0 0 0 0 0 0 0 0 0 0
0.867162 1.38399e-06 5.16256e-07 8.67734e-07 0.62698 0.000572518 0 0 0 0 0 0 0 0 0 0 0 0 0 0 0 0 0 0 0 0 0 0 0 0 0 0 0 0 0 0 0 0 0 0 0 0 0 0 0 0 0 0
0.911674 1.3885e-06 5.15678e-07 8.72819e-07 0.628607 0.000523427 0 0 0 0 0 0 0 0 0 0 0 0 0 0 0 0 0 0 0 0 0 0 0 0 0 0 0 0 0 0 0 0 0 0 0 0 0 0 0 0 0 0
0.95847 1.39309e-06 5.14963e-07 8.78127e-07 0.630345 0.00047944 0 0 0 0 0 0 0 0 0 0 0 0 0 0 0 0 0 0 0 0 0 0 0 0 0 0 0 0 0 0 0 0 0 0 0 0 0 0 0 0 0 0
1.00767 1.39773e-06 5.1414e-07 8.83587e-07 0.63216 0.0004395 0 0 0 0 0 0 0 0 0 0 0 0 0 0 0 0 0 0 0 0 0 0 0 0 0 0 0 0 0 0 0 0 0 0 0 0 0 0 0 0 0 0
1.05939 1.4024e-06 5.13229e-07 8.89166e-07 0.634034 0.000403275 0 0 0 0 0 0 0 0 0 0 0 0 0 0 0 0 0 0 0 0 0 0 0 0 0 0 0 0 0 0 0 0 0 0 0 0 0 0 0 0 0 0
1.11377 1.40716e-06 5.12266e-07 8.94896e-07 0.635958 0.000370298 0 0 0 0 0 0 0 0 0 0 0 0 0 0 0 0 0 0 0 0 0 0 0 0 0 0 0 0 0 0 0 0 0 0 0 0 0 0 0 0 0 0
1.17094 1.41186e-06 5.11258e-07 9.00606e-07 0.637885 0.000339515 0 0 0 0 0 0 0 0 0 0 0 0 0 0 0 0 0 0 0 0 0 0 0 0 0 0 0 0 0 0 0 0 0 0 0 0 0 0 0 0 0 0
1.23105 1.41656e-06 5.10226e-07 9.06338e-07 0.639814 0.000311294 0 0 0 0 0 0 0 0 0 0 0 0 0 0 0 0 0 0 0 0 0 0 0 0 0 0 0 0 0 0 0 0 0 0 0 0 0 0 0 0 0 0
1.29424 1.42126e-06 5.09196e-07 9.12063e-07 0.641729 0.000285362 0 0 0 0 0 0 0 0 0 0 0 0 0 0 0 0 0 0 0 0 0 0 0 0 0 0 0 0 0 0 0 0 0 0 0 0 0 0 0 0 0 0
1.36067 1.4259e-06 5.08175e-07 9.17725e-07 0.643611 0.000261742 0 0 0 0 0 0 0 0 0 0 0 0 0 0 0 0 0 0 0 0 0 0 0 0 0 0 0 0 0 0 0 0 0 0 0 0 0 0 0 0 0 0
1.43051 1.43052e-06 5.07179e-07 9.23338e-07 0.645458 0.000240209 0 0 0 0 0 0 0 0 0 0 0 0 0 0 0 0 0 0 0 0 0 0 0 0 0 0 0 0 0 0 0 0 0 0 0 0 0 0 0 0 0 0
1.50394 1.43505e-06 5.06216e-07 9.28829e-07 0.647247 0.000220279 0 0 0 0 0 0 0 0 0 0 0 0 0 0 0 0 0 0 0 0 0 0 0 0 0 0 0 0 0 0 0 0 0 0 0 0 0 0 0 0 0 0
1.58114 1.43953e-06 5.05299e-07 9.34235e-07 0.648984 0.000201732 0 0 0 0 0 0 0 0 0 0 0 0 0 0 0 0 0 0 0 0 0 0 0 0 0 0 0 0 0 0 0 0 0 0 0 0 0 0 0 0 0 0
1.6623 1.44397e-06 5.04443e-07 9.39526e-07 0.650655 0.000184534 0 0 0 0 0 0 0 0 0 0 0 0 0 0 0 0 0 0 0 0 0 0 0 0 0 0 0 0 0 0 0 0 0 0 0 0 0 0 0 0 0 0
1.74763 1.44831e-06 5.03663e-07 9.44645e-07 0.652241 0.000169005 0 0 0 0 0 0 0 0 0 0 0 0 0 0 0 0 0 0 0 0 0 0 0 0 0 0 0 0 0 0 0 0 0 0 0 0 0 0 0 0 0 0
1.83733 1.45261e-06 5.02958e-07 9.49649e-07 0.653755 0.000154804 0 0 0 0 0 0 0 0 0 0 0 0 0 0 0 0 0 0 0 0 0 0 0 0 0 0 0 0 0 0 0 0 0 0 0 0 0 0 0 0 0 0
1.93164 1.45688e-06 5.02354e-07 9.54522e-07 0.655184 0.000141793 0 0 0 0 0 0 0 0 0 0 0 0 0 0 0 0 0 0 0 0 0 0 0 0 0 0 0 0 0 0 0 0 0 0 0 0 0 0 0 0 0 0
2.03079 1.46109e-06 5.01854e-07 9.59239e-07 0.656522 0.000129725 0 0 0 0 0 0 0 0 0 0 0 0 0 0 0 0 0 0 0 0 0 0 0 0 0 0 0 0 0 0 0 0 0 0 0 0 0 0 0 0 0 0
2.13503 1.46529e-06 5.01477e-07 9.63812e-07 0.657763 0.000118657 0 0 0 0 0 0 0 0 0 0 0 0 0 0 0 0 0 0 0 0 0 0 0 0 0 0 0 0 0 0 0 0 0 0 0 0 0 0 0 0 0 0
2.24463 1.46946e-06 5.01222e-07 9.68234e-07 0.658906 0.000108569 0 0 0 0 0 0 0 0 0 0 0 0 0 0 0 0 0 0 0 0 0 0 0 0 0 0 0 0 0 0 0 0 0 0 0 0 0 0 0 0 0 0
2.35984 1.47363e-06 5.01132e-07 9.72499e-07 0.659934 9.92926e-05 0 0 0 0 0 0 0 0 0 0 0 0 0 0 0 0 0 0 0 0 0 0 0 0 0 0 0 0 0 0 0 0 0 0 0 0 0 0 0 0 0 0
2.48097 1.47782e-06 5.01185e-07 9.76633e-07 0.660861 9.07218e-05 0 0 0 0 0 0 0 0 0 0 0 0 0 0 0 0 0 0 0 0 0 0 0 0 0 0 0 0 0 0 0 0 0 0 0 0 0 0 0 0 0 0
2.60832 1.48201e-06 5.01407e-07 9.80599e-07 0.66167 8.27967e-05 0 0 0 0 0 0 0 0 0 0 0 0 0 0 0 0 0 0 0 0 0 0 0 0 0 0 0 0 0 0 0 0 0 0 0 0 0 0 0 0 0 0
2.74221 1.48629e-06 5.01829e-07 9.84465e-07 0.662362 7.55862e-05 0 0 0 0 0 0 0 0 0 0 0 0 0 0 0 0 0 0 0 0 0 0 0 0 0 0 0 0 0 0 0 0 0 0 0 0 0 0 0 0 0 0
2.88297 1.49057e-06 5.02411e-07 9.88155e-07 0.66294 6.90729e-05 0 0 0 0 0 0 0 0 0 0 0 0 0 0 0 0 0 0 0 0 0 0 0 0 0 0 0 0 0 0 0 0 0 0 0 0 0 0 0 0 0 0
3.03095 1.49499e-06 5.03243e-07 9.91744e-07 0.66338 6.31538e-05 0 0 0 0 0 0 0 0 0 0 0 0 0 0 0 0 0 0 0 0 0 0 0 0 0 0 0 0 0 0 0 0 0 0 0 0 0 0 0 0 0 0
3.18653 1.49942e-06 5.04237e-07 9.95181e-07 0.663712 5.76567e-05 0 0 0 0 0 0 0 0 0 0 0 0 0 0 0 0 0 0 0 0 0 0 0 0 0 0 0 0 0 0 0 0 0 0 0 0 0 0 0 0 0 0
3.35009 1.50406e-06 5.05517e-07 9.98546e-07 0.663899 5.2603e-05 0 0 0 0 0 0 0 0 0 0 0 0 0 0 0 0 0 0 0 0 0 0 0 0 0 0 0 0 0 0 0 0 0 0 0 0 0 0 0 0 0 0
3.52205 1.50876e-06 5.06952e-07 1.0018e-06 0.663993 4.80102e-05 0 0 0 0 0 0 0 0 0 0 0 0 0 0 0 0 0 0 0 0 0 0 0 0 0 0 0 0 0 0 0 0 0 0 0 0 0 0 0 0 0 0
3.70284 1.51369e-06 5.08725e-07 1.00496e-06 0.663917 4.38066e-05 0 0 0 0 0 0 0 0 0 0 0 0 0 0 0 0 0 0 0 0 0 0 0 0 0 0 0 0 0 0 0 0 0 0 0 0 0 0 0 0 0 0
3.89291 1.51862e-06 5.1068e-07 1.00794e-06 0.663722 3.9926e-05 0 0 0 0 0 0 0 0 0 0 0 0 0 0 0 0 0 0 0 0 0 0 0 0 0 0 0 0 0 0 0 0 0 0 0 0 0 0 0 0 0 0
4.09273 1.52379e-06 5.12875e-07 1.01092e-06 0.663422 3.62643e-05 0 0 0 0 0 0 0 0 0 0 0 0 0 0 0 0 0 0 0 0 0 0 0 0 0 0 0 0 0 0 0 0 0 0 0 0 0 0 0 0 0 0
4.30281 1.52928e-06 5.15483e-07 1.01379e-06 0.662923 3.29535e-05 0 0 0 0 0 0 0 0 0 0 0 0 0 0 0 0 0 0 0 0 0 0 0 0 0 0 0 0 0 0 0 0 0 0 0 0 0 0 0 0 0 0
4.52368 1.53461e-06 5.18139e-07 1.01647e-06 0.662364 2.99416e-05 0 0 0 0 0 0 0 0 0 0 0 0 0 0 0 0 0 0 0 0 0 0 0 0 0 0 0 0 0 0 0 0 0 0 0 0 0 0 0 0 0 0
4.75588 1.5405e-06 5.21161e-07 1.01934e-06 0.661694 2.71796e-05 0 0 0 0 0 0 0 0 0 0 0 0 0 0 0 0 0 0 0 0 0 0 0 0 0 0 0 0 0 0 0 0 0 0 0 0 0 0 0 0 0 0
5 1.5467e-06 5.24685e-07 1.02202e-06 0.660772 2.45398e-05 0 0 0 0 0 0 0 0 0 0 0 0 0 0 0 0 0 0 0 0 0 0 0 0 0 0 0 0 0 0 0 0 0 0 0 0 0 0 0 0 0 0
5.25665 1.55254e-06 5.28129e-07 1.02441e-06 0.659828 2.21678e-05 0 0 0 0 0 0 0 0 0 0 0 0 0 0 0 0 0 0 0 0 0 0 0 0 0 0 0 0 0 0 0 0 0 0 0 0 0 0 0 0 0 0
5.52648 1.55896e-06 5.31812e-07 1.02715e-06 0.658868 2.00489e-05 0 0 0 0 0 0 0 0 0 0 0 0 0 0 0 0 0 0 0 0 0 0 0 0 0 0 0 0 0 0 0 0 0 0 0 0 0 0 0 0 0 0
5.81015 1.56619e-06 5.3625e-07 1.02994e-06 0.657609 1.8115e-05 0 0 0 0 0 0 0 0 0 0 0 0 0 0 0 0 0 0 0 0 0 0 0 0 0 0 0 0 0 0 0 0 0 0 0 0 0 0 0 0 0 0
6.10839 1.57287e-06 5.40547e-07 1.03232e-06 0.65633 1.63023e-05 0 0 0 0 0 0 0 0 0 0 0 0 0 0 0 0 0 0 0 0 0 0 0 0 0 0 0 0 0 0 0 0 0 0 0 0 0 0 0 0 0 0
6.42193 1.57946e-06 5.4664e-07 1.03282e-06 0.653907 1.48144e-05 0 0 0 0 0 0 0 0 0 0 0 0 0 0 0 0 0 0 0 0 0 0 0 0 0 0 0 0 0 0 0 0 0 0 0 0 0 0 0 0 0 0
6.75157 1.58699e-06 5.50588e-07 1.0364e-06 0.653062 1.32279e-05 0 0 0 0 0 0 0 0 0 0 0 0 0 0 0 0 0 0 0 0 0 0 0 0 0 0 0 0 0 0 0 0 0 0 0 0 0 0 0 0 0 0
7.09813 1.59587e-06 5.56424e-07 1.03945e-06 0.651335 1.18448e-05 0 0 0 0 0 0 0 0 0 0 0 0 0 0 0 0 0 0 0 0 0 0 0 0 0 0 0 0 0 0 0 0 0 0 0 0 0 0 0 0 0 0
7.46248 1.60409e-06 5.62775e-07 1.04132e-06 0.649163 1.05694e-05 0 0 0 0 0 0 0 0 0 0 0 0 0 0 0 0 0 0 0 0 0 0 0 0 0 0 0 0 0 0 0 0 0 0 0 0 0 0 0 0 0 0
7.84553 1.61083e-06 5.68455e-07 1.04237e-06 0.647103 9.34187e-06 0 0 0 0 0 0 0 0 0 0 0 0 0 0 0 0 0 0 0 0 0 0 0 0 0 0 0 0 0 0 0 0 0 0 0 0 0 0 0 0 0 0
8.24824 1.61779e-06 5.73666e-07 1.04412e-06 0.645401 8.19911e-06 0 0 0 0 0 0 0 0 0 0 0 0 0 0 0 0 0 0 0 0 0 0 0 0 0 0 0 0 0 0 0 0 0 0 0 0 0 0 0 0 0 0
8.67162 1.62708e-06 5.79777e-07 1.0473e-06 0.643669 7.20916e-06 0 0 0 0 0 0 0 0 0 0 0 0 0 0 0 0 0 0 0 0 0 0 0 0 0 0 0 0 0 0 0 0 0 0 0 0 0 0 0 0 0 0
9.11674 1.63866e-06 5.87685e-07 1.05097e-06 0.641362 6.32492e-06 0 0 0 0 0 0 0 0 0 0 0 0 0 0 0 0 0 0 0 0 0 0 0 0 0 0 0 0 0 0 0 0 0 0 0 0 0 0 0 0 0 0
9.5847 1.64981e-06 5.96624e-07 1.05319e-06 0.638368 5.52644e-06 0 0 0 0 0 0 0 0 0 0 0 0 0 0 0 0 0 0 0 0 0 0 0 0 0 0 0 0 0 0 0 0 0 0 0 0 0 0 0 0 0 0
10.0767 1.658e-06 6.05019e-07 1.05298e-06 0.635092 4.78203e-06 0 0 0 0 0 0 0 0 0 0 0 0 0 0 0 0 0 0 0 0 0 0 0 0 0 0 0 0 0 0 0 0 0 0 0 0 0 0 0 0 0 0
10.5939 1.66359e-06 6.12137e-07 1.05146e-06 0.632039 4.06995e-06 0 0 0 0 0 0 0 0 0 0 0 0 0 0 0 0 0 0 0 0 0 0 0 0 0 0 0 0 0 0 0 0 0 0 1.4013e-45 0 5.60519e-45 0 1.4013e-44 0 3.36312e-44 0
11.1377 1.66949e-06 6.19549e-07 1.04994e-06 0.628898 3.40803e-06 0 0 0 0 0 0 0 0 0 0 0 0 0 0 0 0 0 0 0 0 0 0 0 0 0 0 2.8026e-45 0 9.80909e-45 0 3.50325e-44 0 1.12104e-43 0 3.22299e-43 0 8.66002e-43 0 2.23507e-42 0 5.27869e-42 0
11.7094 1.67321e-06 6.1443e-07 1.05878e-06 0.632785 2.82232e-06 0 0 0 0 0 0 0 0 0 0 0 0 0 0 0 0 0 0 0 0 4.2039e-45 0 2.38221e-44 0 1.14906e-43 0 4.73639e-43 0 1.70398e-42 0 5.38799e-42 0 1.62228e-41 0 4.44394e-41 0 1.13919e-40 0 2.80501e-40 0 6.35281e-40 0
12.3105 1.6903e-06 6.29865e-07 1.06043e-06 0.627364 2.20615e-06 0 0 0 0 0 0 0 0 0 0 0 0 0 0 1.4013e-45 0 1.54143e-44 0 1.20512e-43 0 7.77721e-43 0 3.91383e-42 0 1.69417e-41 0 6.5372e-41 0 2.21138e-40 0 6.61262e-40 0 1.88662e-39 0 4.91981e-39 0 1.20453e-38 0 2.83824e-38 0 6.17658e-38 0
12.9424 1.70924e-06 6.4169e-07 1.06755e-06 0.624576 1.60871e-06 0 0 0 0 0 0 0 0 0 0 0 0 1.54143e-44 0 2.42425e-43 0 2.44246e-42 0 1.75569e-41 0 1.03148e-40 0 4.79551e-40 0 1.93251e-39 0 6.98089e-39 0 2.22507e-38 0 6.30708e-38 0 1.70966e-37 0 4.25451e-37 0 9.97086e-37 0 2.25315e-36 0 4.72065e-36 0
13.6067 1.72669e-06 6.54535e-07 1.07216e-06 0.620931 1.1081e-06 0 0 0 0 0 0 0 0 1.4013e-45 0 1.06499e-43 0 2.47329e-42 0 3.37251e-41 0 3.03199e-40 0 1.97905e-39 0 1.06642e-38 0 4.59957e-38 0 1.73162e-37 0 5.87499e-37 0 1.76954e-36 0 4.76709e-36 0 1.23081e-35 0 2.92953e-35 0 6.586e-35 0 1.43019e-34 0 2.89016e-34 0
14.3051 1.73722e-06 6.66727e-07 1.07049e-06 0.61621 6.74396e-07 0 0 0 0 0 0 1.4013e-45 0 3.47522e-43 0 1.51705e-41 0 3.03013e-40 0 3.63616e-39 0 2.93666e-38 0 1.74906e-37 0 8.68083e-37 0 3.48625e-36 0 1.23022e-35 0 3.93219e-35 0 1.1223e-34 0 2.88063e-34 0 7.10086e-34 0 1.62006e-33 0 3.50089e-33 0 7.31994e-33 0 1.42928e-32 0
15.0394 1.73937e-06 6.77099e-07 1.06227e-06 0.610721 2.84373e-07 0 0 0 0 0 0 3.53127e-43 0 4.62541e-41 0 1.67649e-39 0 2.89314e-38 0 3.07512e-37 0 2.24274e-36 0 1.22432e-35 0 5.61929e-35 0 2.10862e-34 0 6.99657e-34 0 2.11299e-33 0 5.72972e-33 0 1.40451e-32 0 3.31298e-32 0 7.26023e-32 0 1.51098e-31 0 3.04752e-31 0 5.7593e-31 0
15.8114 1.73559e-06 6.8535e-07 1.05024e-06 0.60512 -8.11128e-08 0 0 0 0 4.62428e-44 0 4.62106e-41 0 4.76969e-39 0 1.45083e-37 0 2.17867e-36 0 2.06332e-35 0 1.36569e-34 0 6.86242e-34 0 2.92384e-33 0 1.02856e-32 0 3.21874e-32 0 9.21005e-32 0 2.37873e-31 0 5.58117e-31 0 1.26248e-30 0 2.66268e-30 0 5.34668e-30 0 1.04207e-29 0 1.90908e-29 0
16.623 1.72943e-06 6.91258e-07 1.03817e-06 0.600297 -4.4917e-07 0 0 0 0 6.62394e-42 0 4.69377e-39 0 3.86324e-37 0 9.94637e-36 0 1.30856e-34 0 1.11045e-33 0 6.7021e-33 0 3.11246e-32 0 1.23551e-31 0 4.08745e-31 0 1.20981e-30 0 3.28853e-30 0 8.10898e-30 0 1.825e-29 0 3.96691e-29 0 8.06722e-29 0 1.5657e-28 0 2.95373e-28 0 5.25364e-28 0
17.4762 1.72402e-06 6.94837e-07 1.02919e-06 0.596968 -8.02956e-07 0 0 5.60519e-45 0 7.28528e-40 0 3.74725e-37 0 2.4867e-35 0 5.46336e-34 0 6.33796e-33 0 4.84519e-32 0 2.67858e-31 0 1.15409e-30 0 4.28301e-30 0 1.33655e-29 0 3.75181e-29 0 9.7123e-29 0 2.29165e-28 0 4.95729e-28 0 1.03746e-27 0 2.03794e-27 0 3.82926e-27 0 7.00357e-27 0 1.21115e-26 0
