# 2.86846e-06 2 42 : grain size, compostion index, size index
# This grain was stochastically heated: No
# Heating and cooling timescale: 28.0642 15908.4
# Ratio of heating to cooling to determine stochastic cutoff: 100
# Equilibrium emission is recorded even for those grains in the stochastic regime.
# Emission spectrum was computed for: 
# Type: IRSF
# Scale: 1
# Temperature: -1
# Wavelength  CExt  CAbs  CSca  Albedo G EqEmission StEmission
0.05 4.91971e-11 2.19596e-11 2.72375e-11 0.55364 0.765536 0 0
0.0525665 5.11005e-11 2.3202e-11 2.78985e-11 0.545954 0.745861 0 0
0.0552647 5.31292e-11 2.46109e-11 2.85182e-11 0.536772 0.72852 0 0
0.0581015 5.48342e-11 2.60073e-11 2.8827e-11 0.525711 0.714414 0 0
0.0610839 5.65466e-11 2.7085e-11 2.94616e-11 0.521014 0.698493 0 0
0.0642193 5.97128e-11 2.83215e-11 3.13913e-11 0.525705 0.676877 0 0
0.0675157 6.47913e-11 3.06841e-11 3.41072e-11 0.526417 0.656866 0 0
0.0709813 6.98868e-11 3.39362e-11 3.59506e-11 0.514412 0.646339 0 0
0.0746248 7.33626e-11 3.65961e-11 3.67665e-11 0.501161 0.638283 0 0
0.0784553 7.49567e-11 3.81552e-11 3.68015e-11 0.49097 0.627246 0 0
0.0824824 7.50865e-11 3.87915e-11 3.62949e-11 0.483375 0.611927 0 0
0.0867162 7.60971e-11 3.94753e-11 3.66218e-11 0.481251 0.594829 0 0
0.0911674 7.82269e-11 4.03586e-11 3.78683e-11 0.484083 0.577848 0 0
0.095847 8.00614e-11 4.1023e-11 3.90384e-11 0.487606 0.561924 0 0
0.100767 8.02723e-11 4.16313e-11 3.8641e-11 0.481374 0.550806 0 0
0.105939 8.13609e-11 4.17111e-11 3.96498e-11 0.487332 0.53529 0 0
0.111377 8.00931e-11 3.96019e-11 4.04912e-11 0.505551 0.508592 0 0
0.117094 7.78231e-11 3.85261e-11 3.92969e-11 0.504952 0.510101 0 0
0.123105 7.23509e-11 3.47523e-11 3.75986e-11 0.51967 0.501415 0 0
0.129424 6.24121e-11 2.90059e-11 3.34062e-11 0.535252 0.472984 0 0
0.136067 5.17267e-11 2.55561e-11 2.61706e-11 0.50594 0.437021 0 0
0.143051 4.11405e-11 2.23699e-11 1.87706e-11 0.456255 0.392215 0 0
0.150394 3.33598e-11 2.04738e-11 1.2886e-11 0.386274 0.337295 0 0
0.158114 2.9971e-11 2.06368e-11 9.33419e-12 0.311441 0.286283 0 0
0.16623 3.00581e-11 2.2206e-11 7.85212e-12 0.261231 0.246692 0 0
0.174762 3.26821e-11 2.46729e-11 8.00919e-12 0.245063 0.215667 0 0
0.183733 3.70573e-11 2.78776e-11 9.17969e-12 0.247716 0.188891 0 0
0.193164 4.42824e-11 3.26575e-11 1.16249e-11 0.262517 0.164213 0 0
0.203079 5.48752e-11 3.91731e-11 1.57022e-11 0.286143 0.138239 0 0
0.213503 6.7255e-11 4.57671e-11 2.14879e-11 0.319499 0.108824 0 0
0.224463 7.69931e-11 4.99183e-11 2.70748e-11 0.351652 0.0817199 0 0
0.235984 7.71894e-11 4.91768e-11 2.80125e-11 0.362907 0.0628108 0 0
0.248097 6.68079e-11 4.35755e-11 2.32324e-11 0.34775 0.050205 0 0
0.260832 5.55287e-11 3.79978e-11 1.75309e-11 0.315709 0.0432016 0 0
0.274221 4.6482e-11 3.33895e-11 1.30925e-11 0.281668 0.0412393 0 0
0.288297 3.96088e-11 2.98106e-11 9.79816e-12 0.247373 0.0464968 0 0
0.303095 3.40419e-11 2.65031e-11 7.5388e-12 0.221457 0.0512714 0 0
0.318653 2.91576e-11 2.33215e-11 5.83607e-12 0.200156 0.0550948 0 0
0.335009 2.50753e-11 2.0522e-11 4.55333e-12 0.181586 0.0564532 0 0
0.352205 2.17976e-11 1.82055e-11 3.59205e-12 0.164791 0.0553363 0 0
0.370284 1.91209e-11 1.62621e-11 2.8588e-12 0.149512 0.052975 0 0
0.389291 1.68298e-11 1.45354e-11 2.29438e-12 0.136329 0.0502938 0 0
0.409273 1.48055e-11 1.2958e-11 1.84751e-12 0.124785 0.0474606 0 0
0.430281 1.3e-11 1.15105e-11 1.48953e-12 0.114579 0.0446206 0 0
0.452368 1.14769e-11 1.02759e-11 1.20092e-12 0.104639 0.0414442 0 0
0.475588 1.01607e-11 9.19147e-12 9.69277e-13 0.0953942 0.0382837 0 0
0.5 9.07209e-12 8.28729e-12 7.84805e-13 0.0865076 0.0351474 0 0
0.525665 8.15704e-12 7.52059e-12 6.36449e-13 0.0780246 0.0321155 0 0
0.552647 7.34163e-12 6.82502e-12 5.16602e-13 0.0703662 0.0293267 0 0
0.581015 6.67781e-12 6.25613e-12 4.21679e-13 0.0631463 0.0266825 0 0
0.610839 6.0767e-12 5.73224e-12 3.4446e-13 0.0566854 0.0242769 0 0
0.642193 5.5294e-12 5.24795e-12 2.81453e-13 0.0509011 0.0220856 0 0
0.675157 5.04228e-12 4.81194e-12 2.30341e-13 0.0456819 0.0200934 0 0
0.709813 4.60808e-12 4.41916e-12 1.88917e-13 0.040997 0.0182979 0 0
0.746248 4.21368e-12 4.05866e-12 1.55024e-13 0.0367906 0.0166903 0 0
0.784553 3.85106e-12 3.72385e-12 1.27212e-13 0.0330329 0.0152264 0 0
0.824824 3.52081e-12 3.41641e-12 1.04396e-13 0.0296511 0.0139111 0 0
0.867162 3.21947e-12 3.13374e-12 8.57295e-14 0.0266285 0.0127257 0 0
0.911674 2.94269e-12 2.87231e-12 7.03809e-14 0.0239172 0.0116515 4.63384e-303 0
0.95847 2.69066e-12 2.63291e-12 5.77447e-14 0.0214612 0.0106892 2.9039e-288 0
1.00767 2.45955e-12 2.41216e-12 4.73922e-14 0.0192686 0.00981336 3.38974e-274 0
1.05939 2.25148e-12 2.21259e-12 3.88872e-14 0.0172718 0.00901886 8.01513e-261 0
1.11377 2.05942e-12 2.02752e-12 3.19051e-14 0.0154923 0.00829357 4.14102e-248 0
1.17094 1.88988e-12 1.86371e-12 2.61699e-14 0.0138474 0.00761514 5.05577e-236 0
1.23105 1.73557e-12 1.71409e-12 2.14796e-14 0.0123761 0.00699244 1.56143e-224 0
1.29424 1.59445e-12 1.57681e-12 1.76385e-14 0.0110624 0.00641752 1.30399e-213 0
1.36067 1.46531e-12 1.45083e-12 1.44779e-14 0.00988043 0.00589312 3.13894e-203 0
1.43051 1.34723e-12 1.33535e-12 1.18798e-14 0.00881792 0.00541482 2.31475e-193 0
1.50394 1.24076e-12 1.23101e-12 9.75269e-15 0.00786024 0.00497186 5.54723e-184 0
1.58114 1.14433e-12 1.13633e-12 8.00755e-15 0.00699758 0.00455764 4.56273e-175 0
1.6623 1.05599e-12 1.04941e-12 6.57606e-15 0.0062274 0.00417226 1.35614e-166 0
1.74762 9.73654e-13 9.68252e-13 5.40163e-15 0.00554779 0.00382459 1.52867e-158 0
1.83733 8.98148e-13 8.93711e-13 4.43686e-15 0.00494001 0.00350648 6.85989e-151 0
1.93164 8.28659e-13 8.25016e-13 3.64331e-15 0.00439663 0.003214 1.2817e-143 0
2.03079 7.65307e-13 7.62316e-13 2.99122e-15 0.00390853 0.00294213 1.04145e-136 0
2.13503 7.0675e-13 7.04292e-13 2.45794e-15 0.00347781 0.00269304 3.82929e-130 0
2.24463 6.52429e-13 6.5041e-13 2.01894e-15 0.0030945 0.00246584 6.61974e-124 0
2.35984 6.0283e-13 6.01172e-13 1.65782e-15 0.00275006 0.00225622 5.58976e-118 0
2.48097 5.57271e-13 5.5591e-13 1.36112e-15 0.00244247 0.00206239 2.3868e-112 0
2.60832 5.15016e-13 5.13898e-13 1.11852e-15 0.00217181 0.00188322 5.32388e-107 0
2.74221 4.75463e-13 4.74544e-13 9.18881e-16 0.0019326 0.00172002 6.39839e-102 0
2.88297 4.39005e-13 4.3825e-13 7.54323e-16 0.00171826 0.00157235 4.27505e-97 0
3.03095 4.05028e-13 4.04409e-13 6.19366e-16 0.00152919 0.00143815 1.63266e-92 0
3.18653 3.73834e-13 3.73326e-13 5.08659e-16 0.00136065 0.00131351 3.66688e-88 0
3.35009 3.45052e-13 3.44634e-13 4.17614e-16 0.00121029 0.00119883 4.96885e-84 0
3.52205 3.184e-13 3.18057e-13 3.42711e-16 0.00107635 0.00109444 4.16241e-80 0
3.70284 2.9384e-13 2.93558e-13 2.81373e-16 0.000957573 0.000998955 2.20761e-76 0
3.89291 2.71357e-13 2.71126e-13 2.30933e-16 0.000851032 0.000910772 7.58466e-73 0
4.09273 2.50663e-13 2.50473e-13 1.89513e-16 0.000756049 0.000827438 1.72357e-69 0
4.30281 2.31363e-13 2.31208e-13 1.55494e-16 0.000672077 0.000752066 2.64062e-66 0
4.52368 2.13499e-13 2.13372e-13 1.27622e-16 0.000597765 0.000683459 2.782e-63 0
4.75588 1.97004e-13 1.96899e-13 1.04708e-16 0.000531501 0.000620534 2.05302e-60 0
5 1.82037e-13 1.81952e-13 8.58835e-17 0.00047179 0.000560285 1.08142e-57 0
5.25665 1.67788e-13 1.67717e-13 7.04606e-17 0.000419939 0.000506232 4.11775e-55 0
5.52648 1.54483e-13 1.54425e-13 5.78043e-17 0.00037418 0.000457874 1.15287e-52 0
5.81015 1.42291e-13 1.42243e-13 4.73916e-17 0.000333062 0.000413721 2.41305e-50 0
6.10839 1.31184e-13 1.31146e-13 3.88446e-17 0.000296106 0.000372315 3.83158e-48 0
6.42193 1.20644e-13 1.20612e-13 3.18392e-17 0.00026391 0.00033845 4.66282e-46 0
6.75157 1.11353e-13 1.11327e-13 2.6101e-17 0.000234398 0.000302183 4.43168e-44 0
7.09813 1.02675e-13 1.02654e-13 2.13851e-17 0.000208279 0.00027057 3.31515e-42 0
7.46248 9.47713e-14 9.47538e-14 1.75161e-17 0.000184825 0.000241454 1.97854e-40 0
7.84553 8.76449e-14 8.76306e-14 1.43524e-17 0.000163757 0.000213407 9.53528e-39 0
8.24824 8.09607e-14 8.09489e-14 1.17564e-17 0.000145211 0.000187253 3.73822e-37 0
8.67162 7.47746e-14 7.4765e-14 9.62346e-18 0.0001287 0.000164596 1.20549e-35 0
9.11674 6.91955e-14 6.91876e-14 7.87752e-18 0.000113845 0.000144363 3.23481e-34 0
9.5847 6.42367e-14 6.42302e-14 6.44575e-18 0.000100344 0.000126141 7.29836e-33 0
10.0767 5.98628e-14 5.98576e-14 5.2719e-18 8.80664e-05 0.000109117 1.39731e-31 0
10.5939 5.60047e-14 5.60004e-14 4.30864e-18 7.69335e-05 9.27955e-05 2.28913e-30 0
11.1377 5.27793e-14 5.27758e-14 3.5187e-18 6.66681e-05 7.7664e-05 3.24494e-29 0
11.7094 4.93864e-14 4.93835e-14 2.90038e-18 5.87284e-05 6.42612e-05 3.9523e-28 0
12.3105 4.70592e-14 4.70568e-14 2.35825e-18 5.01125e-05 5.01654e-05 4.27245e-27 0
12.9424 4.49532e-14 4.49512e-14 1.92559e-18 4.28355e-05 3.64311e-05 4.06224e-26 0
13.6067 4.3265e-14 4.32634e-14 1.57235e-18 3.63423e-05 2.49719e-05 3.4363e-25 0
14.3051 4.21091e-14 4.21078e-14 1.28289e-18 3.04659e-05 1.50408e-05 2.61142e-24 0
15.0394 4.1501e-14 4.15e-14 1.0461e-18 2.52067e-05 6.10739e-06 1.79568e-23 0
15.8114 4.15573e-14 4.15565e-14 8.53001e-19 2.05259e-05 -2.27062e-06 1.12715e-22 0
16.623 4.22656e-14 4.22649e-14 6.95416e-19 1.64535e-05 -1.07102e-05 6.49028e-22 0
17.4762 4.37124e-14 4.37119e-14 5.66648e-19 1.29631e-05 -1.88251e-05 3.44944e-21 0
18.3733 4.61053e-14 4.61048e-14 4.61476e-19 1.00092e-05 -2.65109e-05 1.70512e-20 0
19.3164 4.95096e-14 4.95092e-14 3.76308e-19 7.60071e-06 -3.43549e-05 7.86112e-20 0
20.3079 5.40857e-14 5.40854e-14 3.07054e-19 5.67717e-06 -4.3259e-05 3.39213e-19 0
21.3503 6.02094e-14 6.02092e-14 2.50812e-19 4.16566e-06 -4.97732e-05 1.37788e-18 0
22.4463 6.82507e-14 6.82505e-14 2.05536e-19 3.01148e-06 -5.49641e-05 5.28517e-18 0
23.5984 7.85046e-14 7.85044e-14 1.69439e-19 2.15833e-06 -5.97103e-05 1.91466e-17 0
24.8097 9.10622e-14 9.10621e-14 1.40889e-19 1.54717e-06 -6.62247e-05 6.53361e-17 0
26.0832 1.05802e-13 1.05802e-13 1.18665e-19 1.12158e-06 -7.05448e-05 2.09284e-16 0
27.4221 1.21657e-13 1.21657e-13 1.01329e-19 8.3291e-07 -7.39758e-05 6.23731e-16 0
28.8297 1.36245e-13 1.36245e-13 8.79836e-20 6.45776e-07 -7.53194e-05 1.70724e-15 0
30.3095 1.47888e-13 1.47887e-13 7.73385e-20 5.22955e-07 -7.5909e-05 4.2832e-15 0
31.8653 1.5128e-13 1.5128e-13 6.79506e-20 4.49172e-07 -7.46616e-05 9.60301e-15 0
33.5009 1.48297e-13 1.48297e-13 5.96003e-20 4.01897e-07 -7.32998e-05 1.96156e-14 0
35.2206 1.36097e-13 1.36097e-13 5.10411e-20 3.75034e-07 -6.91535e-05 3.57509e-14 0
37.0284 1.20463e-13 1.20463e-13 4.31737e-20 3.58399e-07 -6.50319e-05 6.00346e-14 0
38.9291 1.03305e-13 1.03305e-13 3.58659e-20 3.47186e-07 -5.94346e-05 9.35184e-14 0
40.9273 8.70314e-14 8.70313e-14 2.95074e-20 3.39044e-07 -5.34539e-05 1.37315e-13 0
43.0282 7.28219e-14 7.28218e-14 2.40726e-20 3.30568e-07 -4.55053e-05 1.92522e-13 0
45.2368 6.07093e-14 6.07093e-14 1.95728e-20 3.22402e-07 -3.69103e-05 2.5906e-13 0
47.5588 5.09315e-14 5.09314e-14 1.58745e-20 3.11685e-07 -2.2186e-05 3.38531e-13 0
50 4.27278e-14 4.27278e-14 1.28773e-20 3.01379e-07 -8.09218e-06 4.27647e-13 0
52.5665 3.61205e-14 3.61205e-14 1.04397e-20 2.89023e-07 7.46493e-06 5.27118e-13 0
55.2648 3.07084e-14 3.07084e-14 8.46517e-21 2.75663e-07 2.15191e-05 6.33702e-13 0
58.1015 2.62668e-14 2.62668e-14 6.87359e-21 2.61684e-07 3.37841e-05 7.44488e-13 0
61.0839 2.25844e-14 2.25844e-14 5.58348e-21 2.47227e-07 4.37149e-05 8.55163e-13 0
64.2193 1.95069e-14 1.95069e-14 4.53734e-21 2.32602e-07 5.14595e-05 9.61108e-13 0
67.5157 1.69353e-14 1.69353e-14 3.69012e-21 2.17896e-07 5.66238e-05 1.05885e-12 0
70.9813 1.47663e-14 1.47663e-14 3.00403e-21 2.03438e-07 5.9701e-05 1.14399e-12 0
74.6248 1.2924e-14 1.2924e-14 2.44618e-21 1.89275e-07 6.08932e-05 1.21286e-12 0
78.4553 1.13503e-14 1.13503e-14 1.99237e-21 1.75534e-07 6.04437e-05 1.26279e-12 0
82.4824 1.00031e-14 1.00031e-14 1.6242e-21 1.62369e-07 5.83023e-05 1.29262e-12 0
86.7162 8.84888e-15 8.84887e-15 1.32459e-21 1.4969e-07 5.41502e-05 1.30251e-12 0
91.1674 7.85164e-15 7.85164e-15 1.08035e-21 1.37596e-07 4.89496e-05 1.29234e-12 0
95.847 6.98636e-15 6.98636e-15 8.81243e-22 1.26138e-07 4.35737e-05 1.26346e-12 0
100.767 6.23667e-15 6.23667e-15 7.19482e-22 1.15363e-07 3.8168e-05 1.21875e-12 0
105.939 5.60108e-15 5.60108e-15 5.87358e-22 1.04865e-07 3.1713e-05 1.16415e-12 0
111.377 5.05346e-15 5.05346e-15 4.79435e-22 9.48726e-08 2.54054e-05 1.10047e-12 0
117.094 4.60239e-15 4.60239e-15 3.91508e-22 8.50662e-08 1.92235e-05 1.03523e-12 0
123.105 4.24484e-15 4.24484e-15 3.19967e-22 7.5378e-08 1.34743e-05 9.73022e-13 0
129.424 3.95599e-15 3.95599e-15 2.6173e-22 6.61605e-08 8.30547e-06 9.12377e-13 0
136.067 3.68228e-15 3.68228e-15 2.14264e-22 5.81878e-08 3.95313e-06 8.44194e-13 0
143.051 3.34017e-15 3.34017e-15 1.75659e-22 5.259e-08 2.7853e-07 7.52549e-13 0
150.394 2.96962e-15 2.96962e-15 1.4397e-22 4.84808e-08 -3.00038e-06 6.50453e-13 0
158.114 2.60069e-15 2.60069e-15 1.17822e-22 4.53042e-08 -5.31841e-06 5.4818e-13 0
166.23 2.27426e-15 2.27426e-15 9.63626e-23 4.23709e-08 -7.56847e-06 4.5689e-13 0
174.763 1.99176e-15 1.99176e-15 7.88436e-23 3.95849e-08 -9.75025e-06 3.77924e-13 0
183.733 1.76409e-15 1.76409e-15 6.44786e-23 3.65507e-08 -1.11154e-05 3.13451e-13 0
193.164 1.56531e-15 1.56531e-15 5.27181e-23 3.3679e-08 -1.24043e-05 2.58367e-13 0
203.079 1.39426e-15 1.39426e-15 4.31119e-23 3.09209e-08 -1.3461e-05 2.12167e-13 0
213.503 1.25044e-15 1.25044e-15 3.52699e-23 2.82061e-08 -1.40183e-05 1.7418e-13 0
224.463 1.12083e-15 1.12083e-15 2.88485e-23 2.57384e-08 -1.45584e-05 1.41962e-13 0
235.984 1.004e-15 1.004e-15 2.35914e-23 2.34974e-08 -1.50804e-05 1.14902e-13 0
248.097 8.98891e-16 8.98891e-16 1.93027e-23 2.1474e-08 -1.55853e-05 9.24061e-14 0
260.832 8.09609e-16 8.09609e-16 1.57947e-23 1.9509e-08 -1.56398e-05 7.43466e-14 0
274.221 7.29256e-16 7.29256e-16 1.29211e-23 1.77182e-08 -1.56135e-05 5.95112e-14 0
288.297 6.56115e-16 6.56115e-16 1.0569e-23 1.61085e-08 -1.5587e-05 4.73491e-14 0
303.095 5.90484e-16 5.90484e-16 8.65087e-24 1.46505e-08 -1.54948e-05 3.75117e-14 0
318.653 5.33252e-16 5.33252e-16 7.07924e-24 1.32756e-08 -1.5153e-05 2.9693e-14 0
335.009 4.80935e-16 4.80935e-16 5.7917e-24 1.20426e-08 -1.48259e-05 2.33788e-14 0
352.206 4.33238e-16 4.33238e-16 4.73929e-24 1.09392e-08 -1.45165e-05 1.83163e-14 0
370.284 3.91548e-16 3.91548e-16 3.87933e-24 9.90767e-09 -1.40141e-05 1.43461e-14 0
389.291 3.53599e-16 3.53599e-16 3.17461e-24 8.97798e-09 -1.35142e-05 1.11907e-14 0
409.273 3.18901e-16 3.18901e-16 2.59727e-24 8.14445e-09 -1.3042e-05 8.69059e-15 0
430.282 2.88454e-16 2.88454e-16 2.12605e-24 7.37049e-09 -1.24436e-05 6.74913e-15 0
452.368 2.60836e-16 2.60836e-16 1.74024e-24 6.67178e-09 -1.18386e-05 5.2255e-15 0
475.588 2.35542e-16 2.35542e-16 1.42409e-24 6.04599e-09 -1.12771e-05 4.02997e-15 0
500 2.12438e-16 2.12438e-16 1.16521e-24 5.48495e-09 -1.07446e-05 3.09664e-15 0
525.665 1.92769e-16 1.92769e-16 9.53993e-25 4.94889e-09 -1.0061e-05 2.38857e-15 0
552.648 1.74696e-16 1.74696e-16 7.80849e-25 4.46976e-09 -9.42237e-06 1.83612e-15 0
581.015 1.58102e-16 1.58102e-16 6.38965e-25 4.04146e-09 -8.82738e-06 1.40672e-15 0
610.838 1.42909e-16 1.42909e-16 5.22965e-25 3.65943e-09 -8.27307e-06 1.0744e-15 0
642.193 1.2902e-16 1.2902e-16 4.28136e-25 3.31837e-09 -7.75927e-06 8.18148e-16 0
675.157 1.16324e-16 1.16324e-16 3.50407e-25 3.01235e-09 -7.27876e-06 6.21142e-16 0
709.813 1.05001e-16 1.05001e-16 2.86718e-25 2.73062e-09 -6.80212e-06 4.71401e-16 0
746.247 9.53076e-17 9.53076e-17 2.34733e-25 2.4629e-09 -6.27883e-06 3.59218e-16 0
784.553 8.63975e-17 8.63975e-17 1.92156e-25 2.2241e-09 -5.79776e-06 2.73001e-16 0
824.824 7.82154e-17 7.82154e-17 1.57261e-25 2.01061e-09 -5.35535e-06 2.06932e-16 0
867.162 7.07162e-17 7.07162e-17 1.28688e-25 1.81978e-09 -4.94469e-06 1.56456e-16 0
911.674 6.38653e-17 6.38653e-17 1.05367e-25 1.64983e-09 -4.55956e-06 1.18025e-16 0
958.471 5.76008e-17 5.76008e-17 8.62479e-26 1.49734e-09 -4.21549e-06 8.88182e-17 0
1007.67 5.19367e-17 5.19367e-17 7.0579e-26 1.35894e-09 -3.88161e-06 6.67526e-17 0
1059.39 4.70491e-17 4.70491e-17 5.77716e-26 1.2279e-09 -3.55702e-06 5.03553e-17 0
1113.77 4.25705e-17 4.25705e-17 4.72984e-26 1.11106e-09 -3.26242e-06 3.79059e-17 0
1170.94 3.84663e-17 3.84663e-17 3.87123e-26 1.0064e-09 -2.99168e-06 2.84713e-17 0
1231.05 3.47635e-17 3.47635e-17 3.16777e-26 9.11235e-10 -2.74355e-06 2.13712e-17 0
1294.24 3.14984e-17 3.14984e-17 2.59358e-26 8.23402e-10 -2.49506e-06 1.60708e-17 0
1360.67 2.85141e-17 2.85141e-17 2.12317e-26 7.44603e-10 -2.27398e-06 1.20654e-17 0
1430.51 2.57786e-17 2.57786e-17 1.73763e-26 6.74059e-10 -2.06865e-06 9.04006e-18 0
1503.94 2.32845e-17 2.32845e-17 1.42199e-26 6.107e-10 -1.90072e-06 6.76287e-18 0
1581.14 2.11267e-17 2.11267e-17 1.16433e-26 5.51119e-10 -1.74069e-06 5.07904e-18 0
1662.3 1.91446e-17 1.91446e-17 9.53086e-27 4.97836e-10 -1.59681e-06 3.80744e-18 0
1747.63 1.73254e-17 1.73254e-17 7.7995e-27 4.50177e-10 -1.40617e-06 2.84884e-18 0
1837.33 1.56607e-17 1.56607e-17 6.3843e-27 4.07665e-10 -1.26606e-06 2.12798e-18 0
1931.64 1.41391e-17 1.41391e-17 5.227e-27 3.69683e-10 -1.22805e-06 1.58688e-18 0
2030.79 1.28449e-17 1.28449e-17 4.27825e-27 3.33071e-10 -1.06412e-06 1.19017e-18 0
2135.03 1.18596e-17 1.18596e-17 3.50081e-27 2.95189e-10 -9.81437e-07 9.06812e-19 0
2244.63 1.09397e-17 1.09397e-17 2.86633e-27 2.62012e-10 -8.97684e-07 6.89993e-19 0
2359.84 1.00802e-17 1.00802e-17 2.34651e-27 2.32783e-10 -7.7773e-07 5.2424e-19 0
2480.97 9.27774e-18 9.27774e-18 1.92043e-27 2.06993e-10 -7.70618e-07 3.97702e-19 0
2608.32 8.52966e-18 8.52966e-18 1.57163e-27 1.84255e-10 -6.94072e-07 3.01267e-19 0
2742.21 7.83394e-18 7.83394e-18 1.28684e-27 1.64265e-10 -6.59083e-07 2.27909e-19 0
2882.96 7.18641e-18 7.18641e-18 1.05337e-27 1.46578e-10 -5.6922e-07 1.72153e-19 0
3030.95 6.58437e-18 6.58437e-18 8.62025e-28 1.3092e-10 -5.88499e-07 1.2984e-19 0
3186.53 6.02608e-18 6.02608e-18 7.05627e-28 1.17095e-10 -4.5755e-07 9.77907e-20 0
3350.09 5.50884e-18 5.50884e-18 5.7771e-28 1.0487e-10 -4.31985e-07 7.35486e-20 0
3522.05 5.02968e-18 5.02968e-18 4.72855e-28 9.4013e-11 -4.70921e-07 5.52325e-20 0
3702.84 4.58631e-18 4.58631e-18 3.86926e-28 8.43656e-11 -2.83258e-07 4.14144e-20 0
3892.91 4.17756e-18 4.17756e-18 3.16804e-28 7.58346e-11 -2.88707e-07 3.10132e-20 0
4092.73 3.80044e-18 3.80044e-18 2.5935e-28 6.82421e-11 -3.37741e-07 2.31899e-20 0
4302.81 3.45286e-18 3.45286e-18 2.12257e-28 6.14729e-11 -3.14778e-07 1.73139e-20 0
4523.68 3.13314e-18 3.13314e-18 1.73707e-28 5.5442e-11 -2.89354e-07 1.2908e-20 0
4755.88 2.83986e-18 2.83986e-18 1.4223e-28 5.00836e-11 -2.45098e-07 9.61082e-21 0
5000 2.57065e-18 2.57065e-18 1.16425e-28 4.529e-11 -1.6696e-07 7.1452e-21 0
