# 0.000152549 1 80 : grain size, compostion index, size index
# Heating and cooling timescale: 0.000128781 2.51595e+07
# Ratio of heating to cooling to determine stochastic cutoff: 100
# Equilibrium emission is recorded even for those grains in the stochastic regime.
# Emission spectrum was computed for: 
# Type: IRSF
# Scales: 0.25 0.5 1 1.5 2 2.5 3 3.5 4 4.5 5 5.5 6 6.5 7 7.5 8 8.5 9 9.5 10
# StochasticallyHeated: 0 0 0 0 0 0 0 0 0 0 0 0 0 0 0 0 0 0 0 0 0
# Temperature: -1
# Wavelength  CExt  CAbs  CSca  Albedo G EqEm1 StEm1 EqEm2 StEm2 EqEm3 StEm3 EqEm4 StEm4 EqEm5 StEm5 EqEm6 StEm6 EqEm7 StEm7 EqEm8 StEm8 EqEm9 StEm9 EqEm10 StEm10 EqEm11 StEm11 EqEm12 StEm12 EqEm13 StEm13 EqEm14 StEm14 EqEm15 StEm15 EqEm16 StEm16 EqEm17 StEm17 EqEm18 StEm18 EqEm19 StEm19 EqEm20 StEm20 EqEm21 StEm21
0.05 1.49697e-07 5.24016e-08 9.72955e-08 0.649949 0.857254 0 0 0 0 0 0 0 0 0 0 0 0 0 0 0 0 0 0 0 0 0 0 0 0 0 0 0 0 0 0 0 0 0 0 0 0 0 0 0 0 0 0
0.0525665 1.49931e-07 5.16728e-08 9.82581e-08 0.655356 0.845132 0 0 0 0 0 0 0 0 0 0 0 0 0 0 0 0 0 0 0 0 0 0 0 0 0 0 0 0 0 0 0 0 0 0 0 0 0 0 0 0 0 0
0.0552647 1.50175e-07 5.11625e-08 9.90121e-08 0.659313 0.83508 0 0 0 0 0 0 0 0 0 0 0 0 0 0 0 0 0 0 0 0 0 0 0 0 0 0 0 0 0 0 0 0 0 0 0 0 0 0 0 0 0 0
0.0581015 1.50406e-07 5.09996e-08 9.94062e-08 0.66092 0.828934 0 0 0 0 0 0 0 0 0 0 0 0 0 0 0 0 0 0 0 0 0 0 0 0 0 0 0 0 0 0 0 0 0 0 0 0 0 0 0 0 0 0
0.0610839 1.50637e-07 5.03774e-08 1.0026e-07 0.66557 0.820493 0 0 0 0 0 0 0 0 0 0 0 0 0 0 0 0 0 0 0 0 0 0 0 0 0 0 0 0 0 0 0 0 0 0 0 0 0 0 0 0 0 0
0.0642193 1.50944e-07 4.86959e-08 1.02248e-07 0.67739 0.802872 0 0 0 0 0 0 0 0 0 0 0 0 0 0 0 0 0 0 0 0 0 0 0 0 0 0 0 0 0 0 0 0 0 0 0 0 0 0 0 0 0 0
0.0675157 1.51352e-07 4.71102e-08 1.04241e-07 0.688737 0.78364 0 0 0 0 0 0 0 0 0 0 0 0 0 0 0 0 0 0 0 0 0 0 0 0 0 0 0 0 0 0 0 0 0 0 0 0 0 0 0 0 0 0
0.0709813 1.51794e-07 4.7209e-08 1.04585e-07 0.688993 0.776853 0 0 0 0 0 0 0 0 0 0 0 0 0 0 0 0 0 0 0 0 0 0 0 0 0 0 0 0 0 0 0 0 0 0 0 0 0 0 0 0 0 0
0.0746248 1.52211e-07 4.82135e-08 1.03998e-07 0.683246 0.778257 0 0 0 0 0 0 0 0 0 0 0 0 0 0 0 0 0 0 0 0 0 0 0 0 0 0 0 0 0 0 0 0 0 0 0 0 0 0 0 0 0 0
0.0784553 1.52592e-07 4.94905e-08 1.03101e-07 0.675668 0.783079 0 0 0 0 0 0 0 0 0 0 0 0 0 0 0 0 0 0 0 0 0 0 0 0 0 0 0 0 0 0 0 0 0 0 0 0 0 0 0 0 0 0
0.0824824 1.52952e-07 5.09172e-08 1.02035e-07 0.667103 0.788793 0 0 0 0 0 0 0 0 0 0 0 0 0 0 0 0 0 0 0 0 0 0 0 0 0 0 0 0 0 0 0 0 0 0 0 0 0 0 0 0 0 0
0.0867162 1.53306e-07 5.14508e-08 1.01855e-07 0.664391 0.787729 0 0 0 0 0 0 0 0 0 0 0 0 0 0 0 0 0 0 0 0 0 0 0 0 0 0 0 0 0 0 0 0 0 0 0 0 0 0 0 0 0 0
0.0911674 1.53707e-07 5.15258e-08 1.02182e-07 0.66478 0.782781 0 0 0 0 0 0 0 0 0 0 0 0 0 0 0 0 0 0 0 0 0 0 0 0 0 0 0 0 0 0 0 0 0 0 0 0 0 0 0 0 0 0
0.095847 1.5409e-07 5.20796e-08 1.02011e-07 0.662019 0.781029 0 0 0 0 0 0 0 0 0 0 0 0 0 0 0 0 0 0 0 0 0 0 0 0 0 0 0 0 0 0 0 0 0 0 0 0 0 0 0 0 0 0
0.100767 1.54266e-07 5.41029e-08 1.00163e-07 0.649289 0.791835 0 0 0 0 0 0 0 0 0 0 0 0 0 0 0 0 0 0 0 0 0 0 0 0 0 0 0 0 0 0 0 0 0 0 0 0 0 0 0 0 0 0
0.105939 1.54341e-07 5.60318e-08 9.83091e-08 0.636961 0.805754 0 0 0 0 0 0 0 0 0 0 0 0 0 0 0 0 0 0 0 0 0 0 0 0 0 0 0 0 0 0 0 0 0 0 0 0 0 0 0 0 0 0
0.111377 1.54097e-07 5.92481e-08 9.48491e-08 0.615515 0.832265 0 0 0 0 0 0 0 0 0 0 0 0 0 0 0 0 0 0 0 0 0 0 0 0 0 0 0 0 0 0 0 0 0 0 0 0 0 0 0 0 0 0
0.117094 1.54007e-07 6.25433e-08 9.14636e-08 0.593893 0.863362 0 0 0 0 0 0 0 0 0 0 0 0 0 0 0 0 0 0 0 0 0 0 0 0 0 0 0 0 0 0 0 0 0 0 0 0 0 0 0 0 0 0
0.123105 1.541e-07 6.47725e-08 8.93275e-08 0.579672 0.885177 0 0 0 0 0 0 0 0 0 0 0 0 0 0 0 0 0 0 0 0 0 0 0 0 0 0 0 0 0 0 0 0 0 0 0 0 0 0 0 0 0 0
0.129424 1.54259e-07 6.67405e-08 8.75181e-08 0.567346 0.904438 0 0 0 0 0 0 0 0 0 0 0 0 0 0 0 0 0 0 0 0 0 0 0 0 0 0 0 0 0 0 0 0 0 0 0 0 0 0 0 0 0 0
0.136067 1.54404e-07 6.83753e-08 8.60291e-08 0.557168 0.920047 0 0 0 0 0 0 0 0 0 0 0 0 0 0 0 0 0 0 0 0 0 0 0 0 0 0 0 0 0 0 0 0 0 0 0 0 0 0 0 0 0 0
0.143051 1.54432e-07 6.96528e-08 8.4779e-08 0.548974 0.932199 0 0 0 0 0 0 0 0 0 0 0 0 0 0 0 0 0 0 0 0 0 0 0 0 0 0 0 0 0 0 0 0 0 0 0 0 0 0 0 0 0 0
0.150394 1.54223e-07 7.02887e-08 8.39341e-08 0.544239 0.939974 0 0 0 0 0 0 0 0 0 0 0 0 0 0 0 0 0 0 0 0 0 0 0 0 0 0 0 0 0 0 0 0 0 0 0 0 0 0 0 0 0 0
0.158114 1.53951e-07 6.9868e-08 8.40828e-08 0.546167 0.94067 0 0 0 0 0 0 0 0 0 0 0 0 0 0 0 0 0 0 0 0 0 0 0 0 0 0 0 0 0 0 0 0 0 0 0 0 0 0 0 0 0 0
0.16623 1.54033e-07 6.80447e-08 8.59881e-08 0.558245 0.930117 0 0 0 0 0 0 0 0 0 0 0 0 0 0 0 0 0 0 0 0 0 0 0 0 0 0 0 0 0 0 0 0 0 0 0 0 0 0 0 0 0 0
0.174762 1.54677e-07 6.48949e-08 8.97822e-08 0.580449 0.904743 0 0 0 0 0 0 0 0 0 0 0 0 0 0 0 0 0 0 0 0 0 0 0 0 0 0 0 0 0 0 0 0 0 0 0 0 0 0 0 0 0 0
0.183733 1.55558e-07 6.11478e-08 9.44104e-08 0.606914 0.870827 0 0 0 0 0 0 0 0 0 0 0 0 0 0 0 0 0 0 0 0 0 0 0 0 0 0 0 0 0 0 0 0 0 0 0 0 0 0 0 0 0 0
0.193164 1.56579e-07 5.74053e-08 9.91741e-08 0.633379 0.836165 0 0 0 0 0 0 0 0 0 0 0 0 0 0 0 0 0 0 0 0 0 0 0 0 0 0 0 0 0 0 0 0 0 0 0 0 0 0 0 0 0 0
0.203079 1.5771e-07 5.43152e-08 1.03395e-07 0.655601 0.807764 0 0 0 0 0 0 0 0 0 0 0 0 0 0 0 0 0 0 0 0 0 0 0 0 0 0 0 0 0 0 0 0 0 0 0 0 0 0 0 0 0 0
0.213503 1.58999e-07 5.18346e-08 1.07164e-07 0.673994 0.784973 0 0 0 0 0 0 0 0 0 0 0 0 0 0 0 0 0 0 0 0 0 0 0 0 0 0 0 0 0 0 0 0 0 0 0 0 0 0 0 0 0 0
0.224463 1.60578e-07 5.06406e-08 1.09937e-07 0.684635 0.76965 0 0 0 0 0 0 0 0 0 0 0 0 0 0 0 0 0 0 0 0 0 0 0 0 0 0 0 0 0 0 0 0 0 0 0 0 0 0 0 0 0 0
0.235984 1.62217e-07 5.0469e-08 1.11748e-07 0.688881 0.759575 0 0 0 0 0 0 0 0 0 0 0 0 0 0 0 0 0 0 0 0 0 0 0 0 0 0 0 0 0 0 0 0 0 0 0 0 0 0 0 0 0 0
0.248097 1.63338e-07 5.15309e-08 1.11807e-07 0.684514 0.756059 0 0 0 0 0 0 0 0 0 0 0 0 0 0 0 0 0 0 0 0 0 0 0 0 0 0 0 0 0 0 0 0 0 0 0 0 0 0 0 0 0 0
0.260832 1.6358e-07 5.30392e-08 1.10541e-07 0.67576 0.757125 0 0 0 0 0 0 0 0 0 0 0 0 0 0 0 0 0 0 0 0 0 0 0 0 0 0 0 0 0 0 0 0 0 0 0 0 0 0 0 0 0 0
0.274221 1.63362e-07 5.45099e-08 1.08852e-07 0.666324 0.759718 0 0 0 0 0 0 0 0 0 0 0 0 0 0 0 0 0 0 0 0 0 0 0 0 0 0 0 0 0 0 0 0 0 0 0 0 0 0 0 0 0 0
0.288297 1.63081e-07 5.63377e-08 1.06743e-07 0.654541 0.767437 0 0 0 0 0 0 0 0 0 0 0 0 0 0 0 0 0 0 0 0 0 0 0 0 0 0 0 0 0 0 0 0 0 0 0 0 0 0 0 0 0 0
0.303095 1.63077e-07 5.76874e-08 1.05389e-07 0.646256 0.773467 0 0 0 0 0 0 0 0 0 0 0 0 0 0 0 0 0 0 0 0 0 0 0 0 0 0 0 0 0 0 0 0 0 0 0 0 0 0 0 0 0 0
0.318653 1.63177e-07 5.88455e-08 1.04331e-07 0.639375 0.778811 0 0 0 0 0 0 0 0 0 0 0 0 0 0 0 0 0 0 0 0 0 0 0 0 0 0 0 0 0 0 0 0 0 0 0 0 0 0 0 0 0 0
0.335009 1.63401e-07 5.98478e-08 1.03553e-07 0.633736 0.783443 0 0 0 0 0 0 0 0 0 0 0 0 0 0 0 0 0 0 0 0 0 0 0 0 0 0 0 0 0 0 0 0 0 0 0 0 0 0 0 0 0 0
0.352205 1.63732e-07 6.06504e-08 1.03082e-07 0.629576 0.786638 0 0 0 0 0 0 0 0 0 0 0 0 0 0 0 0 0 0 0 0 0 0 0 0 0 0 0 0 0 0 0 0 0 0 0 0 0 0 0 0 0 0
0.370284 1.6413e-07 6.12906e-08 1.02839e-07 0.626572 0.788461 0 0 0 0 0 0 0 0 0 0 0 0 0 0 0 0 0 0 0 0 0 0 0 0 0 0 0 0 0 0 0 0 0 0 0 0 0 0 0 0 0 0
0.389291 1.64562e-07 6.17782e-08 1.02784e-07 0.624591 0.788882 0 0 0 0 0 0 0 0 0 0 0 0 0 0 0 0 0 0 0 0 0 0 0 0 0 0 0 0 0 0 0 0 0 0 0 0 0 0 0 0 0 0
0.409273 1.65013e-07 6.22262e-08 1.02787e-07 0.622901 0.788933 0 0 0 0 0 0 0 0 0 0 0 0 0 0 0 0 0 0 0 0 0 0 0 0 0 0 0 0 0 0 0 0 0 0 0 0 0 0 0 0 0 0
0.430281 1.65474e-07 6.26587e-08 1.02815e-07 0.621337 0.788796 0 0 0 0 0 0 0 0 0 0 0 0 0 0 0 0 0 0 0 0 0 0 0 0 0 0 0 0 0 0 0 0 0 0 0 0 0 0 0 0 0 0
0.452368 1.65971e-07 6.31145e-08 1.02856e-07 0.619726 0.788828 0 0 0 0 0 0 0 0 0 0 0 0 0 0 0 0 0 0 0 0 0 0 0 0 0 0 0 0 0 0 0 0 0 0 0 0 0 0 0 0 0 0
0.475588 1.66493e-07 6.3573e-08 1.0292e-07 0.618164 0.78878 0 0 0 0 0 0 0 0 0 0 0 0 0 0 0 0 0 0 0 0 0 0 0 0 0 0 0 0 0 0 0 0 0 0 0 0 0 0 0 0 0 0
0.5 1.67054e-07 6.40166e-08 1.03037e-07 0.61679 0.788465 0 0 0 0 0 0 0 0 0 0 0 0 0 0 0 0 0 0 0 0 0 0 0 0 0 0 0 0 0 0 0 0 0 0 0 0 0 0 0 0 0 0
0.525665 1.67649e-07 6.4457e-08 1.03192e-07 0.615524 0.787972 0 0 0 0 0 0 0 0 0 0 0 0 0 0 0 0 0 0 0 0 0 0 0 0 0 0 0 0 0 0 0 0 0 0 0 0 0 0 0 0 0 0
0.552648 1.68262e-07 6.48962e-08 1.03366e-07 0.614315 0.787319 0 0 0 0 0 0 0 0 0 0 0 0 0 0 0 0 0 0 0 0 0 0 0 0 0 0 0 0 0 0 0 0 0 0 0 0 0 0 0 0 0 0
0.581015 1.6892e-07 6.52592e-08 1.03661e-07 0.613669 0.785891 0 0 0 0 0 0 0 0 0 0 0 0 0 0 0 0 0 0 0 0 0 0 0 0 0 0 0 0 0 0 0 0 0 0 0 0 0 0 0 0 0 0
0.610839 1.69598e-07 6.56277e-08 1.03971e-07 0.613041 0.784376 0 0 0 0 0 0 0 0 0 0 0 0 0 0 0 0 0 0 0 0 0 0 0 0 0 0 0 0 0 0 0 0 0 0 0 0 0 0 0 0 0 0
0.642193 1.7026e-07 6.6e-08 1.0426e-07 0.612358 0.782707 0 0 0 0 0 0 0 0 0 0 0 0 0 0 0 0 0 0 0 0 0 0 0 0 0 0 0 0 0 0 0 0 0 0 0 0 0 0 0 0 0 0
0.675157 1.71041e-07 6.6342e-08 1.04699e-07 0.612128 0.780853 0 0 0 0 0 0 0 0 0 0 0 0 0 0 0 0 0 0 0 0 0 0 0 0 0 0 0 0 0 0 0 0 0 0 0 0 0 0 0 0 0 0
0.709813 1.71751e-07 6.66487e-08 1.05102e-07 0.611946 0.778465 0 0 0 0 0 0 0 0 0 0 0 0 0 0 0 0 0 0 0 0 0 0 0 0 0 0 0 0 0 0 0 0 0 0 0 0 0 0 0 0 0 0
0.746248 1.72228e-07 6.69193e-08 1.05308e-07 0.611449 0.775247 0 0 0 0 0 0 0 0 0 0 0 0 0 0 0 0 0 0 0 0 0 0 0 0 0 0 0 0 0 0 0 0 0 0 0 0 0 0 0 0 0 0
0.784553 1.73336e-07 6.71332e-08 1.06202e-07 0.612698 0.772641 0 0 0 0 0 0 0 0 0 0 0 0 0 0 0 0 0 0 0 0 0 0 0 0 0 0 0 0 0 0 0 0 0 0 0 0 0 0 0 0 0 0
0.824824 1.7448e-07 6.72885e-08 1.07191e-07 0.614348 0.76997 0 0 0 0 0 0 0 0 0 0 0 0 0 0 0 0 0 0 0 0 0 0 0 0 0 0 0 0 0 0 0 0 0 0 0 0 0 0 0 0 0 0
0.867162 1.74241e-07 6.73926e-08 1.06848e-07 0.613222 0.764727 0 0 0 0 0 0 0 0 0 0 0 0 0 0 0 0 0 0 0 0 0 0 0 0 0 0 0 0 0 0 0 0 0 0 0 0 0 0 0 0 0 0
0.911674 1.74365e-07 6.73651e-08 1.06999e-07 0.613653 0.758569 0 0 0 0 0 0 0 0 0 0 0 0 0 0 0 0 0 0 0 0 0 0 0 0 0 0 0 0 0 0 0 0 0 0 0 0 0 0 0 0 0 0
0.95847 1.76834e-07 6.72728e-08 1.09561e-07 0.619572 0.75486 0 0 0 0 0 0 0 0 0 0 0 0 0 0 0 0 0 0 0 0 0 0 0 0 0 0 0 0 0 0 0 0 0 0 0 0 0 0 0 0 0 0
1.00767 1.79407e-07 6.70544e-08 1.12353e-07 0.626244 0.751087 0 0 0 0 0 0 0 0 0 0 0 0 0 0 0 0 0 0 0 0 0 0 0 0 0 0 0 0 0 0 0 0 0 0 0 0 0 0 0 0 0 0
1.05939 1.78682e-07 6.65548e-08 1.12127e-07 0.627523 0.742374 0 0 0 0 0 0 0 0 0 0 0 0 0 0 0 0 0 0 0 0 0 0 0 0 0 0 0 0 0 0 0 0 0 0 0 0 0 0 0 0 0 0
1.11377 1.75747e-07 6.55372e-08 1.1021e-07 0.627093 0.726081 0 0 0 0 0 0 0 0 0 0 0 0 0 0 0 0 0 0 0 0 0 0 0 0 0 0 0 0 0 0 0 0 0 0 0 0 0 0 0 0 0 0
1.17094 1.75487e-07 6.55122e-08 1.09974e-07 0.626682 0.719994 0 0 0 0 0 0 0 0 0 0 0 0 0 0 0 0 0 0 0 0 0 0 0 0 0 0 0 0 0 0 0 0 0 0 0 0 0 0 0 0 0 0
1.23105 1.80736e-07 6.57351e-08 1.15001e-07 0.636291 0.720433 0 0 0 0 0 0 0 0 0 0 0 0 0 0 0 0 0 0 0 0 0 0 0 0 0 0 0 0 0 0 0 0 0 0 0 0 0 0 0 0 0 0
1.29424 1.8571e-07 6.41359e-08 1.21575e-07 0.654646 0.721325 0 0 0 0 0 0 0 0 0 0 0 0 0 0 0 0 0 0 0 0 0 0 0 0 0 0 0 0 0 0 0 0 0 0 0 0 0 0 0 0 0 0
1.36067 1.875e-07 6.35407e-08 1.23959e-07 0.661116 0.714612 0 0 0 0 0 0 0 0 0 0 0 0 0 0 0 0 0 0 0 0 0 0 0 0 0 0 0 0 0 0 0 0 0 0 0 0 0 0 0 0 0 0
1.43051 1.85009e-07 6.29289e-08 1.22081e-07 0.659861 0.690221 0 0 0 0 0 0 0 0 0 0 0 0 0 0 0 0 0 0 0 0 0 0 0 0 0 0 0 0 0 0 0 0 0 0 0 0 0 0 0 0 0 0
1.50394 1.82195e-07 6.24018e-08 1.19793e-07 0.657499 0.672464 0 0 0 0 0 0 0 0 0 0 0 0 0 0 0 0 0 0 0 0 0 0 0 0 0 0 0 0 0 0 0 0 0 0 0 0 0 0 0 0 0 0
1.58114 1.75599e-07 6.03268e-08 1.15272e-07 0.656451 0.634236 0 0 0 0 0 0 0 0 0 0 0 0 0 0 0 0 0 0 0 0 0 0 0 0 0 0 0 0 0 0 0 0 0 0 0 0 0 0 0 0 0 0
1.6623 1.80428e-07 6.13528e-08 1.19075e-07 0.65996 0.623462 0 0 0 0 0 0 0 0 0 0 0 0 0 0 0 0 0 0 0 0 0 0 0 0 0 0 0 0 0 0 0 0 0 0 0 0 0 0 0 0 0 0
1.74763 1.79241e-07 5.79614e-08 1.2128e-07 0.676629 0.637626 0 0 0 0 0 0 0 0 0 0 0 0 0 0 0 0 0 0 0 0 0 0 0 0 0 0 0 0 0 0 0 0 0 0 0 0 0 0 0 0 0 0
1.83733 1.93857e-07 5.98257e-08 1.34031e-07 0.691393 0.641296 0 0 0 0 0 0 0 0 0 0 0 0 0 0 0 0 0 0 0 0 0 0 0 0 0 0 0 0 0 0 0 0 0 0 0 0 0 0 0 0 0 0
1.93164 1.92375e-07 5.61199e-08 1.36255e-07 0.708279 0.65878 0 0 0 0 0 0 0 0 0 0 0 0 0 0 0 0 0 0 0 0 0 0 0 0 0 0 0 0 0 0 0 0 0 0 0 0 0 0 0 0 0 0
2.03079 2.07928e-07 5.89012e-08 1.49027e-07 0.716723 0.669322 0 0 0 0 0 0 0 0 0 0 0 0 0 0 0 0 0 0 0 0 0 0 0 0 0 0 0 0 0 0 0 0 0 0 0 0 0 0 0 0 0 0
2.13503 2.00655e-07 5.70083e-08 1.43647e-07 0.715889 0.642917 0 0 0 0 0 0 0 0 0 0 0 0 0 0 0 0 0 0 0 0 0 0 0 0 0 0 0 0 0 0 0 0 0 0 0 0 0 0 0 0 0 0
2.24463 1.99924e-07 5.50735e-08 1.44851e-07 0.724528 0.658724 0 0 0 0 0 0 0 0 0 0 0 0 0 0 0 0 0 0 0 0 0 0 0 0 0 0 0 0 0 0 0 0 0 0 0 0 0 0 0 0 0 0
2.35984 2.01535e-07 5.94925e-08 1.42042e-07 0.704803 0.625429 0 0 0 0 0 0 0 0 0 0 0 0 0 0 0 0 0 0 0 0 0 0 0 0 0 0 0 0 0 0 0 0 0 0 0 0 0 0 0 0 0 0
2.48097 1.80704e-07 5.31113e-08 1.27593e-07 0.706087 0.585503 0 0 0 0 0 0 0 0 0 0 0 0 0 0 0 0 0 0 0 0 0 0 0 0 0 0 0 0 0 0 0 0 0 0 0 0 0 0 0 0 0 0
2.60832 1.86936e-07 5.80713e-08 1.28865e-07 0.689352 0.562227 0 0 0 0 0 0 0 0 0 0 0 0 0 0 0 0 0 0 0 0 0 0 0 0 0 0 0 0 0 0 0 0 0 0 0 0 0 0 0 0 0 0
2.74221 1.8394e-07 5.70097e-08 1.2693e-07 0.690064 0.509813 0 0 0 0 0 0 0 0 0 0 0 0 0 0 0 0 0 0 0 0 0 0 0 0 0 0 0 0 0 0 0 0 0 0 0 0 0 0 0 0 0 0
2.88297 1.71181e-07 5.33881e-08 1.17793e-07 0.688119 0.449809 0 0 0 0 0 0 0 0 0 0 0 0 0 0 0 0 0 0 0 0 0 0 0 0 0 0 0 0 0 0 0 0 0 0 0 0 0 0 0 0 0 0
3.03095 1.76903e-07 5.4236e-08 1.22667e-07 0.693413 0.444851 0 0 0 0 0 0 0 0 0 0 0 0 0 0 0 0 0 0 0 0 0 0 0 0 0 0 0 0 0 0 0 0 0 0 0 0 0 0 0 0 0 0
3.18653 1.86897e-07 5.53344e-08 1.31562e-07 0.703931 0.401351 0 0 0 0 0 0 0 0 0 0 0 0 0 0 0 0 0 0 0 0 0 0 0 0 0 0 0 0 0 0 0 0 0 0 0 0 0 0 0 0 0 0
3.35009 1.93876e-07 5.29259e-08 1.4095e-07 0.727012 0.438699 0 0 0 0 0 0 0 0 0 0 0 0 0 0 0 0 0 0 0 0 0 0 0 0 0 0 0 0 0 0 0 0 0 0 0 0 0 0 0 0 0 0
3.52205 1.96673e-07 5.20193e-08 1.44654e-07 0.735504 0.466068 0 0 0 0 0 0 0 0 0 0 0 0 0 0 0 0 0 0 0 0 0 0 0 0 0 0 0 0 0 0 0 0 0 0 0 0 0 0 0 0 0 0
3.70284 2.16812e-07 5.46072e-08 1.62205e-07 0.748136 0.473023 0 0 0 0 0 0 0 0 0 0 0 0 0 0 0 0 0 0 0 0 0 0 0 0 0 0 0 0 0 0 0 0 0 0 0 0 0 0 0 0 0 0
3.89291 2.2444e-07 5.42836e-08 1.70156e-07 0.758137 0.426949 0 0 0 0 0 0 0 0 0 0 0 0 0 0 0 0 0 0 0 0 0 0 0 0 0 0 0 0 0 0 0 0 0 0 0 0 0 0 0 0 0 0
4.09273 2.19683e-07 4.88337e-08 1.7085e-07 0.777709 0.429926 0 0 0 0 0 0 0 0 0 0 0 0 0 0 0 0 0 0 0 0 0 0 0 0 0 0 0 0 0 0 0 0 0 0 0 0 0 0 0 0 0 0
4.30281 2.31112e-07 4.83822e-08 1.8273e-07 0.790655 0.442175 0 0 0 0 0 0 0 0 0 0 0 0 0 0 0 0 0 0 0 0 0 0 0 0 0 0 0 0 0 0 0 0 0 0 0 0 0 0 0 0 0 0
4.52368 2.47085e-07 4.96865e-08 1.97398e-07 0.798909 0.456456 0 0 0 0 0 0 0 0 0 0 0 0 0 0 0 0 0 0 0 0 0 0 0 0 0 0 0 0 0 0 0 0 0 0 0 0 0 0 0 0 0 0
4.75588 2.68757e-07 5.2628e-08 2.16129e-07 0.80418 0.46067 0 0 0 0 0 0 0 0 0 0 0 0 0 0 0 0 0 0 0 0 0 0 0 0 0 0 0 0 0 0 0 0 0 0 0 0 0 0 0 0 0 0
5 2.66306e-07 5.33107e-08 2.12996e-07 0.799814 0.439778 0 0 0 0 0 0 0 0 0 0 0 0 0 0 0 0 0 0 0 0 0 0 0 0 0 0 0 0 0 0 0 0 0 0 0 0 0 0 0 0 0 0
5.25665 2.39143e-07 4.90406e-08 1.90102e-07 0.794932 0.407687 0 0 0 0 0 0 0 0 0 0 0 0 0 0 0 0 0 0 0 0 0 0 0 0 0 0 0 0 0 0 0 0 0 0 0 0 0 0 0 0 0 0
5.52648 2.2879e-07 4.63864e-08 1.82404e-07 0.797254 0.377418 0 0 0 0 0 0 0 0 0 0 0 0 0 0 0 0 0 0 0 0 0 0 0 0 0 0 0 0 0 0 0 0 0 0 0 0 0 0 0 0 0 0
5.81015 2.28178e-07 4.50592e-08 1.83119e-07 0.802527 0.346538 0 0 0 0 0 0 0 0 0 0 0 0 0 0 0 0 0 0 0 0 0 0 0 0 0 0 0 0 0 0 0 0 0 0 0 0 0 0 0 0 0 0
6.10839 2.3307e-07 4.45906e-08 1.88479e-07 0.808681 0.317113 0 0 0 0 0 0 0 0 0 0 0 0 0 0 0 0 0 0 0 0 0 0 0 0 0 0 0 0 0 0 0 0 0 0 0 0 0 0 0 0 0 0
6.42193 2.40828e-07 4.49882e-08 1.9584e-07 0.813194 0.293773 0 0 0 0 0 0 0 0 0 0 0 0 0 0 0 0 0 0 0 0 0 0 0 0 0 0 0 0 0 0 0 0 0 0 0 0 0 0 0 0 0 0
6.75157 2.4414e-07 4.58254e-08 1.98315e-07 0.812299 0.278071 0 0 0 0 0 0 0 0 0 0 0 0 0 0 0 0 0 0 0 0 0 0 0 0 0 0 0 0 0 0 0 0 0 0 0 0 0 0 0 0 0 0
7.09813 2.33475e-07 4.60425e-08 1.87432e-07 0.802794 0.263969 0 0 0 0 0 0 0 0 0 0 0 0 0 0 0 0 0 0 0 0 0 0 0 0 0 0 0 0 0 0 0 0 0 0 0 0 0 0 0 0 0 0
7.46248 2.13622e-07 4.52679e-08 1.68354e-07 0.788093 0.240643 0 0 0 0 0 0 0 0 0 0 0 0 0 0 0 0 0 0 0 0 0 0 0 0 0 0 0 0 0 0 0 0 0 0 0 0 0 0 0 0 0 0
7.84553 1.97272e-07 4.44508e-08 1.52821e-07 0.774672 0.204788 0 0 0 0 0 0 0 0 0 0 0 0 0 0 0 0 0 0 0 0 0 0 0 0 0 0 0 0 0 0 0 0 0 0 0 0 0 0 0 0 0 0
8.24824 1.86281e-07 4.40058e-08 1.42276e-07 0.763767 0.163636 0 0 0 0 0 0 0 0 0 0 0 0 0 0 0 0 0 0 0 0 0 0 0 0 0 0 0 0 0 0 0 0 0 0 1.4013e-45 0 5.60519e-45 0 1.26117e-44 0 2.94273e-44 0
8.67162 1.77958e-07 4.38403e-08 1.34117e-07 0.753648 0.124212 0 0 0 0 0 0 0 0 0 0 0 0 0 0 0 0 0 0 0 0 0 0 0 0 1.4013e-45 0 4.2039e-45 0 1.26117e-44 0 4.2039e-44 0 1.20512e-43 0 3.26503e-43 0 8.1976e-43 0 1.95201e-42 0 4.33842e-42 0
9.11674 1.70065e-07 4.36985e-08 1.26366e-07 0.743048 0.0894108 0 0 0 0 0 0 0 0 0 0 0 0 0 0 0 0 0 0 1.4013e-45 0 7.00649e-45 0 3.78351e-44 0 1.58347e-43 0 5.96953e-43 0 1.9422e-42 0 5.9345e-42 0 1.64484e-41 0 4.23276e-41 0 1.01499e-40 0 2.31517e-40 0 4.94843e-40 0
9.5847 1.61324e-07 4.33665e-08 1.17957e-07 0.731183 0.0593682 0 0 0 0 0 0 0 0 0 0 0 0 0 0 2.8026e-45 0 2.66247e-44 0 1.97583e-43 0 1.13505e-42 0 5.26608e-42 0 2.08289e-41 0 7.37055e-41 0 2.26608e-40 0 6.55593e-40 0 1.72891e-39 0 4.24857e-39 0 9.76185e-39 0 2.13879e-38 0 4.40501e-38 0
10.0767 1.51297e-07 4.26904e-08 1.08606e-07 0.717836 0.03356 0 0 0 0 0 0 0 0 0 0 1.4013e-45 0 2.94273e-44 0 4.17587e-43 0 3.82975e-42 0 2.52416e-41 0 1.33192e-40 0 5.73257e-40 0 2.11995e-39 0 7.05292e-39 0 2.05273e-38 0 5.63852e-38 0 1.41821e-37 0 3.3354e-37 0 7.35863e-37 0 1.55168e-36 0 3.08504e-36 0
10.5939 1.39863e-07 4.157e-08 9.82927e-08 0.70278 0.0110579 0 0 0 0 0 0 0 0 4.2039e-45 0 1.86373e-43 0 4.1058e-42 0 5.01959e-41 0 4.13394e-40 0 2.4851e-39 0 1.20903e-38 0 4.84572e-38 0 1.68114e-37 0 5.27423e-37 0 1.45704e-36 0 3.80958e-36 0 9.16e-36 0 2.06618e-35 0 4.3857e-35 0 8.91711e-35 0 1.7144e-34 0
11.1377 1.27273e-07 4.00564e-08 8.72165e-08 0.685272 -0.00888286 0 0 0 0 0 0 2.8026e-45 0 5.33895e-43 0 2.28089e-41 0 4.31166e-40 0 4.66541e-39 0 3.46637e-38 0 1.90908e-37 0 8.59741e-37 0 3.21998e-36 0 1.05129e-35 0 3.11913e-35 0 8.19969e-35 0 2.04562e-34 0 4.71238e-34 0 1.02156e-33 0 2.09015e-33 0 4.10502e-33 0 7.64438e-33 0
11.7094 1.15168e-07 3.81771e-08 7.6991e-08 0.66851 -0.0238769 0 0 0 0 0 0 4.49817e-43 0 6.04408e-41 0 2.14884e-39 0 3.51893e-38 0 3.38969e-37 0 2.2836e-36 0 1.15716e-35 0 4.84203e-35 0 1.70025e-34 0 5.23953e-34 0 1.47416e-33 0 3.6967e-33 0 8.81976e-33 0 1.95064e-32 0 4.07189e-32 0 8.04505e-32 0 1.52881e-31 0 2.76184e-31 0
12.3105 1.01759e-07 3.60519e-08 6.57069e-08 0.645712 -0.0403882 0 0 0 0 3.92364e-44 0 5.01679e-41 0 5.30181e-39 0 1.58337e-37 0 2.26207e-36 0 1.95086e-35 0 1.19739e-34 0 5.60529e-34 0 2.18718e-33 0 7.22332e-33 0 2.10694e-32 0 5.63597e-32 0 1.35128e-31 0 3.08993e-31 0 6.57415e-31 0 1.32389e-30 0 2.53015e-30 0 4.65971e-30 0 8.17828e-30 0
12.9424 8.93389e-08 3.3767e-08 5.55719e-08 0.622035 -0.0541922 0 0 0 0 4.77563e-42 0 4.33906e-39 0 3.65234e-37 0 9.24075e-36 0 1.15942e-34 0 9.00069e-34 0 5.05607e-33 0 2.19505e-32 0 8.01422e-32 0 2.49679e-31 0 6.9119e-31 0 1.76218e-30 0 4.04842e-30 0 8.89103e-30 0 1.8232e-29 0 3.54817e-29 0 6.56997e-29 0 1.17443e-28 0 2.00541e-28 0
13.6067 7.79623e-08 3.15421e-08 4.64202e-08 0.595418 -0.0664722 0 0 1.4013e-45 0 4.54958e-40 0 2.96434e-37 0 2.0096e-35 0 4.34248e-34 0 4.81546e-33 0 3.38233e-32 0 1.74646e-31 0 7.05763e-31 0 2.41889e-30 0 7.1292e-30 0 1.87787e-29 0 4.57377e-29 0 1.00895e-28 0 2.13234e-28 0 4.22193e-28 0 7.95358e-28 0 1.42909e-27 0 2.48317e-27 0 4.13082e-27 0
14.3051 6.78501e-08 2.94771e-08 3.8373e-08 0.565556 -0.077403 0 0 2.00386e-43 0 3.41796e-38 0 1.62306e-35 0 8.95591e-34 0 1.66562e-32 0 1.64233e-31 0 1.04883e-30 0 4.99849e-30 0 1.88681e-29 0 6.08928e-29 0 1.70244e-28 0 4.2772e-28 0 9.97454e-28 0 2.11697e-27 0 4.31353e-27 0 8.26043e-27 0 1.50878e-26 0 2.63449e-26 0 4.45582e-26 0 7.23047e-26 0
15.0394 5.90781e-08 2.76119e-08 3.14662e-08 0.532621 -0.0870803 0 0 2.16725e-41 0 2.05235e-36 0 7.21338e-34 0 3.27245e-32 0 5.27667e-31 0 4.65285e-30 0 2.71424e-29 0 1.1986e-28 0 4.24029e-28 0 1.29238e-27 0 3.43633e-27 0 8.25372e-27 0 1.84684e-26 0 3.77827e-26 0 7.43565e-26 0 1.37947e-25 0 2.4466e-25 0 4.15732e-25 0 6.85335e-25 0 1.08612e-24 0
15.8114 5.16438e-08 2.59868e-08 2.56571e-08 0.496808 -0.0955568 5.60519e-45 0 1.84454e-39 0 9.98291e-35 0 2.63538e-32 0 9.92408e-31 0 1.39708e-29 0 1.10771e-28 0 5.92869e-28 0 2.43495e-27 0 8.09883e-27 0 2.33769e-26 0 5.92592e-26 0 1.36373e-25 0 2.93381e-25 0 5.79586e-25 0 1.10354e-24 0 1.98645e-24 0 3.42592e-24 0 5.67267e-24 0 9.12593e-24 0 1.41412e-23 0
