# 6.3096e-05 0 130 : grain size, compostion index, size index
# Heating and cooling timescale: 0.000502086 3.7883e+06
# Ratio of heating to cooling to determine stochastic cutoff: 100
# Equilibrium emission is recorded even for those grains in the stochastic regime.
# Emission spectrum was computed for: 
# Type: IRSF
# Scales: 0.25 0.5 1 1.5 2 2.5 3 3.5 4 4.5 5 5.5 6 6.5 7 7.5 8 8.5 9 9.5 10
# StochasticallyHeated: 0 0 0 0 0 0 0 0 0 0 0 0 0 0 0 0 0 0 0 0 0
# Temperature: -1
# Wavelength  CExt  CAbs  CSca  Albedo G EqEm1 StEm1 EqEm2 StEm2 EqEm3 StEm3 EqEm4 StEm4 EqEm5 StEm5 EqEm6 StEm6 EqEm7 StEm7 EqEm8 StEm8 EqEm9 StEm9 EqEm10 StEm10 EqEm11 StEm11 EqEm12 StEm12 EqEm13 StEm13 EqEm14 StEm14 EqEm15 StEm15 EqEm16 StEm16 EqEm17 StEm17 EqEm18 StEm18 EqEm19 StEm19 EqEm20 StEm20 EqEm21 StEm21
0.05 6.84725e-09 2.6055e-09 4.24175e-09 0.619482 0.00576547 0 0 0 0 0 0 0 0 0 0 0 0 0 0 0 0 0 0 0 0 0 0 0 0 0 0 0 0 0 0 0 0 0 0 0 0 0 0 0 0 0 0
0.0525665 7.56823e-09 2.87985e-09 4.68839e-09 0.619482 0.00637255 0 0 0 0 0 0 0 0 0 0 0 0 0 0 0 0 0 0 0 0 0 0 0 0 0 0 0 0 0 0 0 0 0 0 0 0 0 0 0 0 0 0
0.0552647 8.36513e-09 3.18308e-09 5.18205e-09 0.619482 0.00704355 0 0 0 0 0 0 0 0 0 0 0 0 0 0 0 0 0 0 0 0 0 0 0 0 0 0 0 0 0 0 0 0 0 0 0 0 0 0 0 0 0 0
0.0581015 9.24594e-09 3.51824e-09 5.7277e-09 0.619482 0.0077852 0 0 0 0 0 0 0 0 0 0 0 0 0 0 0 0 0 0 0 0 0 0 0 0 0 0 0 0 0 0 0 0 0 0 0 0 0 0 0 0 0 0
0.0610839 1.02195e-08 3.8887e-09 6.3308e-09 0.619482 0.00860494 0 0 0 0 0 0 0 0 0 0 0 0 0 0 0 0 0 0 0 0 0 0 0 0 0 0 0 0 0 0 0 0 0 0 0 0 0 0 0 0 0 0
0.0642193 1.12956e-08 4.29816e-09 6.9974e-09 0.619482 0.009511 0 0 0 0 0 0 0 0 0 0 0 0 0 0 0 0 0 0 0 0 0 0 0 0 0 0 0 0 0 0 0 0 0 0 0 0 0 0 0 0 0 0
0.0675157 1.24849e-08 4.75073e-09 7.73419e-09 0.619482 0.0105125 0 0 0 0 0 0 0 0 0 0 0 0 0 0 0 0 0 0 0 0 0 0 0 0 0 0 0 0 0 0 0 0 0 0 0 0 0 0 0 0 0 0
0.0709813 1.37995e-08 5.25096e-09 8.54856e-09 0.619482 0.0116194 0 0 0 0 0 0 0 0 0 0 0 0 0 0 0 0 0 0 0 0 0 0 0 0 0 0 0 0 0 0 0 0 0 0 0 0 0 0 0 0 0 0
0.0746248 1.52525e-08 5.80386e-09 9.44868e-09 0.619482 0.0128428 0 0 0 0 0 0 0 0 0 0 0 0 0 0 0 0 0 0 0 0 0 0 0 0 0 0 0 0 0 0 0 0 0 0 0 0 0 0 0 0 0 0
0.0784553 1.68586e-08 6.41498e-09 1.04436e-08 0.619482 0.0141951 0 0 0 0 0 0 0 0 0 0 0 0 0 0 0 0 0 0 0 0 0 0 0 0 0 0 0 0 0 0 0 0 0 0 0 0 0 0 0 0 0 0
0.0824824 1.86337e-08 7.09045e-09 1.15432e-08 0.619482 0.0156898 0 0 0 0 0 0 0 0 0 0 0 0 0 0 0 0 0 0 0 0 0 0 0 0 0 0 0 0 0 0 0 0 0 0 0 0 0 0 0 0 0 0
0.0867162 2.05957e-08 7.83704e-09 1.27587e-08 0.619482 0.0173419 0 0 0 0 0 0 0 0 0 0 0 0 0 0 0 0 0 0 0 0 0 0 0 0 0 0 0 0 0 0 0 0 0 0 0 0 0 0 0 0 0 0
0.0911674 2.27644e-08 8.66225e-09 1.41021e-08 0.619482 0.0191679 0 0 0 0 0 0 0 0 0 0 0 0 0 0 0 0 0 0 0 0 0 0 0 0 0 0 0 0 0 0 0 0 0 0 0 0 0 0 0 0 0 0
0.095847 2.51613e-08 9.57434e-09 1.5587e-08 0.619482 0.0211862 0 0 0 0 0 0 0 0 0 0 0 0 0 0 0 0 0 0 0 0 0 0 0 0 0 0 0 0 0 0 0 0 0 0 0 0 0 0 0 0 0 0
0.100767 2.73794e-08 1.04987e-08 1.68807e-08 0.616548 0.0235692 0 0 0 0 0 0 0 0 0 0 0 0 0 0 0 0 0 0 0 0 0 0 0 0 0 0 0 0 0 0 0 0 0 0 0 0 0 0 0 0 0 0
0.105939 2.73524e-08 1.09397e-08 1.64128e-08 0.600048 0.0256046 0 0 0 0 0 0 0 0 0 0 0 0 0 0 0 0 0 0 0 0 0 0 0 0 0 0 0 0 0 0 0 0 0 0 0 0 0 0 0 0 0 0
0.111377 2.7391e-08 1.10633e-08 1.63277e-08 0.596096 0.0289403 0 0 0 0 0 0 0 0 0 0 0 0 0 0 0 0 0 0 0 0 0 0 0 0 0 0 0 0 0 0 0 0 0 0 0 0 0 0 0 0 0 0
0.117094 2.737e-08 1.14384e-08 1.59316e-08 0.582081 0.0274507 0 0 0 0 0 0 0 0 0 0 0 0 0 0 0 0 0 0 0 0 0 0 0 0 0 0 0 0 0 0 0 0 0 0 0 0 0 0 0 0 0 0
0.123105 2.73976e-08 1.18953e-08 1.55023e-08 0.565826 0.0236555 0 0 0 0 0 0 0 0 0 0 0 0 0 0 0 0 0 0 0 0 0 0 0 0 0 0 0 0 0 0 0 0 0 0 0 0 0 0 0 0 0 0
0.129424 2.74555e-08 1.2266e-08 1.51894e-08 0.553238 0.0199126 0 0 0 0 0 0 0 0 0 0 0 0 0 0 0 0 0 0 0 0 0 0 0 0 0 0 0 0 0 0 0 0 0 0 0 0 0 0 0 0 0 0
0.136067 2.75159e-08 1.25733e-08 1.49426e-08 0.543052 0.0168557 0 0 0 0 0 0 0 0 0 0 0 0 0 0 0 0 0 0 0 0 0 0 0 0 0 0 0 0 0 0 0 0 0 0 0 0 0 0 0 0 0 0
0.143051 2.75629e-08 1.2837e-08 1.47259e-08 0.534266 0.0143876 0 0 0 0 0 0 0 0 0 0 0 0 0 0 0 0 0 0 0 0 0 0 0 0 0 0 0 0 0 0 0 0 0 0 0 0 0 0 0 0 0 0
0.150394 2.75761e-08 1.30519e-08 1.45242e-08 0.526695 0.0122986 0 0 0 0 0 0 0 0 0 0 0 0 0 0 0 0 0 0 0 0 0 0 0 0 0 0 0 0 0 0 0 0 0 0 0 0 0 0 0 0 0 0
0.158114 2.75235e-08 1.31785e-08 1.4345e-08 0.521191 0.01055 0 0 0 0 0 0 0 0 0 0 0 0 0 0 0 0 0 0 0 0 0 0 0 0 0 0 0 0 0 0 0 0 0 0 0 0 0 0 0 0 0 0
0.16623 2.73928e-08 1.31438e-08 1.4249e-08 0.520173 0.00908216 0 0 0 0 0 0 0 0 0 0 0 0 0 0 0 0 0 0 0 0 0 0 0 0 0 0 0 0 0 0 0 0 0 0 0 0 0 0 0 0 0 0
0.174762 2.72749e-08 1.29174e-08 1.43575e-08 0.526401 0.00782097 0 0 0 0 0 0 0 0 0 0 0 0 0 0 0 0 0 0 0 0 0 0 0 0 0 0 0 0 0 0 0 0 0 0 0 0 0 0 0 0 0 0
0.183733 2.73022e-08 1.24822e-08 1.482e-08 0.542812 0.00667218 0 0 0 0 0 0 0 0 0 0 0 0 0 0 0 0 0 0 0 0 0 0 0 0 0 0 0 0 0 0 0 0 0 0 0 0 0 0 0 0 0 0
0.193164 2.75918e-08 1.18352e-08 1.57566e-08 0.571061 0.00556038 0 0 0 0 0 0 0 0 0 0 0 0 0 0 0 0 0 0 0 0 0 0 0 0 0 0 0 0 0 0 0 0 0 0 0 0 0 0 0 0 0 0
0.203079 2.80993e-08 1.11281e-08 1.69712e-08 0.603972 0.00446034 0 0 0 0 0 0 0 0 0 0 0 0 0 0 0 0 0 0 0 0 0 0 0 0 0 0 0 0 0 0 0 0 0 0 0 0 0 0 0 0 0 0
0.213503 2.87215e-08 1.05748e-08 1.81467e-08 0.631817 0.00342932 0 0 0 0 0 0 0 0 0 0 0 0 0 0 0 0 0 0 0 0 0 0 0 0 0 0 0 0 0 0 0 0 0 0 0 0 0 0 0 0 0 0
0.224463 2.93621e-08 1.02926e-08 1.90695e-08 0.649461 0.00254317 0 0 0 0 0 0 0 0 0 0 0 0 0 0 0 0 0 0 0 0 0 0 0 0 0 0 0 0 0 0 0 0 0 0 0 0 0 0 0 0 0 0
0.235984 2.98931e-08 1.0232e-08 1.96611e-08 0.657713 0.00182186 0 0 0 0 0 0 0 0 0 0 0 0 0 0 0 0 0 0 0 0 0 0 0 0 0 0 0 0 0 0 0 0 0 0 0 0 0 0 0 0 0 0
0.248097 3.0179e-08 1.02726e-08 1.99064e-08 0.65961 0.00138916 0 0 0 0 0 0 0 0 0 0 0 0 0 0 0 0 0 0 0 0 0 0 0 0 0 0 0 0 0 0 0 0 0 0 0 0 0 0 0 0 0 0
0.260832 3.01598e-08 1.03789e-08 1.97809e-08 0.655869 0.00141961 0 0 0 0 0 0 0 0 0 0 0 0 0 0 0 0 0 0 0 0 0 0 0 0 0 0 0 0 0 0 0 0 0 0 0 0 0 0 0 0 0 0
0.274221 2.99312e-08 1.06062e-08 1.93249e-08 0.645646 0.00187131 0 0 0 0 0 0 0 0 0 0 0 0 0 0 0 0 0 0 0 0 0 0 0 0 0 0 0 0 0 0 0 0 0 0 0 0 0 0 0 0 0 0
0.288297 2.96961e-08 1.09852e-08 1.87109e-08 0.63008 0.00251556 0 0 0 0 0 0 0 0 0 0 0 0 0 0 0 0 0 0 0 0 0 0 0 0 0 0 0 0 0 0 0 0 0 0 0 0 0 0 0 0 0 0
0.303095 2.9591e-08 1.14345e-08 1.81565e-08 0.613583 0.0028362 0 0 0 0 0 0 0 0 0 0 0 0 0 0 0 0 0 0 0 0 0 0 0 0 0 0 0 0 0 0 0 0 0 0 0 0 0 0 0 0 0 0
0.318653 2.96072e-08 1.18571e-08 1.775e-08 0.599519 0.00297223 0 0 0 0 0 0 0 0 0 0 0 0 0 0 0 0 0 0 0 0 0 0 0 0 0 0 0 0 0 0 0 0 0 0 0 0 0 0 0 0 0 0
0.335009 2.96965e-08 1.22084e-08 1.74881e-08 0.588895 0.00293231 0 0 0 0 0 0 0 0 0 0 0 0 0 0 0 0 0 0 0 0 0 0 0 0 0 0 0 0 0 0 0 0 0 0 0 0 0 0 0 0 0 0
0.352205 2.98246e-08 1.24844e-08 1.73402e-08 0.581406 0.00278811 0 0 0 0 0 0 0 0 0 0 0 0 0 0 0 0 0 0 0 0 0 0 0 0 0 0 0 0 0 0 0 0 0 0 0 0 0 0 0 0 0 0
0.370284 2.99739e-08 1.26947e-08 1.72792e-08 0.576474 0.00261033 0 0 0 0 0 0 0 0 0 0 0 0 0 0 0 0 0 0 0 0 0 0 0 0 0 0 0 0 0 0 0 0 0 0 0 0 0 0 0 0 0 0
0.389291 3.01315e-08 1.28541e-08 1.72774e-08 0.573399 0.00243645 0 0 0 0 0 0 0 0 0 0 0 0 0 0 0 0 0 0 0 0 0 0 0 0 0 0 0 0 0 0 0 0 0 0 0 0 0 0 0 0 0 0
0.409273 3.02937e-08 1.29812e-08 1.73125e-08 0.571488 0.00226652 0 0 0 0 0 0 0 0 0 0 0 0 0 0 0 0 0 0 0 0 0 0 0 0 0 0 0 0 0 0 0 0 0 0 0 0 0 0 0 0 0 0
0.430281 3.04588e-08 1.30935e-08 1.73653e-08 0.570123 0.00210471 0 0 0 0 0 0 0 0 0 0 0 0 0 0 0 0 0 0 0 0 0 0 0 0 0 0 0 0 0 0 0 0 0 0 0 0 0 0 0 0 0 0
0.452368 3.06214e-08 1.32011e-08 1.74204e-08 0.568895 0.00193723 0 0 0 0 0 0 0 0 0 0 0 0 0 0 0 0 0 0 0 0 0 0 0 0 0 0 0 0 0 0 0 0 0 0 0 0 0 0 0 0 0 0
0.475588 3.07849e-08 1.33121e-08 1.74728e-08 0.567577 0.00177642 0 0 0 0 0 0 0 0 0 0 0 0 0 0 0 0 0 0 0 0 0 0 0 0 0 0 0 0 0 0 0 0 0 0 0 0 0 0 0 0 0 0
0.5 3.09504e-08 1.34301e-08 1.75203e-08 0.566076 0.00162159 0 0 0 0 0 0 0 0 0 0 0 0 0 0 0 0 0 0 0 0 0 0 0 0 0 0 0 0 0 0 0 0 0 0 0 0 0 0 0 0 0 0
0.525665 3.11214e-08 1.35555e-08 1.75659e-08 0.564433 0.0014751 0 0 0 0 0 0 0 0 0 0 0 0 0 0 0 0 0 0 0 0 0 0 0 0 0 0 0 0 0 0 0 0 0 0 0 0 0 0 0 0 0 0
0.552648 3.12972e-08 1.36862e-08 1.7611e-08 0.562702 0.00134175 0 0 0 0 0 0 0 0 0 0 0 0 0 0 0 0 0 0 0 0 0 0 0 0 0 0 0 0 0 0 0 0 0 0 0 0 0 0 0 0 0 0
0.581015 3.148e-08 1.38186e-08 1.76614e-08 0.561035 0.00121775 0 0 0 0 0 0 0 0 0 0 0 0 0 0 0 0 0 0 0 0 0 0 0 0 0 0 0 0 0 0 0 0 0 0 0 0 0 0 0 0 0 0
0.610839 3.16714e-08 1.39531e-08 1.77183e-08 0.559441 0.00110516 0 0 0 0 0 0 0 0 0 0 0 0 0 0 0 0 0 0 0 0 0 0 0 0 0 0 0 0 0 0 0 0 0 0 0 0 0 0 0 0 0 0
0.642193 3.18686e-08 1.4086e-08 1.77826e-08 0.557997 0.00100302 0 0 0 0 0 0 0 0 0 0 0 0 0 0 0 0 0 0 0 0 0 0 0 0 0 0 0 0 0 0 0 0 0 0 0 0 0 0 0 0 0 0
0.675157 3.20724e-08 1.42139e-08 1.78586e-08 0.55682 0.000910957 0 0 0 0 0 0 0 0 0 0 0 0 0 0 0 0 0 0 0 0 0 0 0 0 0 0 0 0 0 0 0 0 0 0 0 0 0 0 0 0 0 0
0.709813 3.22864e-08 1.43416e-08 1.79449e-08 0.555802 0.00082817 0 0 0 0 0 0 0 0 0 0 0 0 0 0 0 0 0 0 0 0 0 0 0 0 0 0 0 0 0 0 0 0 0 0 0 0 0 0 0 0 0 0
0.746248 3.25022e-08 1.44618e-08 1.80404e-08 0.555051 0.000754183 0 0 0 0 0 0 0 0 0 0 0 0 0 0 0 0 0 0 0 0 0 0 0 0 0 0 0 0 0 0 0 0 0 0 0 0 0 0 0 0 0 0
0.784553 3.2718e-08 1.45697e-08 1.81483e-08 0.554687 0.000686995 0 0 0 0 0 0 0 0 0 0 0 0 0 0 0 0 0 0 0 0 0 0 0 0 0 0 0 0 0 0 0 0 0 0 0 0 0 0 0 0 0 0
0.824824 3.29473e-08 1.46779e-08 1.82694e-08 0.554505 0.000626788 0 0 0 0 0 0 0 0 0 0 0 0 0 0 0 0 0 0 0 0 0 0 0 0 0 0 0 0 0 0 0 0 0 0 0 0 0 0 0 0 0 0
0.867162 3.31812e-08 1.47868e-08 1.83944e-08 0.554363 0.000572518 0 0 0 0 0 0 0 0 0 0 0 0 0 0 0 0 0 0 0 0 0 0 0 0 0 0 0 0 0 0 0 0 0 0 0 0 0 0 0 0 0 0
0.911674 3.34027e-08 1.48794e-08 1.85233e-08 0.554545 0.000523427 0 0 0 0 0 0 0 0 0 0 0 0 0 0 0 0 0 0 0 0 0 0 0 0 0 0 0 0 0 0 0 0 0 0 0 0 0 0 0 0 0 0
0.95847 3.3621e-08 1.49567e-08 1.86643e-08 0.555138 0.00047944 0 0 0 0 0 0 0 0 0 0 0 0 0 0 0 0 0 0 0 0 0 0 0 0 0 0 0 0 0 0 0 0 0 0 0 0 0 0 0 0 0 0
1.00767 3.38609e-08 1.5042e-08 1.8819e-08 0.555772 0.0004395 0 0 0 0 0 0 0 0 0 0 0 0 0 0 0 0 0 0 0 0 0 0 0 0 0 0 0 0 0 0 0 0 0 0 0 0 0 0 0 0 0 0
1.05939 3.41097e-08 1.5141e-08 1.89686e-08 0.556107 0.000403275 0 0 0 0 0 0 0 0 0 0 0 0 0 0 0 0 0 0 0 0 0 0 0 0 0 0 0 0 0 0 0 0 0 0 0 0 0 0 0 0 0 0
1.11377 3.43286e-08 1.52258e-08 1.91028e-08 0.556468 0.000370298 0 0 0 0 0 0 0 0 0 0 0 0 0 0 0 0 0 0 0 0 0 0 0 0 0 0 0 0 0 0 0 0 0 0 0 0 0 0 0 0 0 0
1.17094 3.45142e-08 1.52769e-08 1.92373e-08 0.557374 0.000339515 0 0 0 0 0 0 0 0 0 0 0 0 0 0 0 0 0 0 0 0 0 0 0 0 0 0 0 0 0 0 0 0 0 0 0 0 0 0 0 0 0 0
1.23105 3.47115e-08 1.53183e-08 1.93932e-08 0.558696 0.000311294 0 0 0 0 0 0 0 0 0 0 0 0 0 0 0 0 0 0 0 0 0 0 0 0 0 0 0 0 0 0 0 0 0 0 0 0 0 0 0 0 0 0
1.29424 3.49564e-08 1.53891e-08 1.95672e-08 0.559762 0.000285362 0 0 0 0 0 0 0 0 0 0 0 0 0 0 0 0 0 0 0 0 0 0 0 0 0 0 0 0 0 0 0 0 0 0 0 0 0 0 0 0 0 0
1.36067 3.5225e-08 1.54968e-08 1.97282e-08 0.560062 0.000261742 0 0 0 0 0 0 0 0 0 0 0 0 0 0 0 0 0 0 0 0 0 0 0 0 0 0 0 0 0 0 0 0 0 0 0 0 0 0 0 0 0 0
1.43051 3.54523e-08 1.56071e-08 1.98451e-08 0.559771 0.000240209 0 0 0 0 0 0 0 0 0 0 0 0 0 0 0 0 0 0 0 0 0 0 0 0 0 0 0 0 0 0 0 0 0 0 0 0 0 0 0 0 0 0
1.50394 3.55928e-08 1.56715e-08 1.99213e-08 0.5597 0.000220279 0 0 0 0 0 0 0 0 0 0 0 0 0 0 0 0 0 0 0 0 0 0 0 0 0 0 0 0 0 0 0 0 0 0 0 0 0 0 0 0 0 0
1.58114 3.56804e-08 1.56834e-08 1.9997e-08 0.560449 0.000201732 0 0 0 0 0 0 0 0 0 0 0 0 0 0 0 0 0 0 0 0 0 0 0 0 0 0 0 0 0 0 0 0 0 0 0 0 0 0 0 0 0 0
1.6623 3.57938e-08 1.56803e-08 2.01134e-08 0.561926 0.000184534 0 0 0 0 0 0 0 0 0 0 0 0 0 0 0 0 0 0 0 0 0 0 0 0 0 0 0 0 0 0 0 0 0 0 0 0 0 0 0 0 0 0
1.74763 3.60026e-08 1.57201e-08 2.02825e-08 0.563363 0.000169005 0 0 0 0 0 0 0 0 0 0 0 0 0 0 0 0 0 0 0 0 0 0 0 0 0 0 0 0 0 0 0 0 0 0 0 0 0 0 0 0 0 0
1.83733 3.63086e-08 1.5836e-08 2.04726e-08 0.56385 0.000154804 0 0 0 0 0 0 0 0 0 0 0 0 0 0 0 0 0 0 0 0 0 0 0 0 0 0 0 0 0 0 0 0 0 0 0 0 0 0 0 0 0 0
1.93164 3.6642e-08 1.60157e-08 2.06263e-08 0.562915 0.000141793 0 0 0 0 0 0 0 0 0 0 0 0 0 0 0 0 0 0 0 0 0 0 0 0 0 0 0 0 0 0 0 0 0 0 0 0 0 0 0 0 0 0
2.03079 3.69005e-08 1.6212e-08 2.06885e-08 0.560656 0.000129725 0 0 0 0 0 0 0 0 0 0 0 0 0 0 0 0 0 0 0 0 0 0 0 0 0 0 0 0 0 0 0 0 0 0 0 0 0 0 0 0 0 0
2.13503 3.7003e-08 1.63668e-08 2.06362e-08 0.557689 0.000118657 0 0 0 0 0 0 0 0 0 0 0 0 0 0 0 0 0 0 0 0 0 0 0 0 0 0 0 0 0 0 0 0 0 0 0 0 0 0 0 0 0 0
2.24463 3.69297e-08 1.64372e-08 2.04926e-08 0.554907 0.000108569 0 0 0 0 0 0 0 0 0 0 0 0 0 0 0 0 0 0 0 0 0 0 0 0 0 0 0 0 0 0 0 0 0 0 0 0 0 0 0 0 0 0
2.35984 3.67362e-08 1.64207e-08 2.03156e-08 0.553011 9.92926e-05 0 0 0 0 0 0 0 0 0 0 0 0 0 0 0 0 0 0 0 0 0 0 0 0 0 0 0 0 0 0 0 0 0 0 0 0 0 0 0 0 0 0
2.48097 3.65307e-08 1.6352e-08 2.01787e-08 0.552377 9.07218e-05 0 0 0 0 0 0 0 0 0 0 0 0 0 0 0 0 0 0 0 0 0 0 0 0 0 0 0 0 0 0 0 0 0 0 0 0 0 0 0 0 0 0
2.60832 3.64217e-08 1.62886e-08 2.0133e-08 0.552776 8.27967e-05 0 0 0 0 0 0 0 0 0 0 0 0 0 0 0 0 0 0 0 0 0 0 0 0 0 0 0 0 0 0 0 0 0 0 0 0 0 0 0 0 0 0
2.74221 3.64855e-08 1.62886e-08 2.01969e-08 0.55356 7.55862e-05 0 0 0 0 0 0 0 0 0 0 0 0 0 0 0 0 0 0 0 0 0 0 0 0 0 0 0 0 0 0 0 0 0 0 0 0 0 0 0 0 0 0
2.88297 3.67376e-08 1.63893e-08 2.03483e-08 0.553883 6.90729e-05 0 0 0 0 0 0 0 0 0 0 0 0 0 0 0 0 0 0 0 0 0 0 0 0 0 0 0 0 0 0 0 0 0 0 0 0 0 0 0 0 0 0
3.03095 3.71487e-08 1.66099e-08 2.05388e-08 0.552882 6.31538e-05 0 0 0 0 0 0 0 0 0 0 0 0 0 0 0 0 0 0 0 0 0 0 0 0 0 0 0 0 0 0 0 0 0 0 0 0 0 0 0 0 0 0
3.18653 3.76563e-08 1.69466e-08 2.07097e-08 0.549966 5.76567e-05 0 0 0 0 0 0 0 0 0 0 0 0 0 0 0 0 0 0 0 0 0 0 0 0 0 0 0 0 0 0 0 0 0 0 0 0 0 0 0 0 0 0
3.35009 3.81838e-08 1.73785e-08 2.08053e-08 0.544873 5.2603e-05 0 0 0 0 0 0 0 0 0 0 0 0 0 0 0 0 0 0 0 0 0 0 0 0 0 0 0 0 0 0 0 0 0 0 0 0 0 0 0 0 0 0
3.52205 3.8656e-08 1.78766e-08 2.07793e-08 0.537546 4.80102e-05 0 0 0 0 0 0 0 0 0 0 0 0 0 0 0 0 0 0 0 0 0 0 0 0 0 0 0 0 0 0 0 0 0 0 0 0 0 0 0 0 0 0
3.70284 3.89986e-08 1.8397e-08 2.06016e-08 0.528265 4.38066e-05 0 0 0 0 0 0 0 0 0 0 0 0 0 0 0 0 0 0 0 0 0 0 0 0 0 0 0 0 0 0 0 0 0 0 0 0 0 0 0 0 0 0
3.89291 3.91459e-08 1.88886e-08 2.02573e-08 0.517482 3.9926e-05 0 0 0 0 0 0 0 0 0 0 0 0 0 0 0 0 0 0 0 0 0 0 0 0 0 0 0 0 0 0 0 0 0 0 0 0 0 0 0 0 0 0
4.09273 3.90181e-08 1.92859e-08 1.97322e-08 0.505719 3.62643e-05 0 0 0 0 0 0 0 0 0 0 0 0 0 0 0 0 0 0 0 0 0 0 0 0 0 0 0 0 0 0 0 0 0 0 0 0 0 0 0 0 0 0
4.30281 3.85297e-08 1.95195e-08 1.90102e-08 0.493391 3.29535e-05 0 0 0 0 0 0 0 0 0 0 0 0 0 0 0 0 0 0 0 0 0 0 0 0 0 0 0 0 0 0 0 0 0 0 0 0 0 0 0 0 0 0
4.52368 3.75803e-08 1.95221e-08 1.80582e-08 0.480523 2.99416e-05 0 0 0 0 0 0 0 0 0 0 0 0 0 0 0 0 0 0 0 0 0 0 0 0 0 0 0 0 0 0 0 0 0 0 0 0 0 0 0 0 0 0
4.75588 3.61011e-08 1.92606e-08 1.68405e-08 0.466482 2.71796e-05 0 0 0 0 0 0 0 0 0 0 0 0 0 0 0 0 0 0 0 0 0 0 0 0 0 0 0 0 0 0 0 0 0 0 0 0 0 0 0 0 0 0
5 3.4125e-08 1.87724e-08 1.53526e-08 0.449893 2.45398e-05 0 0 0 0 0 0 0 0 0 0 0 0 0 0 0 0 0 0 0 0 0 0 0 0 0 0 0 0 0 0 0 0 0 0 0 0 0 0 0 0 0 0
5.25665 3.17954e-08 1.81562e-08 1.36392e-08 0.428968 2.21678e-05 0 0 0 0 0 0 0 0 0 0 0 0 0 0 0 0 0 0 0 0 0 0 0 0 0 0 0 0 0 0 0 0 0 0 0 0 0 0 0 0 0 0
5.52648 2.93695e-08 1.75584e-08 1.18111e-08 0.402156 2.00489e-05 0 0 0 0 0 0 0 0 0 0 0 0 0 0 0 0 0 0 0 0 0 0 0 0 0 0 0 0 0 0 0 0 0 0 0 0 0 0 1.4013e-45 0 4.2039e-45 0
5.81015 2.70758e-08 1.70758e-08 9.99997e-09 0.369333 1.8115e-05 0 0 0 0 0 0 0 0 0 0 0 0 0 0 0 0 0 0 0 0 0 0 0 0 0 0 0 0 1.4013e-45 0 2.8026e-45 0 9.80909e-45 0 3.36312e-44 0 1.00893e-43 0 2.88667e-43 0 7.48293e-43 0
6.10839 2.50114e-08 1.67009e-08 8.31052e-09 0.33227 1.63023e-05 0 0 0 0 0 0 0 0 0 0 0 0 0 0 0 0 0 0 0 0 0 0 1.4013e-45 0 7.00649e-45 0 3.36312e-44 0 1.35926e-43 0 5.01665e-43 0 1.65493e-42 0 5.05588e-42 0 1.43395e-41 0 3.8858e-41 0 9.6045e-41 0
6.42193 2.32774e-08 1.64609e-08 6.81653e-09 0.292839 1.48144e-05 0 0 0 0 0 0 0 0 0 0 0 0 0 0 0 0 0 0 5.60519e-45 0 3.78351e-44 0 2.32616e-43 0 1.14906e-42 0 5.00964e-42 0 1.88671e-41 0 6.52823e-41 0 2.03387e-40 0 5.88234e-40 0 1.58559e-39 0 4.09258e-39 0 9.67836e-39 0
6.75157 2.12971e-08 1.57961e-08 5.50104e-09 0.2583 1.32279e-05 0 0 0 0 0 0 0 0 0 0 0 0 0 0 7.00649e-45 0 8.96831e-44 0 7.81925e-43 0 5.45666e-42 0 3.01601e-41 0 1.38183e-40 0 5.60367e-40 0 1.97839e-39 0 6.44284e-39 0 1.89892e-38 0 5.21452e-38 0 1.33915e-37 0 3.30012e-37 0 7.48313e-37 0
7.09813 1.9186e-08 1.47899e-08 4.39613e-09 0.229132 1.18448e-05 0 0 0 0 0 0 0 0 0 0 1.4013e-45 0 6.16571e-44 0 1.03556e-42 0 1.1691e-41 0 9.21073e-41 0 5.84805e-40 0 2.97326e-39 0 1.26466e-38 0 4.78964e-38 0 1.59e-37 0 4.88793e-37 0 1.36658e-36 0 3.5721e-36 0 8.76071e-36 0 2.06593e-35 0 4.50101e-35 0
7.46248 1.68123e-08 1.33336e-08 3.47869e-09 0.206914 1.05694e-05 0 0 0 0 0 0 0 0 4.2039e-45 0 2.87266e-43 0 7.73937e-42 0 1.14148e-40 0 1.14452e-39 0 8.15223e-39 0 4.72935e-38 0 2.22097e-37 0 8.80207e-37 0 3.12377e-36 0 9.77981e-36 0 2.84608e-35 0 7.56757e-35 0 1.88743e-34 0 4.43062e-34 0 1.00196e-33 0 2.10151e-33 0
7.84553 1.42918e-08 1.15578e-08 2.73407e-09 0.191303 9.34187e-06 0 0 0 0 0 0 2.8026e-45 0 6.19374e-43 0 3.18431e-41 0 7.30564e-40 0 9.44806e-39 0 8.46486e-38 0 5.47825e-37 0 2.91668e-36 0 1.27008e-35 0 4.70626e-35 0 1.57004e-34 0 4.64904e-34 0 1.28419e-33 0 3.25539e-33 0 7.76494e-33 0 1.74839e-32 0 3.79945e-32 0 7.68594e-32 0
8.24824 1.18473e-08 9.70448e-09 2.14278e-09 0.180867 8.19911e-06 0 0 0 0 0 0 3.97969e-43 0 6.28496e-41 0 2.66556e-39 0 5.24815e-38 0 5.98981e-37 0 4.82166e-36 0 2.84853e-35 0 1.39768e-34 0 5.66444e-34 0 1.96892e-33 0 6.19323e-33 0 1.7392e-32 0 4.57164e-32 0 1.10745e-31 0 2.53177e-31 0 5.47916e-31 0 1.14641e-30 0 2.24066e-30 0
8.67162 9.65951e-09 7.9785e-09 1.68101e-09 0.174027 7.20916e-06 0 0 0 0 2.94273e-44 0 3.95559e-41 0 4.88092e-39 0 1.72397e-37 0 2.93466e-36 0 2.97398e-35 0 2.1622e-34 0 1.17127e-33 0 5.31763e-33 0 2.01277e-32 0 6.58334e-32 0 1.95811e-31 0 5.22849e-31 0 1.31101e-30 0 3.04155e-30 0 6.67827e-30 0 1.39182e-29 0 2.80901e-29 0 5.31351e-29 0
9.11674 7.81474e-09 6.49155e-09 1.32319e-09 0.16932 6.32492e-06 0 0 0 0 3.27483e-42 0 3.04261e-39 0 2.96778e-37 0 8.808e-36 0 1.30558e-34 0 1.18162e-33 0 7.79778e-33 0 3.88961e-32 0 1.64016e-31 0 5.81752e-31 0 1.79582e-30 0 5.06456e-30 0 1.28901e-29 0 3.09024e-29 0 6.88077e-29 0 1.45388e-28 0 2.92333e-28 0 5.7011e-28 0 1.04537e-27 0
9.5847 6.31807e-09 5.27196e-09 1.04611e-09 0.165575 5.52644e-06 0 0 1.4013e-45 0 2.77666e-40 0 1.84806e-37 0 1.44139e-35 0 3.62524e-34 0 4.71078e-33 0 3.82876e-32 0 2.30431e-31 0 1.06268e-30 0 4.17703e-30 0 1.39275e-29 0 4.06909e-29 0 1.09092e-28 0 2.65275e-28 0 6.09387e-28 0 1.30486e-27 0 2.65824e-27 0 5.16573e-27 0 9.75101e-27 0 1.73582e-26 0
10.0767 5.12894e-09 4.29797e-09 8.30965e-10 0.162015 4.78203e-06 0 0 1.82169e-43 0 1.86081e-38 0 9.01689e-36 0 5.68518e-34 0 1.22157e-32 0 1.40054e-31 0 1.02762e-30 0 5.66577e-30 0 2.42497e-29 0 8.91556e-29 0 2.80297e-28 0 7.77159e-28 0 1.9856e-27 0 4.62334e-27 0 1.01981e-26 0 2.10399e-26 0 4.13986e-26 0 7.78818e-26 0 1.42522e-25 0 2.46667e-25 0
10.5939 4.18879e-09 3.52626e-09 6.62534e-10 0.158168 4.06995e-06 0 0 1.71939e-41 0 9.99633e-37 0 3.58167e-34 0 1.84461e-32 0 3.41223e-31 0 3.4729e-30 0 2.31191e-29 0 1.17273e-28 0 4.67535e-28 0 1.61306e-27 0 4.79547e-27 0 1.26502e-26 0 3.08739e-26 0 6.89815e-26 0 1.46393e-25 0 2.91535e-25 0 5.54985e-25 0 1.01235e-24 0 1.79872e-24 0 3.03082e-24 0
11.1377 3.43286e-09 2.90351e-09 5.29353e-10 0.154202 3.40803e-06 9.80909e-45 0 1.27563e-39 0 4.34072e-35 0 1.16707e-32 0 4.95838e-31 0 7.95437e-30 0 7.22874e-29 0 4.38677e-28 0 2.0556e-27 0 7.66006e-27 0 2.48776e-26 0 7.01273e-26 0 1.76436e-25 0 4.1225e-25 0 8.85637e-25 0 1.81171e-24 0 3.48861e-24 0 6.43564e-24 0 1.13998e-23 0 1.96943e-23 0 3.235e-23 0
11.7094 3.01146e-09 2.58012e-09 4.31344e-10 0.143234 2.82232e-06 1.17849e-42 0 8.09899e-38 0 1.65578e-33 0 3.38782e-31 0 1.19857e-29 0 1.67913e-28 0 1.37008e-27 0 7.61369e-27 0 3.30856e-26 0 1.15621e-25 0 3.54517e-25 0 9.50039e-25 0 2.28495e-24 0 5.12219e-24 0 1.06008e-23 0 2.09408e-23 0 3.90538e-23 0 6.99229e-23 0 1.20448e-22 0 2.02606e-22 0 3.24835e-22 0
12.3105 2.44927e-09 2.10485e-09 3.44425e-10 0.140623 2.20615e-06 9.48469e-41 0 3.78595e-36 0 4.76746e-32 0 7.52275e-30 0 2.23617e-28 0 2.75392e-27 0 2.02816e-26 0 1.03654e-25 0 4.19253e-25 0 1.3783e-24 0 4.00116e-24 0 1.02185e-23 0 2.35459e-23 0 5.07432e-23 0 1.01353e-22 0 1.93668e-22 0 3.50358e-22 0 6.09702e-22 0 1.02275e-21 0 1.67723e-21 0 2.62781e-21 0
