# 5e-05 2 14 : grain size, compostion index, size index
# Heating and cooling timescale: 0.00163314 4.9328e+07
# Ratio of heating to cooling to determine stochastic cutoff: 100
# Equilibrium emission is recorded even for those grains in the stochastic regime.
# Emission spectrum was computed for: 
# Type: ISRF
# Scales: 0.25 0.5 1 1.5 2 2.5 3 3.5 4 4.5 5 5.5 6 6.5 7 7.5 8 8.5 9 9.5 10
# StochasticallyHeated: 0 0 0 0 0 0 0 0 0 0 0 0 0 0 0 0 0 0 0 0 0
# Temperature: -1
# Wavelength  CExt  CAbs  CSca  Albedo G EqEm1 StEm1 EqEm2 StEm2 EqEm3 StEm3 EqEm4 StEm4 EqEm5 StEm5 EqEm6 StEm6 EqEm7 StEm7 EqEm8 StEm8 EqEm9 StEm9 EqEm10 StEm10 EqEm11 StEm11 EqEm12 StEm12 EqEm13 StEm13 EqEm14 StEm14 EqEm15 StEm15 EqEm16 StEm16 EqEm17 StEm17 EqEm18 StEm18 EqEm19 StEm19 EqEm20 StEm20 EqEm21 StEm21
0.05 1.65402e-08 6.44868e-09 1.00915e-08 0.610121 0.874106 0 0 0 0 0 0 0 0 0 0 0 0 0 0 0 0 0 0 0 0 0 0 0 0 0 0 0 0 0 0 0 0 0 0 0 0 0 0 0 0 0 0
0.0525665 1.65625e-08 6.47687e-09 1.00857e-08 0.608944 0.874379 0 0 0 0 0 0 0 0 0 0 0 0 0 0 0 0 0 0 0 0 0 0 0 0 0 0 0 0 0 0 0 0 0 0 0 0 0 0 0 0 0 0
0.0552647 1.65857e-08 6.50647e-09 1.00793e-08 0.607707 0.874664 0 0 0 0 0 0 0 0 0 0 0 0 0 0 0 0 0 0 0 0 0 0 0 0 0 0 0 0 0 0 0 0 0 0 0 0 0 0 0 0 0 0
0.0581015 1.66098e-08 6.53761e-09 1.00722e-08 0.6064 0.874961 0 0 0 0 0 0 0 0 0 0 0 0 0 0 0 0 0 0 0 0 0 0 0 0 0 0 0 0 0 0 0 0 0 0 0 0 0 0 0 0 0 0
0.0610839 1.66352e-08 6.57033e-09 1.00649e-08 0.605036 0.875278 0 0 0 0 0 0 0 0 0 0 0 0 0 0 0 0 0 0 0 0 0 0 0 0 0 0 0 0 0 0 0 0 0 0 0 0 0 0 0 0 0 0
0.0642193 1.66623e-08 6.60469e-09 1.00576e-08 0.603615 0.875606 0 0 0 0 0 0 0 0 0 0 0 0 0 0 0 0 0 0 0 0 0 0 0 0 0 0 0 0 0 0 0 0 0 0 0 0 0 0 0 0 0 0
0.0675157 1.66904e-08 6.64086e-09 1.00495e-08 0.602115 0.875956 0 0 0 0 0 0 0 0 0 0 0 0 0 0 0 0 0 0 0 0 0 0 0 0 0 0 0 0 0 0 0 0 0 0 0 0 0 0 0 0 0 0
0.0709813 1.67198e-08 6.67892e-09 1.00408e-08 0.600537 0.876324 0 0 0 0 0 0 0 0 0 0 0 0 0 0 0 0 0 0 0 0 0 0 0 0 0 0 0 0 0 0 0 0 0 0 0 0 0 0 0 0 0 0
0.0746248 1.67509e-08 6.71891e-09 1.0032e-08 0.598894 0.876706 0 0 0 0 0 0 0 0 0 0 0 0 0 0 0 0 0 0 0 0 0 0 0 0 0 0 0 0 0 0 0 0 0 0 0 0 0 0 0 0 0 0
0.0784553 1.67839e-08 6.76093e-09 1.0023e-08 0.597177 0.877108 0 0 0 0 0 0 0 0 0 0 0 0 0 0 0 0 0 0 0 0 0 0 0 0 0 0 0 0 0 0 0 0 0 0 0 0 0 0 0 0 0 0
0.0824824 1.68184e-08 6.80513e-09 1.00133e-08 0.595377 0.877533 0 0 0 0 0 0 0 0 0 0 0 0 0 0 0 0 0 0 0 0 0 0 0 0 0 0 0 0 0 0 0 0 0 0 0 0 0 0 0 0 0 0
0.0867162 1.68544e-08 6.85158e-09 1.00029e-08 0.593485 0.877984 0 0 0 0 0 0 0 0 0 0 0 0 0 0 0 0 0 0 0 0 0 0 0 0 0 0 0 0 0 0 0 0 0 0 0 0 0 0 0 0 0 0
0.0911674 1.68924e-08 6.90043e-09 9.99198e-09 0.591507 0.87845 0 0 0 0 0 0 0 0 0 0 0 0 0 0 0 0 0 0 0 0 0 0 0 0 0 0 0 0 0 0 0 0 0 0 0 0 0 0 0 0 0 0
0.095847 1.69325e-08 6.95178e-09 9.9807e-09 0.589441 0.878942 0 0 0 0 0 0 0 0 0 0 0 0 0 0 0 0 0 0 0 0 0 0 0 0 0 0 0 0 0 0 0 0 0 0 0 0 0 0 0 0 0 0
0.100767 1.69744e-08 7.00577e-09 9.96864e-09 0.587275 0.87946 0 0 0 0 0 0 0 0 0 0 0 0 0 0 0 0 0 0 0 0 0 0 0 0 0 0 0 0 0 0 0 0 0 0 0 0 0 0 0 0 0 0
0.105939 1.70191e-08 7.06253e-09 9.95658e-09 0.585024 0.88001 0 0 0 0 0 0 0 0 0 0 0 0 0 0 0 0 0 0 0 0 0 0 0 0 0 0 0 0 0 0 0 0 0 0 0 0 0 0 0 0 0 0
0.111377 1.70652e-08 7.12217e-09 9.94304e-09 0.58265 0.880582 0 0 0 0 0 0 0 0 0 0 0 0 0 0 0 0 0 0 0 0 0 0 0 0 0 0 0 0 0 0 0 0 0 0 0 0 0 0 0 0 0 0
0.117094 1.71142e-08 7.1849e-09 9.92934e-09 0.58018 0.881186 0 0 0 0 0 0 0 0 0 0 0 0 0 0 0 0 0 0 0 0 0 0 0 0 0 0 0 0 0 0 0 0 0 0 0 0 0 0 0 0 0 0
0.123105 1.71658e-08 7.25089e-09 9.91488e-09 0.577596 0.881819 0 0 0 0 0 0 0 0 0 0 0 0 0 0 0 0 0 0 0 0 0 0 0 0 0 0 0 0 0 0 0 0 0 0 0 0 0 0 0 0 0 0
0.129424 1.72197e-08 7.32018e-09 9.89955e-09 0.574896 0.882486 0 0 0 0 0 0 0 0 0 0 0 0 0 0 0 0 0 0 0 0 0 0 0 0 0 0 0 0 0 0 0 0 0 0 0 0 0 0 0 0 0 0
0.136067 1.72766e-08 7.39313e-09 9.88345e-09 0.572072 0.883183 0 0 0 0 0 0 0 0 0 0 0 0 0 0 0 0 0 0 0 0 0 0 0 0 0 0 0 0 0 0 0 0 0 0 0 0 0 0 0 0 0 0
0.143051 1.73363e-08 7.46977e-09 9.86656e-09 0.569126 0.883921 0 0 0 0 0 0 0 0 0 0 0 0 0 0 0 0 0 0 0 0 0 0 0 0 0 0 0 0 0 0 0 0 0 0 0 0 0 0 0 0 0 0
0.150394 1.7399e-08 7.5503e-09 9.84866e-09 0.566049 0.884694 0 0 0 0 0 0 0 0 0 0 0 0 0 0 0 0 0 0 0 0 0 0 0 0 0 0 0 0 0 0 0 0 0 0 0 0 0 0 0 0 0 0
0.158114 1.74652e-08 7.63503e-09 9.83015e-09 0.562843 0.885507 0 0 0 0 0 0 0 0 0 0 0 0 0 0 0 0 0 0 0 0 0 0 0 0 0 0 0 0 0 0 0 0 0 0 0 0 0 0 0 0 0 0
0.16623 1.75341e-08 7.72409e-09 9.81005e-09 0.559483 0.886365 0 0 0 0 0 0 0 0 0 0 0 0 0 0 0 0 0 0 0 0 0 0 0 0 0 0 0 0 0 0 0 0 0 0 0 0 0 0 0 0 0 0
0.174762 1.76073e-08 7.8177e-09 9.78958e-09 0.555996 0.887261 0 0 0 0 0 0 0 0 0 0 0 0 0 0 0 0 0 0 0 0 0 0 0 0 0 0 0 0 0 0 0 0 0 0 0 0 0 0 0 0 0 0
0.183733 1.7684e-08 7.91619e-09 9.76785e-09 0.552354 0.888209 0 0 0 0 0 0 0 0 0 0 0 0 0 0 0 0 0 0 0 0 0 0 0 0 0 0 0 0 0 0 0 0 0 0 0 0 0 0 0 0 0 0
0.193164 1.77644e-08 8.01959e-09 9.74484e-09 0.548559 0.889204 0 0 0 0 0 0 0 0 0 0 0 0 0 0 0 0 0 0 0 0 0 0 0 0 0 0 0 0 0 0 0 0 0 0 0 0 0 0 0 0 0 0
0.203079 1.78472e-08 8.12199e-09 9.72524e-09 0.544916 0.890036 0 0 0 0 0 0 0 0 0 0 0 0 0 0 0 0 0 0 0 0 0 0 0 0 0 0 0 0 0 0 0 0 0 0 0 0 0 0 0 0 0 0
0.213503 1.79239e-08 8.19906e-09 9.7248e-09 0.542562 0.889948 0 0 0 0 0 0 0 0 0 0 0 0 0 0 0 0 0 0 0 0 0 0 0 0 0 0 0 0 0 0 0 0 0 0 0 0 0 0 0 0 0 0
0.224463 1.80048e-08 8.28002e-09 9.7248e-09 0.540122 0.889835 0 0 0 0 0 0 0 0 0 0 0 0 0 0 0 0 0 0 0 0 0 0 0 0 0 0 0 0 0 0 0 0 0 0 0 0 0 0 0 0 0 0
0.235984 1.80899e-08 8.3651e-09 9.7248e-09 0.537582 0.889712 0 0 0 0 0 0 0 0 0 0 0 0 0 0 0 0 0 0 0 0 0 0 0 0 0 0 0 0 0 0 0 0 0 0 0 0 0 0 0 0 0 0
0.248097 1.81792e-08 8.45437e-09 9.7248e-09 0.534942 0.88958 0 0 0 0 0 0 0 0 0 0 0 0 0 0 0 0 0 0 0 0 0 0 0 0 0 0 0 0 0 0 0 0 0 0 0 0 0 0 0 0 0 0
0.260832 1.82726e-08 8.54779e-09 9.7248e-09 0.532207 0.889446 0 0 0 0 0 0 0 0 0 0 0 0 0 0 0 0 0 0 0 0 0 0 0 0 0 0 0 0 0 0 0 0 0 0 0 0 0 0 0 0 0 0
0.274221 1.83709e-08 8.64609e-09 9.7248e-09 0.529359 0.889302 0 0 0 0 0 0 0 0 0 0 0 0 0 0 0 0 0 0 0 0 0 0 0 0 0 0 0 0 0 0 0 0 0 0 0 0 0 0 0 0 0 0
0.288297 1.84749e-08 8.75015e-09 9.7248e-09 0.526378 0.889149 0 0 0 0 0 0 0 0 0 0 0 0 0 0 0 0 0 0 0 0 0 0 0 0 0 0 0 0 0 0 0 0 0 0 0 0 0 0 0 0 0 0
0.303095 1.85933e-08 8.85511e-09 9.7382e-09 0.523748 0.888913 0 0 0 0 0 0 0 0 0 0 0 0 0 0 0 0 0 0 0 0 0 0 0 0 0 0 0 0 0 0 0 0 0 0 0 0 0 0 0 0 0 0
0.318653 1.88334e-08 8.91499e-09 9.91838e-09 0.526639 0.887768 0 0 0 0 0 0 0 0 0 0 0 0 0 0 0 0 0 0 0 0 0 0 0 0 0 0 0 0 0 0 0 0 0 0 0 0 0 0 0 0 0 0
0.335009 1.9094e-08 8.97404e-09 1.012e-08 0.530008 0.886499 0 0 0 0 0 0 0 0 0 0 0 0 0 0 0 0 0 0 0 0 0 0 0 0 0 0 0 0 0 0 0 0 0 0 0 0 0 0 0 0 0 0
0.352205 1.93691e-08 9.03675e-09 1.03323e-08 0.533444 0.885158 0 0 0 0 0 0 0 0 0 0 0 0 0 0 0 0 0 0 0 0 0 0 0 0 0 0 0 0 0 0 0 0 0 0 0 0 0 0 0 0 0 0
0.370284 1.96576e-08 9.10236e-09 1.05552e-08 0.536955 0.883753 0 0 0 0 0 0 0 0 0 0 0 0 0 0 0 0 0 0 0 0 0 0 0 0 0 0 0 0 0 0 0 0 0 0 0 0 0 0 0 0 0 0
0.389291 1.99606e-08 9.17124e-09 1.07894e-08 0.540534 0.882276 0 0 0 0 0 0 0 0 0 0 0 0 0 0 0 0 0 0 0 0 0 0 0 0 0 0 0 0 0 0 0 0 0 0 0 0 0 0 0 0 0 0
0.409273 2.01565e-08 9.23068e-09 1.09258e-08 0.542049 0.878656 0 0 0 0 0 0 0 0 0 0 0 0 0 0 0 0 0 0 0 0 0 0 0 0 0 0 0 0 0 0 0 0 0 0 0 0 0 0 0 0 0 0
0.430281 1.99609e-08 9.25077e-09 1.07102e-08 0.536556 0.868107 0 0 0 0 0 0 0 0 0 0 0 0 0 0 0 0 0 0 0 0 0 0 0 0 0 0 0 0 0 0 0 0 0 0 0 0 0 0 0 0 0 0
0.452368 1.97562e-08 9.27234e-09 1.04838e-08 0.530661 0.857022 0 0 0 0 0 0 0 0 0 0 0 0 0 0 0 0 0 0 0 0 0 0 0 0 0 0 0 0 0 0 0 0 0 0 0 0 0 0 0 0 0 0
0.475588 1.95395e-08 9.29406e-09 1.02454e-08 0.524345 0.845357 0 0 0 0 0 0 0 0 0 0 0 0 0 0 0 0 0 0 0 0 0 0 0 0 0 0 0 0 0 0 0 0 0 0 0 0 0 0 0 0 0 0
0.5 1.93135e-08 9.31815e-09 9.99538e-09 0.517532 0.833093 0 0 0 0 0 0 0 0 0 0 0 0 0 0 0 0 0 0 0 0 0 0 0 0 0 0 0 0 0 0 0 0 0 0 0 0 0 0 0 0 0 0
0.525665 1.94106e-08 9.34322e-09 1.00674e-08 0.518653 0.817558 0 0 0 0 0 0 0 0 0 0 0 0 0 0 0 0 0 0 0 0 0 0 0 0 0 0 0 0 0 0 0 0 0 0 0 0 0 0 0 0 0 0
0.552648 1.96194e-08 9.3706e-09 1.02488e-08 0.52238 0.800377 0 0 0 0 0 0 0 0 0 0 0 0 0 0 0 0 0 0 0 0 0 0 0 0 0 0 0 0 0 0 0 0 0 0 0 0 0 0 0 0 0 0
0.581015 1.98394e-08 9.39955e-09 1.04399e-08 0.526218 0.782314 0 0 0 0 0 0 0 0 0 0 0 0 0 0 0 0 0 0 0 0 0 0 0 0 0 0 0 0 0 0 0 0 0 0 0 0 0 0 0 0 0 0
0.610839 2.00816e-08 9.41673e-09 1.06649e-08 0.531078 0.763933 0 0 0 0 0 0 0 0 0 0 0 0 0 0 0 0 0 0 0 0 0 0 0 0 0 0 0 0 0 0 0 0 0 0 0 0 0 0 0 0 0 0
0.642193 2.04274e-08 9.32877e-09 1.10986e-08 0.54332 0.749467 0 0 0 0 0 0 0 0 0 0 0 0 0 0 0 0 0 0 0 0 0 0 0 0 0 0 0 0 0 0 0 0 0 0 0 0 0 0 0 0 0 0
0.675157 2.07917e-08 9.23721e-09 1.15545e-08 0.555727 0.734263 0 0 0 0 0 0 0 0 0 0 0 0 0 0 0 0 0 0 0 0 0 0 0 0 0 0 0 0 0 0 0 0 0 0 0 0 0 0 0 0 0 0
0.709813 2.11746e-08 9.12867e-09 1.2046e-08 0.568887 0.719304 0 0 0 0 0 0 0 0 0 0 0 0 0 0 0 0 0 0 0 0 0 0 0 0 0 0 0 0 0 0 0 0 0 0 0 0 0 0 0 0 0 0
0.746248 2.1591e-08 8.91617e-09 1.26749e-08 0.587043 0.712794 0 0 0 0 0 0 0 0 0 0 0 0 0 0 0 0 0 0 0 0 0 0 0 0 0 0 0 0 0 0 0 0 0 0 0 0 0 0 0 0 0 0
0.784553 2.20302e-08 8.68433e-09 1.33459e-08 0.6058 0.706718 0 0 0 0 0 0 0 0 0 0 0 0 0 0 0 0 0 0 0 0 0 0 0 0 0 0 0 0 0 0 0 0 0 0 0 0 0 0 0 0 0 0
0.824824 2.27015e-08 8.46305e-09 1.42384e-08 0.627203 0.70183 0 0 0 0 0 0 0 0 0 0 0 0 0 0 0 0 0 0 0 0 0 0 0 0 0 0 0 0 0 0 0 0 0 0 0 0 0 0 0 0 0 0
0.867162 2.37985e-08 8.27073e-09 1.55278e-08 0.652469 0.699471 0 0 0 0 0 0 0 0 0 0 0 0 0 0 0 0 0 0 0 0 0 0 0 0 0 0 0 0 0 0 0 0 0 0 0 0 0 0 0 0 0 0
0.911674 2.49497e-08 8.06788e-09 1.68819e-08 0.676634 0.696881 0 0 0 0 0 0 0 0 0 0 0 0 0 0 0 0 0 0 0 0 0 0 0 0 0 0 0 0 0 0 0 0 0 0 0 0 0 0 0 0 0 0
0.95847 2.60949e-08 7.81209e-09 1.82828e-08 0.700628 0.690722 0 0 0 0 0 0 0 0 0 0 0 0 0 0 0 0 0 0 0 0 0 0 0 0 0 0 0 0 0 0 0 0 0 0 0 0 0 0 0 0 0 0
1.00767 2.72992e-08 7.543e-09 1.97562e-08 0.723691 0.684243 0 0 0 0 0 0 0 0 0 0 0 0 0 0 0 0 0 0 0 0 0 0 0 0 0 0 0 0 0 0 0 0 0 0 0 0 0 0 0 0 0 0
1.05939 2.88148e-08 7.35512e-09 2.14596e-08 0.744745 0.689658 0 0 0 0 0 0 0 0 0 0 0 0 0 0 0 0 0 0 0 0 0 0 0 0 0 0 0 0 0 0 0 0 0 0 0 0 0 0 0 0 0 0
1.11377 3.04209e-08 7.16952e-09 2.32514e-08 0.764323 0.696385 0 0 0 0 0 0 0 0 0 0 0 0 0 0 0 0 0 0 0 0 0 0 0 0 0 0 0 0 0 0 0 0 0 0 0 0 0 0 0 0 0 0
1.17094 3.16832e-08 6.94778e-09 2.47355e-08 0.780711 0.689871 0 0 0 0 0 0 0 0 0 0 0 0 0 0 0 0 0 0 0 0 0 0 0 0 0 0 0 0 0 0 0 0 0 0 0 0 0 0 0 0 0 0
1.23105 3.27471e-08 6.69994e-09 2.60471e-08 0.795403 0.681562 0 0 0 0 0 0 0 0 0 0 0 0 0 0 0 0 0 0 0 0 0 0 0 0 0 0 0 0 0 0 0 0 0 0 0 0 0 0 0 0 0 0
1.29424 3.31226e-08 6.39863e-09 2.6724e-08 0.80682 0.671257 0 0 0 0 0 0 0 0 0 0 0 0 0 0 0 0 0 0 0 0 0 0 0 0 0 0 0 0 0 0 0 0 0 0 0 0 0 0 0 0 0 0
1.36067 3.32727e-08 5.99402e-09 2.72787e-08 0.819852 0.654381 0 0 0 0 0 0 0 0 0 0 0 0 0 0 0 0 0 0 0 0 0 0 0 0 0 0 0 0 0 0 0 0 0 0 0 0 0 0 0 0 0 0
1.43051 3.32323e-08 5.54465e-09 2.76876e-08 0.833155 0.634975 0 0 0 0 0 0 0 0 0 0 0 0 0 0 0 0 0 0 0 0 0 0 0 0 0 0 0 0 0 0 0 0 0 0 0 0 0 0 0 0 0 0
1.50394 3.28975e-08 5.20513e-09 2.76924e-08 0.841777 0.623602 0 0 0 0 0 0 0 0 0 0 0 0 0 0 0 0 0 0 0 0 0 0 0 0 0 0 0 0 0 0 0 0 0 0 0 0 0 0 0 0 0 0
1.58114 3.23406e-08 4.88057e-09 2.746e-08 0.849089 0.620237 0 0 0 0 0 0 0 0 0 0 0 0 0 0 0 0 0 0 0 0 0 0 0 0 0 0 0 0 0 0 0 0 0 0 0 0 0 0 0 0 0 0
1.6623 3.13163e-08 4.47799e-09 2.68383e-08 0.857008 0.616961 0 0 0 0 0 0 0 0 0 0 0 0 0 0 0 0 0 0 0 0 0 0 0 0 0 0 0 0 0 0 0 0 0 0 0 0 0 0 0 0 0 0
1.74763 2.97186e-08 3.98477e-09 2.57339e-08 0.865917 0.60988 0 0 0 0 0 0 0 0 0 0 0 0 0 0 0 0 0 0 0 0 0 0 0 0 0 0 0 0 0 0 0 0 0 0 0 0 0 0 0 0 0 0
1.83733 2.76951e-08 3.49754e-09 2.41976e-08 0.873713 0.599231 0 0 0 0 0 0 0 0 0 0 0 0 0 0 0 0 0 0 0 0 0 0 0 0 0 0 0 0 0 0 0 0 0 0 0 0 0 0 0 0 0 0
1.93164 2.53272e-08 3.08628e-09 2.22409e-08 0.878144 0.589428 0 0 0 0 0 0 0 0 0 0 0 0 0 0 0 0 0 0 0 0 0 0 0 0 0 0 0 0 0 0 0 0 0 0 0 0 0 0 0 0 0 0
2.03079 2.24401e-08 2.71818e-09 1.97219e-08 0.878869 0.579332 0 0 0 0 0 0 0 0 0 0 0 0 0 0 0 0 0 0 0 0 0 0 0 0 0 0 0 0 0 0 0 0 0 0 0 0 0 0 0 0 0 0
2.13503 1.91672e-08 2.31155e-09 1.68556e-08 0.8794 0.563637 0 0 0 0 0 0 0 0 0 0 0 0 0 0 0 0 0 0 0 0 0 0 0 0 0 0 0 0 0 0 0 0 0 0 0 0 0 0 0 0 0 0
2.24463 1.59686e-08 1.98096e-09 1.39876e-08 0.875947 0.53771 0 0 0 0 0 0 0 0 0 0 0 0 0 0 0 0 0 0 0 0 0 0 0 0 0 0 0 0 0 0 0 0 0 0 0 0 0 0 0 0 0 0
2.35984 1.33022e-08 1.71243e-09 1.15898e-08 0.871267 0.501182 0 0 0 0 0 0 0 0 0 0 0 0 0 0 0 0 0 0 0 0 0 0 0 0 0 0 0 0 0 0 0 0 0 0 0 0 0 0 0 0 0 0
2.48097 1.11589e-08 1.46881e-09 9.69013e-09 0.868373 0.457996 0 0 0 0 0 0 0 0 0 0 0 0 0 0 0 0 0 0 0 0 0 0 0 0 0 0 0 0 0 0 0 0 0 0 0 0 0 0 0 0 0 0
2.60832 9.42415e-09 1.26916e-09 8.15499e-09 0.865329 0.412798 0 0 0 0 0 0 0 0 0 0 0 0 0 0 0 0 0 0 0 0 0 0 0 0 0 0 0 0 0 0 0 0 0 0 0 0 0 0 0 0 0 0
2.74221 8.00765e-09 1.11191e-09 6.89574e-09 0.861144 0.369553 0 0 0 0 0 0 0 0 0 0 0 0 0 0 0 0 0 0 0 0 0 0 0 0 0 0 0 0 0 0 0 0 0 0 0 0 0 0 0 0 0 0
2.88297 6.80778e-09 9.79252e-10 5.82852e-09 0.856157 0.330281 0 0 0 0 0 0 0 0 0 0 0 0 0 0 0 0 0 0 0 0 0 0 0 0 0 0 0 0 0 0 0 0 0 0 0 0 0 0 0 0 0 0
3.03095 5.76656e-09 8.66576e-10 4.89998e-09 0.849724 0.295465 0 0 0 0 0 0 0 0 0 0 0 0 0 0 0 0 0 0 0 0 0 0 0 0 0 0 0 0 0 0 0 0 0 0 0 0 0 0 0 0 0 0
3.18653 4.87286e-09 7.7037e-10 4.10249e-09 0.841906 0.26534 0 0 0 0 0 0 0 0 0 0 0 0 0 0 0 0 0 0 0 0 0 0 0 0 0 0 0 0 0 0 0 0 0 0 0 0 0 0 0 0 0 0
3.35009 4.08979e-09 6.84403e-10 3.40539e-09 0.832656 0.238729 0 0 0 0 0 0 0 0 0 0 0 0 0 0 0 0 0 0 0 0 0 0 0 0 0 0 0 0 0 0 0 0 0 0 0 0 0 0 0 0 0 0
3.52205 3.42305e-09 6.07953e-10 2.81509e-09 0.822394 0.215635 0 0 0 0 0 0 0 0 0 0 0 0 0 0 0 0 0 0 0 0 0 0 0 0 0 0 0 0 0 0 0 0 0 0 0 0 0 0 0 0 0 0
3.70284 2.85235e-09 5.40585e-10 2.31176e-09 0.810477 0.195239 0 0 0 0 0 0 0 0 0 0 0 0 0 0 0 0 0 0 0 0 0 0 0 0 0 0 0 0 0 0 0 0 0 0 0 0 0 0 0 0 0 0
3.89291 2.37083e-09 4.82144e-10 1.88868e-09 0.796635 0.176989 0 0 0 0 0 0 0 0 0 0 0 0 0 0 0 0 0 0 0 0 0 0 0 0 0 0 0 0 0 0 0 0 0 0 0 0 0 0 0 0 0 0
4.09273 1.96877e-09 4.31704e-10 1.53706e-09 0.780724 0.160654 0 0 0 0 0 0 0 0 0 0 0 0 0 0 0 0 0 0 0 0 0 0 0 0 0 0 0 0 0 0 0 0 0 0 0 0 0 0 0 0 0 0
4.30281 1.63525e-09 3.88431e-10 1.24682e-09 0.762464 0.145941 0 0 0 0 0 0 0 0 0 0 0 0 0 0 0 0 0 0 0 0 0 0 0 0 0 0 0 0 0 0 0 0 0 0 0 0 0 0 0 0 0 0
4.52368 1.36056e-09 3.52133e-10 1.00842e-09 0.741185 0.132624 0 0 0 0 0 0 0 0 0 0 0 0 0 0 0 0 0 0 0 0 0 0 0 0 0 0 0 0 0 0 0 0 0 0 0 0 0 0 0 0 0 0
4.75588 1.13437e-09 3.21964e-10 8.12403e-10 0.716173 0.120501 0 0 0 0 0 0 0 0 0 0 0 0 0 0 0 0 0 0 0 0 0 0 0 0 0 0 0 0 0 0 0 0 0 0 0 0 0 0 0 0 0 0
5 9.49286e-10 2.97763e-10 6.51523e-10 0.68633 0.109552 0 0 0 0 0 0 0 0 0 0 0 0 0 0 0 0 0 0 0 0 0 0 0 0 0 0 0 0 0 0 0 0 0 0 0 0 0 0 0 0 0 0
5.25665 8.04029e-10 2.86821e-10 5.17208e-10 0.64327 0.0994408 0 0 0 0 0 0 0 0 0 0 0 0 0 0 0 0 0 0 0 0 0 0 0 0 0 0 0 0 0 0 0 0 0 0 0 0 0 0 0 0 0 0
5.52648 6.95073e-10 2.81376e-10 4.13697e-10 0.595185 0.0903073 0 0 0 0 0 0 0 0 0 0 0 0 0 0 0 0 0 0 0 0 0 0 0 0 0 0 0 0 0 0 0 0 0 0 0 0 0 0 0 0 0 0
5.81015 6.14716e-10 2.85834e-10 3.28882e-10 0.535014 0.0819404 0 0 0 0 0 0 0 0 0 0 0 0 0 0 0 0 0 0 0 0 0 0 0 0 0 0 0 0 0 0 0 0 0 0 0 0 0 0 0 0 0 0
6.10839 5.8248e-10 3.20671e-10 2.61809e-10 0.449473 0.0743444 0 0 0 0 0 0 0 0 0 0 0 0 0 0 0 0 0 0 0 0 0 0 0 0 0 0 0 0 0 0 0 0 0 0 0 0 0 0 0 0 0 0
6.42193 5.57569e-10 3.50448e-10 2.07121e-10 0.371471 0.0673843 0 0 0 0 0 0 0 0 0 0 0 0 0 0 0 0 0 0 0 0 0 0 0 0 0 0 0 0 0 0 0 0 0 0 0 0 0 0 0 0 0 0
6.75157 5.64846e-10 3.99633e-10 1.65213e-10 0.292493 0.0610969 0 0 0 0 0 0 0 0 0 0 0 0 0 0 0 0 0 0 0 0 0 0 0 0 0 0 0 0 0 0 0 0 0 0 0 0 1.4013e-45 0 4.2039e-45 0 9.80909e-45 0
7.09813 5.5228e-10 4.24049e-10 1.28231e-10 0.232185 0.055245 0 0 0 0 0 0 0 0 0 0 0 0 0 0 0 0 0 0 0 0 0 0 0 0 0 0 1.4013e-45 0 2.8026e-45 0 9.80909e-45 0 3.08286e-44 0 8.68805e-44 0 2.29813e-43 0 5.61921e-43 0 1.31442e-42 0
7.46248 5.55242e-10 4.56927e-10 9.83152e-11 0.177067 0.0498878 0 0 0 0 0 0 0 0 0 0 0 0 0 0 0 0 0 0 0 0 1.4013e-45 0 7.00649e-45 0 3.36312e-44 0 1.31722e-43 0 4.4281e-43 0 1.41391e-42 0 4.02593e-42 0 1.09077e-41 0 2.74122e-41 0 6.4129e-41 0 1.43919e-40 0
7.84553 6.47132e-10 5.72275e-10 7.48567e-11 0.115675 0.0449907 0 0 0 0 0 0 0 0 0 0 0 0 0 0 0 0 5.60519e-45 0 4.34403e-44 0 2.55036e-43 0 1.23174e-42 0 5.01525e-42 0 1.85238e-41 0 5.89736e-41 0 1.77652e-40 0 4.80797e-40 0 1.24082e-39 0 2.98102e-39 0 6.6904e-39 0 1.44337e-38 0
8.24824 8.40363e-10 7.83198e-10 5.71648e-11 0.0680239 0.0405236 0 0 0 0 0 0 0 0 0 0 0 0 8.40779e-45 0 1.14906e-43 0 1.04817e-42 0 6.95605e-42 0 3.81069e-41 0 1.70066e-40 0 6.46675e-40 0 2.24098e-39 0 6.74232e-39 0 1.92461e-38 0 4.96158e-38 0 1.22254e-37 0 2.81407e-37 0 6.07129e-37 0 1.26155e-36 0
8.67162 1.12698e-09 1.08077e-09 4.62096e-11 0.0410031 0.036523 0 0 0 0 0 0 0 0 1.4013e-45 0 7.70714e-44 0 1.53863e-42 0 1.81006e-41 0 1.47532e-40 0 8.92764e-40 0 4.50146e-39 0 1.86747e-38 0 6.65274e-38 0 2.1697e-37 0 6.18606e-37 0 1.67767e-36 0 4.12956e-36 0 9.73702e-36 0 2.15188e-35 0 4.47157e-35 0 8.96554e-35 0
9.11674 1.4995e-09 1.45844e-09 4.10572e-11 0.0273806 0.0329445 0 0 0 0 0 0 2.8026e-45 0 3.27904e-43 0 1.21212e-41 0 2.0853e-40 0 2.17587e-39 0 1.60085e-38 0 8.87215e-38 0 4.13372e-37 0 1.59982e-36 0 5.35649e-36 0 1.64897e-35 0 4.46697e-35 0 1.15385e-34 0 2.71799e-34 0 6.14584e-34 0 1.30665e-33 0 2.61995e-33 0 5.07759e-33 0
9.5847 1.79956e-09 1.75888e-09 4.06859e-11 0.0226088 0.0298892 0 0 0 0 0 0 4.48416e-43 0 4.29064e-41 0 1.33123e-39 0 1.99314e-38 0 1.85471e-37 0 1.23787e-36 0 6.31022e-36 0 2.72726e-35 0 9.88013e-35 0 3.11852e-34 0 9.08737e-34 0 2.34481e-33 0 5.78258e-33 0 1.30633e-32 0 2.83848e-32 0 5.81662e-32 0 1.12733e-31 0 2.11537e-31 0
10.0767 1.89139e-09 1.85005e-09 4.13403e-11 0.021857 0.0273805 0 0 0 0 7.9874e-44 0 5.02478e-41 0 3.8519e-39 0 1.0106e-37 0 1.32581e-36 0 1.10642e-35 0 6.73086e-35 0 3.16886e-34 0 1.27511e-33 0 4.33801e-33 0 1.2945e-32 0 3.58027e-32 0 8.82033e-32 0 2.08142e-31 0 4.51866e-31 0 9.45341e-31 0 1.87051e-30 0 3.51003e-30 0 6.38705e-30 0
10.5939 1.75926e-09 1.72009e-09 3.91675e-11 0.0222637 0.0252585 0 0 0 0 8.55633e-42 0 3.91838e-39 0 2.43026e-37 0 5.43601e-36 0 6.28929e-35 0 4.7321e-34 0 2.63583e-33 0 1.15054e-32 0 4.32538e-32 0 1.38613e-31 0 3.92135e-31 0 1.03199e-30 0 2.43292e-30 0 5.5055e-30 0 1.15083e-29 0 2.3224e-29 0 4.44467e-29 0 8.08804e-29 0 1.42935e-28 0
11.1377 1.54072e-09 1.50557e-09 3.51465e-11 0.0228118 0.0233547 0 0 1.4013e-44 0 6.74127e-40 0 2.28905e-37 0 1.1606e-35 0 2.23057e-34 0 2.28992e-33 0 1.56128e-32 0 7.99703e-32 0 3.24837e-31 0 1.14475e-30 0 3.46573e-30 0 9.31913e-30 0 2.33937e-29 0 5.2889e-29 0 1.15005e-28 0 2.31899e-28 0 4.52206e-28 0 8.38446e-28 0 1.48178e-27 0 2.54687e-27 0
11.7094 1.27835e-09 1.24762e-09 3.07356e-11 0.0240432 0.0216453 0 0 1.38028e-42 0 3.98755e-38 0 1.01871e-35 0 4.26413e-34 0 7.09392e-33 0 6.49997e-32 0 4.03523e-31 0 1.90844e-30 0 7.23925e-30 0 2.399e-29 0 6.8806e-29 0 1.76292e-28 0 4.23097e-28 0 9.192e-28 0 1.92439e-27 0 3.74974e-27 0 7.07749e-27 0 1.27328e-26 0 2.18857e-26 0 3.66352e-26 0
12.3105 8.86338e-10 8.61078e-10 2.52603e-11 0.0284996 0.0200531 1.4013e-45 0 9.0039e-41 0 1.57561e-36 0 3.07082e-34 0 1.07116e-32 0 1.55344e-31 0 1.27746e-30 0 7.25421e-30 0 3.18019e-29 0 1.13031e-28 0 3.53288e-28 0 9.62464e-28 0 2.35527e-27 0 5.41608e-27 0 1.13293e-26 0 2.2878e-26 0 4.31502e-26 0 7.89571e-26 0 1.38034e-25 0 2.31066e-25 0 3.7718e-25 0
12.9424 5.30135e-10 5.11705e-10 1.84303e-11 0.0347652 0.0181031 1.37327e-43 0 4.00151e-39 0 4.34588e-35 0 6.54767e-33 0 1.9203e-31 0 2.44401e-30 0 1.81335e-29 0 9.46016e-29 0 3.85854e-28 0 1.28908e-27 0 3.81105e-27 0 9.88665e-27 0 2.31595e-26 0 5.11348e-26 0 1.03178e-25 0 2.01326e-25 0 3.68137e-25 0 6.54043e-25 0 1.11264e-24 0 1.81627e-24 0 2.89471e-24 0
13.6067 4.55444e-10 4.42775e-10 1.26696e-11 0.027818 0.0160626 1.17078e-41 0 2.07207e-37 0 1.42959e-33 0 1.68609e-31 0 4.19302e-30 0 4.71327e-29 0 3.17106e-28 0 1.52614e-27 0 5.81181e-27 0 1.83059e-26 0 5.133e-26 0 1.27105e-25 0 2.85624e-25 0 6.06717e-25 0 1.18296e-24 0 2.23413e-24 0 3.96663e-24 0 6.85224e-24 0 1.13584e-23 0 1.8103e-23 0 2.82027e-23 0
