# 9.04348e-05 1 75 : grain size, compostion index, size index
# Heating and cooling timescale: 0.00034535 5.39319e+06
# Ratio of heating to cooling to determine stochastic cutoff: 100
# Equilibrium emission is recorded even for those grains in the stochastic regime.
# Emission spectrum was computed for: 
# Type: IRSF
# Scales: 0.25 0.5 1 1.5 2 2.5 3 3.5 4 4.5 5 5.5 6 6.5 7 7.5 8 8.5 9 9.5 10
# StochasticallyHeated: 0 0 0 0 0 0 0 0 0 0 0 0 0 0 0 0 0 0 0 0 0
# Temperature: -1
# Wavelength  CExt  CAbs  CSca  Albedo G EqEm1 StEm1 EqEm2 StEm2 EqEm3 StEm3 EqEm4 StEm4 EqEm5 StEm5 EqEm6 StEm6 EqEm7 StEm7 EqEm8 StEm8 EqEm9 StEm9 EqEm10 StEm10 EqEm11 StEm11 EqEm12 StEm12 EqEm13 StEm13 EqEm14 StEm14 EqEm15 StEm15 EqEm16 StEm16 EqEm17 StEm17 EqEm18 StEm18 EqEm19 StEm19 EqEm20 StEm20 EqEm21 StEm21
0.05 5.30251e-08 1.85419e-08 3.44831e-08 0.650318 0.857974 0 0 0 0 0 0 0 0 0 0 0 0 0 0 0 0 0 0 0 0 0 0 0 0 0 0 0 0 0 0 0 0 0 0 0 0 0 0 0 0 0 0
0.0525665 5.31491e-08 1.83125e-08 3.48366e-08 0.65545 0.845955 0 0 0 0 0 0 0 0 0 0 0 0 0 0 0 0 0 0 0 0 0 0 0 0 0 0 0 0 0 0 0 0 0 0 0 0 0 0 0 0 0 0
0.0552647 5.32789e-08 1.81627e-08 3.51162e-08 0.659102 0.835989 0 0 0 0 0 0 0 0 0 0 0 0 0 0 0 0 0 0 0 0 0 0 0 0 0 0 0 0 0 0 0 0 0 0 0 0 0 0 0 0 0 0
0.0581015 5.34006e-08 1.81341e-08 3.52665e-08 0.660414 0.829888 0 0 0 0 0 0 0 0 0 0 0 0 0 0 0 0 0 0 0 0 0 0 0 0 0 0 0 0 0 0 0 0 0 0 0 0 0 0 0 0 0 0
0.0610839 5.35223e-08 1.79365e-08 3.55858e-08 0.664878 0.821529 0 0 0 0 0 0 0 0 0 0 0 0 0 0 0 0 0 0 0 0 0 0 0 0 0 0 0 0 0 0 0 0 0 0 0 0 0 0 0 0 0 0
0.0642193 5.36888e-08 1.73684e-08 3.63205e-08 0.676499 0.80412 0 0 0 0 0 0 0 0 0 0 0 0 0 0 0 0 0 0 0 0 0 0 0 0 0 0 0 0 0 0 0 0 0 0 0 0 0 0 0 0 0 0
0.0675157 5.39156e-08 1.68537e-08 3.7062e-08 0.687406 0.785144 0 0 0 0 0 0 0 0 0 0 0 0 0 0 0 0 0 0 0 0 0 0 0 0 0 0 0 0 0 0 0 0 0 0 0 0 0 0 0 0 0 0
0.0709813 5.41623e-08 1.6953e-08 3.72092e-08 0.686995 0.778463 0 0 0 0 0 0 0 0 0 0 0 0 0 0 0 0 0 0 0 0 0 0 0 0 0 0 0 0 0 0 0 0 0 0 0 0 0 0 0 0 0 0
0.0746248 5.4393e-08 1.73762e-08 3.70168e-08 0.680544 0.779865 0 0 0 0 0 0 0 0 0 0 0 0 0 0 0 0 0 0 0 0 0 0 0 0 0 0 0 0 0 0 0 0 0 0 0 0 0 0 0 0 0 0
0.0784553 5.45987e-08 1.7892e-08 3.67067e-08 0.6723 0.784625 0 0 0 0 0 0 0 0 0 0 0 0 0 0 0 0 0 0 0 0 0 0 0 0 0 0 0 0 0 0 0 0 0 0 0 0 0 0 0 0 0 0
0.0824824 5.47857e-08 1.84568e-08 3.63289e-08 0.663108 0.790225 0 0 0 0 0 0 0 0 0 0 0 0 0 0 0 0 0 0 0 0 0 0 0 0 0 0 0 0 0 0 0 0 0 0 0 0 0 0 0 0 0 0
0.0867162 5.49645e-08 1.86936e-08 3.62709e-08 0.659896 0.789117 0 0 0 0 0 0 0 0 0 0 0 0 0 0 0 0 0 0 0 0 0 0 0 0 0 0 0 0 0 0 0 0 0 0 0 0 0 0 0 0 0 0
0.0911674 5.5169e-08 1.87714e-08 3.63976e-08 0.659747 0.784194 0 0 0 0 0 0 0 0 0 0 0 0 0 0 0 0 0 0 0 0 0 0 0 0 0 0 0 0 0 0 0 0 0 0 0 0 0 0 0 0 0 0
0.095847 5.53562e-08 1.90185e-08 3.63377e-08 0.656435 0.782386 0 0 0 0 0 0 0 0 0 0 0 0 0 0 0 0 0 0 0 0 0 0 0 0 0 0 0 0 0 0 0 0 0 0 0 0 0 0 0 0 0 0
0.100767 5.54179e-08 1.97643e-08 3.56537e-08 0.64336 0.792843 0 0 0 0 0 0 0 0 0 0 0 0 0 0 0 0 0 0 0 0 0 0 0 0 0 0 0 0 0 0 0 0 0 0 0 0 0 0 0 0 0 0
0.105939 5.54266e-08 2.04591e-08 3.49676e-08 0.63088 0.806398 0 0 0 0 0 0 0 0 0 0 0 0 0 0 0 0 0 0 0 0 0 0 0 0 0 0 0 0 0 0 0 0 0 0 0 0 0 0 0 0 0 0
0.111377 5.52607e-08 2.15817e-08 3.3679e-08 0.609457 0.83222 0 0 0 0 0 0 0 0 0 0 0 0 0 0 0 0 0 0 0 0 0 0 0 0 0 0 0 0 0 0 0 0 0 0 0 0 0 0 0 0 0 0
0.117094 5.52149e-08 2.27674e-08 3.24475e-08 0.587658 0.862798 0 0 0 0 0 0 0 0 0 0 0 0 0 0 0 0 0 0 0 0 0 0 0 0 0 0 0 0 0 0 0 0 0 0 0 0 0 0 0 0 0 0
0.123105 5.5262e-08 2.35895e-08 3.16725e-08 0.573133 0.884282 0 0 0 0 0 0 0 0 0 0 0 0 0 0 0 0 0 0 0 0 0 0 0 0 0 0 0 0 0 0 0 0 0 0 0 0 0 0 0 0 0 0
0.129424 5.5342e-08 2.43288e-08 3.10132e-08 0.560391 0.903275 0 0 0 0 0 0 0 0 0 0 0 0 0 0 0 0 0 0 0 0 0 0 0 0 0 0 0 0 0 0 0 0 0 0 0 0 0 0 0 0 0 0
0.136067 5.54099e-08 2.49511e-08 3.04588e-08 0.549699 0.918664 0 0 0 0 0 0 0 0 0 0 0 0 0 0 0 0 0 0 0 0 0 0 0 0 0 0 0 0 0 0 0 0 0 0 0 0 0 0 0 0 0 0
0.143051 5.54024e-08 2.54331e-08 2.99692e-08 0.540938 0.930623 0 0 0 0 0 0 0 0 0 0 0 0 0 0 0 0 0 0 0 0 0 0 0 0 0 0 0 0 0 0 0 0 0 0 0 0 0 0 0 0 0 0
0.150394 5.52408e-08 2.56474e-08 2.95933e-08 0.535715 0.938207 0 0 0 0 0 0 0 0 0 0 0 0 0 0 0 0 0 0 0 0 0 0 0 0 0 0 0 0 0 0 0 0 0 0 0 0 0 0 0 0 0 0
0.158114 5.50292e-08 2.54517e-08 2.95776e-08 0.537488 0.938706 0 0 0 0 0 0 0 0 0 0 0 0 0 0 0 0 0 0 0 0 0 0 0 0 0 0 0 0 0 0 0 0 0 0 0 0 0 0 0 0 0 0
0.16623 5.50383e-08 2.47649e-08 3.02734e-08 0.550043 0.928016 0 0 0 0 0 0 0 0 0 0 0 0 0 0 0 0 0 0 0 0 0 0 0 0 0 0 0 0 0 0 0 0 0 0 0 0 0 0 0 0 0 0
0.174762 5.53924e-08 2.36602e-08 3.17322e-08 0.572862 0.90277 0 0 0 0 0 0 0 0 0 0 0 0 0 0 0 0 0 0 0 0 0 0 0 0 0 0 0 0 0 0 0 0 0 0 0 0 0 0 0 0 0 0
0.183733 5.58884e-08 2.23865e-08 3.3502e-08 0.599444 0.869312 0 0 0 0 0 0 0 0 0 0 0 0 0 0 0 0 0 0 0 0 0 0 0 0 0 0 0 0 0 0 0 0 0 0 0 0 0 0 0 0 0 0
0.193164 5.64696e-08 2.1148e-08 3.53216e-08 0.625498 0.835331 0 0 0 0 0 0 0 0 0 0 0 0 0 0 0 0 0 0 0 0 0 0 0 0 0 0 0 0 0 0 0 0 0 0 0 0 0 0 0 0 0 0
0.203079 5.71207e-08 2.01696e-08 3.69512e-08 0.646896 0.807686 0 0 0 0 0 0 0 0 0 0 0 0 0 0 0 0 0 0 0 0 0 0 0 0 0 0 0 0 0 0 0 0 0 0 0 0 0 0 0 0 0 0
0.213503 5.78694e-08 1.94365e-08 3.84328e-08 0.664131 0.785744 0 0 0 0 0 0 0 0 0 0 0 0 0 0 0 0 0 0 0 0 0 0 0 0 0 0 0 0 0 0 0 0 0 0 0 0 0 0 0 0 0 0
0.224463 5.87629e-08 1.91983e-08 3.95647e-08 0.673293 0.771268 0 0 0 0 0 0 0 0 0 0 0 0 0 0 0 0 0 0 0 0 0 0 0 0 0 0 0 0 0 0 0 0 0 0 0 0 0 0 0 0 0 0
0.235984 5.95759e-08 1.9261e-08 4.0315e-08 0.676699 0.761669 0 0 0 0 0 0 0 0 0 0 0 0 0 0 0 0 0 0 0 0 0 0 0 0 0 0 0 0 0 0 0 0 0 0 0 0 0 0 0 0 0 0
0.248097 5.99613e-08 1.96371e-08 4.03242e-08 0.672504 0.757696 0 0 0 0 0 0 0 0 0 0 0 0 0 0 0 0 0 0 0 0 0 0 0 0 0 0 0 0 0 0 0 0 0 0 0 0 0 0 0 0 0 0
0.260832 5.99072e-08 2.01253e-08 3.97819e-08 0.664058 0.757767 0 0 0 0 0 0 0 0 0 0 0 0 0 0 0 0 0 0 0 0 0 0 0 0 0 0 0 0 0 0 0 0 0 0 0 0 0 0 0 0 0 0
0.274221 5.96943e-08 2.06114e-08 3.90828e-08 0.654717 0.75933 0 0 0 0 0 0 0 0 0 0 0 0 0 0 0 0 0 0 0 0 0 0 0 0 0 0 0 0 0 0 0 0 0 0 0 0 0 0 0 0 0 0
0.288297 5.95269e-08 2.12711e-08 3.82558e-08 0.642664 0.766131 0 0 0 0 0 0 0 0 0 0 0 0 0 0 0 0 0 0 0 0 0 0 0 0 0 0 0 0 0 0 0 0 0 0 0 0 0 0 0 0 0 0
0.303095 5.95123e-08 2.17792e-08 3.77331e-08 0.634039 0.77147 0 0 0 0 0 0 0 0 0 0 0 0 0 0 0 0 0 0 0 0 0 0 0 0 0 0 0 0 0 0 0 0 0 0 0 0 0 0 0 0 0 0
0.318653 5.95524e-08 2.22257e-08 3.73267e-08 0.626788 0.776187 0 0 0 0 0 0 0 0 0 0 0 0 0 0 0 0 0 0 0 0 0 0 0 0 0 0 0 0 0 0 0 0 0 0 0 0 0 0 0 0 0 0
0.335009 5.96559e-08 2.26253e-08 3.70305e-08 0.620736 0.78025 0 0 0 0 0 0 0 0 0 0 0 0 0 0 0 0 0 0 0 0 0 0 0 0 0 0 0 0 0 0 0 0 0 0 0 0 0 0 0 0 0 0
0.352205 5.98111e-08 2.29586e-08 3.68525e-08 0.616148 0.78292 0 0 0 0 0 0 0 0 0 0 0 0 0 0 0 0 0 0 0 0 0 0 0 0 0 0 0 0 0 0 0 0 0 0 0 0 0 0 0 0 0 0
0.370284 5.99967e-08 2.32356e-08 3.67612e-08 0.612719 0.784232 0 0 0 0 0 0 0 0 0 0 0 0 0 0 0 0 0 0 0 0 0 0 0 0 0 0 0 0 0 0 0 0 0 0 0 0 0 0 0 0 0 0
0.389291 6.01976e-08 2.34572e-08 3.67404e-08 0.61033 0.784142 0 0 0 0 0 0 0 0 0 0 0 0 0 0 0 0 0 0 0 0 0 0 0 0 0 0 0 0 0 0 0 0 0 0 0 0 0 0 0 0 0 0
0.409273 6.04073e-08 2.36657e-08 3.67416e-08 0.608231 0.783657 0 0 0 0 0 0 0 0 0 0 0 0 0 0 0 0 0 0 0 0 0 0 0 0 0 0 0 0 0 0 0 0 0 0 0 0 0 0 0 0 0 0
0.430281 6.06224e-08 2.38699e-08 3.67524e-08 0.606252 0.782952 0 0 0 0 0 0 0 0 0 0 0 0 0 0 0 0 0 0 0 0 0 0 0 0 0 0 0 0 0 0 0 0 0 0 0 0 0 0 0 0 0 0
0.452368 6.08556e-08 2.40869e-08 3.67687e-08 0.604195 0.782389 0 0 0 0 0 0 0 0 0 0 0 0 0 0 0 0 0 0 0 0 0 0 0 0 0 0 0 0 0 0 0 0 0 0 0 0 0 0 0 0 0 0
0.475588 6.11016e-08 2.4308e-08 3.67936e-08 0.602171 0.781716 0 0 0 0 0 0 0 0 0 0 0 0 0 0 0 0 0 0 0 0 0 0 0 0 0 0 0 0 0 0 0 0 0 0 0 0 0 0 0 0 0 0
0.5 6.13659e-08 2.45257e-08 3.68402e-08 0.600336 0.780743 0 0 0 0 0 0 0 0 0 0 0 0 0 0 0 0 0 0 0 0 0 0 0 0 0 0 0 0 0 0 0 0 0 0 0 0 0 0 0 0 0 0
0.525665 6.16488e-08 2.47456e-08 3.69032e-08 0.598604 0.779565 0 0 0 0 0 0 0 0 0 0 0 0 0 0 0 0 0 0 0 0 0 0 0 0 0 0 0 0 0 0 0 0 0 0 0 0 0 0 0 0 0 0
0.552648 6.19265e-08 2.49668e-08 3.69597e-08 0.596832 0.778141 0 0 0 0 0 0 0 0 0 0 0 0 0 0 0 0 0 0 0 0 0 0 0 0 0 0 0 0 0 0 0 0 0 0 0 0 0 0 0 0 0 0
0.581015 6.22188e-08 2.51611e-08 3.70577e-08 0.595604 0.775865 0 0 0 0 0 0 0 0 0 0 0 0 0 0 0 0 0 0 0 0 0 0 0 0 0 0 0 0 0 0 0 0 0 0 0 0 0 0 0 0 0 0
0.610839 6.25944e-08 2.53567e-08 3.72377e-08 0.594905 0.773657 0 0 0 0 0 0 0 0 0 0 0 0 0 0 0 0 0 0 0 0 0 0 0 0 0 0 0 0 0 0 0 0 0 0 0 0 0 0 0 0 0 0
0.642193 6.29981e-08 2.55347e-08 3.74633e-08 0.594674 0.770932 0 0 0 0 0 0 0 0 0 0 0 0 0 0 0 0 0 0 0 0 0 0 0 0 0 0 0 0 0 0 0 0 0 0 0 0 0 0 0 0 0 0
0.675157 6.31756e-08 2.56734e-08 3.75022e-08 0.593618 0.766257 0 0 0 0 0 0 0 0 0 0 0 0 0 0 0 0 0 0 0 0 0 0 0 0 0 0 0 0 0 0 0 0 0 0 0 0 0 0 0 0 0 0
0.709813 6.32015e-08 2.57931e-08 3.74084e-08 0.591891 0.760717 0 0 0 0 0 0 0 0 0 0 0 0 0 0 0 0 0 0 0 0 0 0 0 0 0 0 0 0 0 0 0 0 0 0 0 0 0 0 0 0 0 0
0.746248 6.36327e-08 2.58945e-08 3.77382e-08 0.593063 0.756541 0 0 0 0 0 0 0 0 0 0 0 0 0 0 0 0 0 0 0 0 0 0 0 0 0 0 0 0 0 0 0 0 0 0 0 0 0 0 0 0 0 0
0.784553 6.45396e-08 2.58898e-08 3.86498e-08 0.598854 0.754545 0 0 0 0 0 0 0 0 0 0 0 0 0 0 0 0 0 0 0 0 0 0 0 0 0 0 0 0 0 0 0 0 0 0 0 0 0 0 0 0 0 0
0.824824 6.55034e-08 2.5935e-08 3.95684e-08 0.604066 0.750992 0 0 0 0 0 0 0 0 0 0 0 0 0 0 0 0 0 0 0 0 0 0 0 0 0 0 0 0 0 0 0 0 0 0 0 0 0 0 0 0 0 0
0.867162 6.57923e-08 2.58896e-08 3.99027e-08 0.606495 0.739799 0 0 0 0 0 0 0 0 0 0 0 0 0 0 0 0 0 0 0 0 0 0 0 0 0 0 0 0 0 0 0 0 0 0 0 0 0 0 0 0 0 0
0.911674 6.5073e-08 2.57195e-08 3.93536e-08 0.60476 0.722996 0 0 0 0 0 0 0 0 0 0 0 0 0 0 0 0 0 0 0 0 0 0 0 0 0 0 0 0 0 0 0 0 0 0 0 0 0 0 0 0 0 0
0.95847 6.40016e-08 2.53405e-08 3.86611e-08 0.604065 0.696648 0 0 0 0 0 0 0 0 0 0 0 0 0 0 0 0 0 0 0 0 0 0 0 0 0 0 0 0 0 0 0 0 0 0 0 0 0 0 0 0 0 0
1.00767 6.42104e-08 2.53596e-08 3.88508e-08 0.605055 0.677351 0 0 0 0 0 0 0 0 0 0 0 0 0 0 0 0 0 0 0 0 0 0 0 0 0 0 0 0 0 0 0 0 0 0 0 0 0 0 0 0 0 0
1.05939 6.46332e-08 2.45308e-08 4.01024e-08 0.620461 0.67765 0 0 0 0 0 0 0 0 0 0 0 0 0 0 0 0 0 0 0 0 0 0 0 0 0 0 0 0 0 0 0 0 0 0 0 0 0 0 0 0 0 0
1.11377 6.77757e-08 2.48384e-08 4.29373e-08 0.63352 0.67434 0 0 0 0 0 0 0 0 0 0 0 0 0 0 0 0 0 0 0 0 0 0 0 0 0 0 0 0 0 0 0 0 0 0 0 0 0 0 0 0 0 0
1.17094 6.84522e-08 2.36166e-08 4.48356e-08 0.654991 0.68943 0 0 0 0 0 0 0 0 0 0 0 0 0 0 0 0 0 0 0 0 0 0 0 0 0 0 0 0 0 0 0 0 0 0 0 0 0 0 0 0 0 0
1.23105 7.25485e-08 2.44724e-08 4.80761e-08 0.662675 0.690482 0 0 0 0 0 0 0 0 0 0 0 0 0 0 0 0 0 0 0 0 0 0 0 0 0 0 0 0 0 0 0 0 0 0 0 0 0 0 0 0 0 0
1.29424 7.0408e-08 2.30435e-08 4.73645e-08 0.672714 0.673604 0 0 0 0 0 0 0 0 0 0 0 0 0 0 0 0 0 0 0 0 0 0 0 0 0 0 0 0 0 0 0 0 0 0 0 0 0 0 0 0 0 0
1.36067 7.17012e-08 2.35181e-08 4.81831e-08 0.671998 0.682078 0 0 0 0 0 0 0 0 0 0 0 0 0 0 0 0 0 0 0 0 0 0 0 0 0 0 0 0 0 0 0 0 0 0 0 0 0 0 0 0 0 0
1.43051 7.15411e-08 2.48688e-08 4.66724e-08 0.652385 0.646839 0 0 0 0 0 0 0 0 0 0 0 0 0 0 0 0 0 0 0 0 0 0 0 0 0 0 0 0 0 0 0 0 0 0 0 0 0 0 0 0 0 0
1.50394 6.49239e-08 2.18934e-08 4.30305e-08 0.662784 0.613829 0 0 0 0 0 0 0 0 0 0 0 0 0 0 0 0 0 0 0 0 0 0 0 0 0 0 0 0 0 0 0 0 0 0 0 0 0 0 0 0 0 0
1.58114 6.7376e-08 2.42299e-08 4.31461e-08 0.640377 0.583092 0 0 0 0 0 0 0 0 0 0 0 0 0 0 0 0 0 0 0 0 0 0 0 0 0 0 0 0 0 0 0 0 0 0 0 0 0 0 0 0 0 0
1.6623 6.64758e-08 2.37957e-08 4.26801e-08 0.64204 0.530254 0 0 0 0 0 0 0 0 0 0 0 0 0 0 0 0 0 0 0 0 0 0 0 0 0 0 0 0 0 0 0 0 0 0 0 0 0 0 0 0 0 0
1.74763 6.05946e-08 2.15692e-08 3.90255e-08 0.644042 0.478176 0 0 0 0 0 0 0 0 0 0 0 0 0 0 0 0 0 0 0 0 0 0 0 0 0 0 0 0 0 0 0 0 0 0 0 0 0 0 0 0 0 0
1.83733 6.63556e-08 2.35054e-08 4.28502e-08 0.645766 0.461464 0 0 0 0 0 0 0 0 0 0 0 0 0 0 0 0 0 0 0 0 0 0 0 0 0 0 0 0 0 0 0 0 0 0 0 0 0 0 0 0 0 0
1.93164 6.66269e-08 2.1995e-08 4.46319e-08 0.669879 0.434621 0 0 0 0 0 0 0 0 0 0 0 0 0 0 0 0 0 0 0 0 0 0 0 0 0 0 0 0 0 0 0 0 0 0 0 0 0 0 0 0 0 0
2.03079 6.96061e-08 2.16671e-08 4.7939e-08 0.688719 0.466266 0 0 0 0 0 0 0 0 0 0 0 0 0 0 0 0 0 0 0 0 0 0 0 0 0 0 0 0 0 0 0 0 0 0 0 0 0 0 0 0 0 0
2.13503 7.04561e-08 2.12809e-08 4.91753e-08 0.697956 0.489096 0 0 0 0 0 0 0 0 0 0 0 0 0 0 0 0 0 0 0 0 0 0 0 0 0 0 0 0 0 0 0 0 0 0 0 0 0 0 0 0 0 0
2.24463 7.9946e-08 2.29641e-08 5.69819e-08 0.712754 0.47984 0 0 0 0 0 0 0 0 0 0 0 0 0 0 0 0 0 0 0 0 0 0 0 0 0 0 0 0 0 0 0 0 0 0 0 0 0 0 0 0 0 0
2.35984 7.78145e-08 2.11091e-08 5.67055e-08 0.728726 0.440206 0 0 0 0 0 0 0 0 0 0 0 0 0 0 0 0 0 0 0 0 0 0 0 0 0 0 0 0 0 0 0 0 0 0 0 0 0 0 0 0 0 0
2.48097 7.91047e-08 1.97799e-08 5.93249e-08 0.749953 0.44901 0 0 0 0 0 0 0 0 0 0 0 0 0 0 0 0 0 0 0 0 0 0 0 0 0 0 0 0 0 0 0 0 0 0 0 0 0 0 0 0 0 0
2.60832 8.34482e-08 1.98218e-08 6.36264e-08 0.762466 0.461061 0 0 0 0 0 0 0 0 0 0 0 0 0 0 0 0 0 0 0 0 0 0 0 0 0 0 0 0 0 0 0 0 0 0 0 0 0 0 0 0 0 0
2.74221 8.95143e-08 2.04461e-08 6.90683e-08 0.771589 0.474038 0 0 0 0 0 0 0 0 0 0 0 0 0 0 0 0 0 0 0 0 0 0 0 0 0 0 0 0 0 0 0 0 0 0 0 0 0 0 0 0 0 0
2.88297 9.71306e-08 2.16472e-08 7.54833e-08 0.777133 0.472602 0 0 0 0 0 0 0 0 0 0 0 0 0 0 0 0 0 0 0 0 0 0 0 0 0 0 0 0 0 0 0 0 0 0 0 0 0 0 0 0 0 0
3.03095 9.2413e-08 2.12269e-08 7.11861e-08 0.770304 0.444856 0 0 0 0 0 0 0 0 0 0 0 0 0 0 0 0 0 0 0 0 0 0 0 0 0 0 0 0 0 0 0 0 0 0 0 0 0 0 0 0 0 0
3.18653 8.41796e-08 1.97128e-08 6.44668e-08 0.765825 0.412778 0 0 0 0 0 0 0 0 0 0 0 0 0 0 0 0 0 0 0 0 0 0 0 0 0 0 0 0 0 0 0 0 0 0 0 0 0 0 0 0 0 0
3.35009 8.17731e-08 1.89099e-08 6.28632e-08 0.768752 0.382151 0 0 0 0 0 0 0 0 0 0 0 0 0 0 0 0 0 0 0 0 0 0 0 0 0 0 0 0 0 0 0 0 0 0 0 0 0 0 0 0 0 0
3.52205 8.22289e-08 1.85067e-08 6.37222e-08 0.774937 0.350738 0 0 0 0 0 0 0 0 0 0 0 0 0 0 0 0 0 0 0 0 0 0 0 0 0 0 0 0 0 0 0 0 0 0 0 0 0 0 0 0 0 0
3.70284 8.44891e-08 1.83886e-08 6.61004e-08 0.782355 0.321733 0 0 0 0 0 0 0 0 0 0 0 0 0 0 0 0 0 0 0 0 0 0 0 0 0 0 0 0 0 0 0 0 0 0 0 0 0 0 0 0 0 0
3.89291 8.76687e-08 1.85647e-08 6.9104e-08 0.78824 0.299623 0 0 0 0 0 0 0 0 0 0 0 0 0 0 0 0 0 0 0 0 0 0 0 0 0 0 0 0 0 0 0 0 0 0 0 0 0 0 0 0 0 0
4.09273 8.90404e-08 1.88847e-08 7.01557e-08 0.787908 0.285602 0 0 0 0 0 0 0 0 0 0 0 0 0 0 0 0 0 0 0 0 0 0 0 0 0 0 0 0 0 0 0 0 0 0 0 0 0 0 0 0 0 0
4.30281 8.49479e-08 1.89664e-08 6.59815e-08 0.776729 0.273177 0 0 0 0 0 0 0 0 0 0 0 0 0 0 0 0 0 0 0 0 0 0 0 0 0 0 0 0 0 0 0 0 0 0 0 0 0 0 0 0 0 0
4.52368 7.76035e-08 1.87383e-08 5.88653e-08 0.758539 0.250905 0 0 0 0 0 0 0 0 0 0 0 0 0 0 0 0 0 0 0 0 0 0 0 0 0 0 0 0 0 0 0 0 0 0 0 0 0 0 0 0 0 0
4.75588 7.16128e-08 1.85469e-08 5.3066e-08 0.741012 0.216474 0 0 0 0 0 0 0 0 0 0 0 0 0 0 0 0 0 0 0 0 0 0 0 0 0 0 0 0 0 0 0 0 0 0 0 0 0 0 0 0 0 0
5 6.75561e-08 1.85058e-08 4.90503e-08 0.726068 0.176793 0 0 0 0 0 0 0 0 0 0 0 0 0 0 0 0 0 0 0 0 0 0 0 0 0 0 0 0 0 0 0 0 0 0 0 0 0 0 0 0 0 0
5.25665 6.44791e-08 1.85264e-08 4.59528e-08 0.712677 0.138586 0 0 0 0 0 0 0 0 0 0 0 0 0 0 0 0 0 0 0 0 0 0 0 0 0 0 0 0 0 0 0 0 0 0 0 0 0 0 0 0 0 0
5.52648 6.15665e-08 1.85162e-08 4.30504e-08 0.69925 0.104758 0 0 0 0 0 0 0 0 0 0 0 0 0 0 0 0 0 0 0 0 0 0 0 0 0 0 0 0 0 0 0 0 0 0 0 0 0 0 0 0 0 0
5.81015 5.83669e-08 1.83968e-08 3.997e-08 0.684807 0.0754305 0 0 0 0 0 0 0 0 0 0 0 0 0 0 0 0 0 0 0 0 0 0 0 0 0 0 0 0 0 0 0 0 0 0 0 0 0 0 0 0 0 0
6.10839 5.47286e-08 1.81082e-08 3.66204e-08 0.669128 0.050211 0 0 0 0 0 0 0 0 0 0 0 0 0 0 0 0 0 0 0 0 0 0 0 0 0 0 0 0 0 0 0 0 0 0 0 0 0 0 0 0 0 0
6.42193 5.06077e-08 1.76309e-08 3.29768e-08 0.651617 0.0283338 0 0 0 0 0 0 0 0 0 0 0 0 0 0 0 0 0 0 0 0 0 0 0 0 0 0 0 0 0 0 0 0 0 0 0 0 0 0 0 0 0 0
6.75157 4.61613e-08 1.69549e-08 2.92064e-08 0.632703 0.00927544 0 0 0 0 0 0 0 0 0 0 0 0 0 0 0 0 0 0 0 0 0 0 0 0 0 0 0 0 0 0 0 0 0 0 0 0 1.4013e-45 0 2.8026e-45 0 7.00649e-45 0
7.09813 4.15527e-08 1.61343e-08 2.54184e-08 0.611715 -0.0074588 0 0 0 0 0 0 0 0 0 0 0 0 0 0 0 0 0 0 0 0 0 0 0 0 0 0 1.4013e-45 0 4.2039e-45 0 1.12104e-44 0 3.22299e-44 0 8.54792e-44 0 2.08793e-43 0 4.9606e-43 0 1.09582e-42 0
7.46248 3.69856e-08 1.52176e-08 2.17681e-08 0.588555 -0.0221835 0 0 0 0 0 0 0 0 0 0 0 0 0 0 0 0 0 0 0 0 2.8026e-45 0 1.12104e-44 0 4.62428e-44 0 1.70958e-43 0 5.49309e-43 0 1.6157e-42 0 4.37065e-42 0 1.12566e-41 0 2.60642e-41 0 5.95159e-41 0 1.26578e-40 0
7.84553 3.26408e-08 1.42492e-08 1.83916e-08 0.563455 -0.0350734 0 0 0 0 0 0 0 0 0 0 0 0 0 0 1.4013e-45 0 9.80909e-45 0 6.5861e-44 0 3.53127e-43 0 1.63391e-42 0 6.16291e-42 0 2.11176e-41 0 6.41136e-41 0 1.7895e-40 0 4.61228e-40 0 1.13432e-39 0 2.52084e-39 0 5.52887e-39 0 1.13335e-38 0
8.24824 2.86137e-08 1.3257e-08 1.53567e-08 0.53669 -0.0465333 0 0 0 0 0 0 0 0 0 0 0 0 1.26117e-44 0 1.54143e-43 0 1.2948e-42 0 8.3139e-42 0 4.12122e-41 0 1.76945e-40 0 6.25712e-40 0 2.01899e-39 0 5.80619e-39 0 1.54136e-38 0 3.79326e-38 0 8.92792e-38 0 1.90822e-37 0 4.02778e-37 0 7.97212e-37 0
8.67162 2.49991e-08 1.23039e-08 1.26952e-08 0.507828 -0.0566346 0 0 0 0 0 0 0 0 1.4013e-45 0 8.54792e-44 0 1.6227e-42 0 1.84285e-41 0 1.39307e-40 0 8.16879e-40 0 3.74482e-39 0 1.49744e-38 0 4.97858e-38 0 1.51713e-37 0 4.14366e-37 0 1.04881e-36 0 2.47006e-36 0 5.57565e-36 0 1.14833e-35 0 2.33703e-35 0 4.474e-35 0
9.11674 2.18353e-08 1.14162e-08 1.0419e-08 0.477165 -0.0654021 0 0 0 0 0 0 1.4013e-45 0 2.78858e-43 0 1.02897e-41 0 1.6991e-40 0 1.71381e-39 0 1.17369e-38 0 6.31294e-38 0 2.68669e-37 0 1.00404e-36 0 3.14797e-36 0 9.08495e-36 0 2.36253e-35 0 5.71475e-35 0 1.29076e-34 0 2.80008e-34 0 5.56704e-34 0 1.09434e-33 0 2.02962e-33 0
9.5847 1.9109e-08 1.06068e-08 8.50221e-09 0.444932 -0.0729213 0 0 0 0 0 0 2.95674e-43 0 3.14199e-41 0 9.7028e-40 0 1.39726e-38 0 1.25896e-37 0 7.84882e-37 0 3.88874e-36 0 1.54201e-35 0 5.40337e-35 0 1.60219e-34 0 4.3907e-34 0 1.08974e-33 0 2.52472e-33 0 5.48008e-33 0 1.1447e-32 0 2.20076e-32 0 4.18572e-32 0 7.53241e-32 0
10.0767 1.67792e-08 9.87101e-09 6.90822e-09 0.411713 -0.0792321 0 0 0 0 3.78351e-44 0 3.26264e-41 0 2.76633e-39 0 7.22532e-38 0 9.13438e-37 0 7.39269e-36 0 4.21491e-35 0 1.93135e-34 0 7.16024e-34 0 2.36003e-33 0 6.63621e-33 0 1.73126e-32 0 4.11034e-32 0 9.14012e-32 0 1.91026e-31 0 3.84926e-31 0 7.168e-31 0 1.32119e-30 0 2.31031e-30 0
10.5939 1.47903e-08 9.19718e-09 5.59313e-09 0.378162 -0.0845076 0 0 0 0 4.55983e-42 0 2.8258e-39 0 1.929e-37 0 4.29639e-36 0 4.79877e-35 0 3.50683e-34 0 1.8365e-33 0 7.81244e-33 0 2.71687e-32 0 8.4483e-32 0 2.25866e-31 0 5.62289e-31 0 1.2798e-30 0 2.73697e-30 0 5.51798e-30 0 1.0745e-29 0 1.94109e-29 0 3.47253e-29 0 5.90883e-29 0
11.1377 1.31099e-08 8.59282e-09 4.51703e-09 0.344553 -0.088867 0 0 2.8026e-45 0 4.29134e-40 0 1.94312e-37 0 1.07929e-35 0 2.06588e-34 0 2.05099e-33 0 1.36011e-32 0 6.56966e-32 0 2.60398e-31 0 8.52106e-31 0 2.5069e-30 0 6.38802e-30 0 1.52103e-29 0 3.32567e-29 0 6.85314e-29 0 1.33516e-28 0 2.51669e-28 0 4.41699e-28 0 7.68059e-28 0 1.27344e-27 0
11.7094 1.17005e-08 8.02562e-09 3.67483e-09 0.314076 -0.0915818 0 0 4.25995e-43 0 3.18442e-38 0 1.06971e-35 0 4.8834e-34 0 8.09282e-33 0 7.18269e-32 0 4.34294e-31 0 1.94249e-30 0 7.19866e-30 0 2.22316e-29 0 6.20487e-29 0 1.51053e-28 0 3.44749e-28 0 7.25533e-28 0 1.44323e-27 0 2.72168e-27 0 4.97386e-27 0 8.49305e-27 0 1.43748e-26 0 2.32522e-26 0
12.3105 1.04666e-08 7.51711e-09 2.94953e-09 0.281803 -0.0943328 0 0 4.37303e-41 0 1.89069e-36 0 4.78096e-34 0 1.81113e-32 0 2.61694e-31 0 2.08779e-30 0 1.15619e-29 0 4.8066e-29 0 1.67092e-28 0 4.88386e-28 0 1.29647e-27 0 3.02199e-27 0 6.62476e-27 0 1.34446e-26 0 2.58609e-26 0 4.72817e-26 0 8.39005e-26 0 1.39569e-25 0 2.30233e-25 0 3.63776e-25 0
12.9424 9.40616e-09 7.03045e-09 2.37571e-09 0.252569 -0.0963495 2.66247e-44 0 3.52203e-39 0 9.04242e-35 0 1.74526e-32 0 5.53643e-31 0 7.02173e-30 0 5.06177e-29 0 2.5784e-28 0 9.99881e-28 0 3.27075e-27 0 9.07219e-27 0 2.2962e-26 0 5.13565e-26 0 1.0835e-25 0 2.12422e-25 0 3.95754e-25 0 7.02556e-25 0 1.21225e-24 0 1.96709e-24 0 3.16658e-24 0 4.89279e-24 0
13.6067 8.51127e-09 6.59731e-09 1.91396e-09 0.224873 -0.0978606 2.97636e-42 0 2.26183e-37 0 3.53723e-33 0 5.28016e-31 0 1.41486e-29 0 1.58513e-28 0 1.03762e-27 0 4.88166e-27 0 1.77185e-26 0 5.47011e-26 0 1.44354e-25 0 3.49169e-25 0 7.5085e-25 0 1.52742e-24 0 2.89769e-24 0 5.23702e-24 0 9.04004e-24 0 1.51885e-23 0 2.40704e-23 0 3.78576e-23 0 5.72655e-23 0
