# 2.2387e-06 1 72 : grain size, compostion index, size index
# Heating and cooling timescale: 20.1031 33289
# Ratio of heating to cooling to determine stochastic cutoff: 100
# Equilibrium emission is recorded even for those grains in the stochastic regime.
# Emission spectrum was computed for: 
# Type: IRSF
# Scales: 0.25 0.5 1 1.5 2 2.5 3 3.5 4 4.5 5 5.5 6 6.5 7 7.5 8 8.5 9 9.5 10
# StochasticallyHeated: 1 1 0 0 0 0 0 0 0 0 0 0 0 0 0 0 0 0 0 0 0
# Temperature: -1
# Wavelength  CExt  CAbs  CSca  Albedo G EqEm1 StEm1 EqEm2 StEm2 EqEm3 StEm3 EqEm4 StEm4 EqEm5 StEm5 EqEm6 StEm6 EqEm7 StEm7 EqEm8 StEm8 EqEm9 StEm9 EqEm10 StEm10 EqEm11 StEm11 EqEm12 StEm12 EqEm13 StEm13 EqEm14 StEm14 EqEm15 StEm15 EqEm16 StEm16 EqEm17 StEm17 EqEm18 StEm18 EqEm19 StEm19 EqEm20 StEm20 EqEm21 StEm21
0.05 8.59298e-12 5.90373e-12 2.68925e-12 0.312959 0.106105 0 0 0 0 0 0 0 0 0 0 0 0 0 0 0 0 0 0 0 0 0 0 0 0 0 0 0 0 0 0 0 0 0 0 0 0 0 0 0 0 0 0
0.0525665 9.49778e-12 6.52537e-12 2.97242e-12 0.312959 0.117278 0 0 0 0 0 0 0 0 0 0 0 0 0 0 0 0 0 0 0 0 0 0 0 0 0 0 0 0 0 0 0 0 0 0 0 0 0 0 0 0 0 0
0.0552647 1.04979e-11 7.21245e-12 3.2854e-12 0.312959 0.129626 0 0 0 0 0 0 0 0 0 0 0 0 0 0 0 0 0 0 0 0 0 0 0 0 0 0 0 0 0 0 0 0 0 0 0 0 0 0 0 0 0 0
0.0581015 1.16032e-11 7.97189e-12 3.63133e-12 0.312959 0.143275 0 0 0 0 0 0 0 0 0 0 0 0 0 0 0 0 0 0 0 0 0 0 0 0 0 0 0 0 0 0 0 0 0 0 0 0 0 0 0 0 0 0
0.0610839 1.2825e-11 8.81129e-12 4.0137e-12 0.312959 0.158362 0 0 0 0 0 0 0 0 0 0 0 0 0 0 0 0 0 0 0 0 0 0 0 0 0 0 0 0 0 0 0 0 0 0 0 0 0 0 0 0 0 0
0.0642193 1.41754e-11 9.73908e-12 4.43632e-12 0.312959 0.175036 0 0 0 0 0 0 0 0 0 0 0 0 0 0 0 0 0 0 0 0 0 0 0 0 0 0 0 0 0 0 0 0 0 0 0 0 0 0 0 0 0 0
0.0675157 1.5668e-11 1.07646e-11 4.90344e-12 0.312959 0.193467 0 0 0 0 0 0 0 0 0 0 0 0 0 0 0 0 0 0 0 0 0 0 0 0 0 0 0 0 0 0 0 0 0 0 0 0 0 0 0 0 0 0
0.0709813 1.73178e-11 1.1898e-11 5.41975e-12 0.312959 0.213838 0 0 0 0 0 0 0 0 0 0 0 0 0 0 0 0 0 0 0 0 0 0 0 0 0 0 0 0 0 0 0 0 0 0 0 0 0 0 0 0 0 0
0.0746248 1.91412e-11 1.31508e-11 5.99042e-12 0.312959 0.236354 0 0 0 0 0 0 0 0 0 0 0 0 0 0 0 0 0 0 0 0 0 0 0 0 0 0 0 0 0 0 0 0 0 0 0 0 0 0 0 0 0 0
0.0784553 2.11567e-11 1.45355e-11 6.62118e-12 0.312959 0.261241 0 0 0 0 0 0 0 0 0 0 0 0 0 0 0 0 0 0 0 0 0 0 0 0 0 0 0 0 0 0 0 0 0 0 0 0 0 0 0 0 0 0
0.0824824 2.33844e-11 1.6066e-11 7.31836e-12 0.312959 0.288748 0 0 0 0 0 0 0 0 0 0 0 0 0 0 0 0 0 0 0 0 0 0 0 0 0 0 0 0 0 0 0 0 0 0 0 0 0 0 0 0 0 0
0.0867162 2.58467e-11 1.77577e-11 8.08895e-12 0.312959 0.319152 0 0 0 0 0 0 0 0 0 0 0 0 0 0 0 0 0 0 0 0 0 0 0 0 0 0 0 0 0 0 0 0 0 0 0 0 0 0 0 0 0 0
0.0911674 2.85682e-11 1.96275e-11 8.94068e-12 0.312959 0.352757 0 0 0 0 0 0 0 0 0 0 0 0 0 0 0 0 0 0 0 0 0 0 0 0 0 0 0 0 0 0 0 0 0 0 0 0 0 0 0 0 0 0
0.095847 3.15763e-11 2.16942e-11 9.88209e-12 0.312959 0.389901 0 0 0 0 0 0 0 0 0 0 0 0 0 0 0 0 0 0 0 0 0 0 0 0 0 0 0 0 0 0 0 0 0 0 0 0 0 0 0 0 0 0
0.100767 3.4381e-11 2.36126e-11 1.07685e-11 0.31321 0.419471 0 0 0 0 0 0 0 0 0 0 0 0 0 0 0 0 0 0 0 0 0 0 0 0 0 0 0 0 0 0 0 0 0 0 0 0 0 0 0 0 0 0
0.105939 3.44356e-11 2.35604e-11 1.08751e-11 0.315811 0.391975 0 0 0 0 0 0 0 0 0 0 0 0 0 0 0 0 0 0 0 0 0 0 0 0 0 0 0 0 0 0 0 0 0 0 0 0 0 0 0 0 0 0
0.111377 3.42818e-11 2.33488e-11 1.0933e-11 0.318916 0.367828 0 0 0 0 0 0 0 0 0 0 0 0 0 0 0 0 0 0 0 0 0 0 0 0 0 0 0 0 0 0 0 0 0 0 0 0 0 0 0 0 0 0
0.117094 3.3894e-11 2.2944e-11 1.095e-11 0.323066 0.345061 0 0 0 0 0 0 0 0 0 0 0 0 0 0 0 0 0 0 0 0 0 0 0 0 0 0 0 0 0 0 0 0 0 0 0 0 0 0 0 0 0 0
0.123105 3.29191e-11 2.21065e-11 1.08127e-11 0.328462 0.323396 0 0 0 0 0 0 0 0 0 0 0 0 0 0 0 0 0 0 0 0 0 0 0 0 0 0 0 0 0 0 0 0 0 0 0 0 0 0 0 0 0 0
0.129424 3.10864e-11 2.07187e-11 1.03677e-11 0.333511 0.302632 0 0 0 0 0 0 0 0 0 0 0 0 0 0 0 0 0 0 0 0 0 0 0 0 0 0 0 0 0 0 0 0 0 0 0 0 0 0 0 0 0 0
0.136067 2.88172e-11 1.88911e-11 9.92618e-12 0.344453 0.283237 0 0 0 0 0 0 0 0 0 0 0 0 0 0 0 0 0 0 0 0 0 0 0 0 0 0 0 0 0 0 0 0 0 0 0 0 0 0 0 0 0 0
0.143051 2.50797e-11 1.59037e-11 9.17603e-12 0.365874 0.268337 0 0 0 0 0 0 0 0 0 0 0 0 0 0 0 0 0 0 0 0 0 0 0 0 0 0 0 0 0 0 0 0 0 0 0 0 0 0 0 0 0 0
0.150394 1.97958e-11 1.18704e-11 7.92539e-12 0.400357 0.258345 0 0 0 0 0 0 0 0 0 0 0 0 0 0 0 0 0 0 0 0 0 0 0 0 0 0 0 0 0 0 0 0 0 0 0 0 0 0 0 0 0 0
0.158114 1.42092e-11 7.87832e-12 6.33088e-12 0.445548 0.23382 0 0 0 0 0 0 0 0 0 0 0 0 0 0 0 0 0 0 0 0 0 0 0 0 0 0 0 0 0 0 0 0 0 0 0 0 0 0 0 0 0 0
0.16623 9.74103e-12 4.96271e-12 4.77832e-12 0.490535 0.200992 0 0 0 0 0 0 0 0 0 0 0 0 0 0 0 0 0 0 0 0 0 0 0 0 0 0 0 0 0 0 0 0 0 0 0 0 0 0 0 0 0 0
0.174762 6.92725e-12 3.37453e-12 3.55272e-12 0.512862 0.171774 0 0 0 0 0 0 0 0 0 0 0 0 0 0 0 0 0 0 0 0 0 0 0 0 0 0 0 0 0 0 0 0 0 0 0 0 0 0 0 0 0 0
0.183733 4.93207e-12 2.29968e-12 2.63239e-12 0.533729 0.148065 0 0 0 0 0 0 0 0 0 0 0 0 0 0 0 0 0 0 0 0 0 0 0 0 0 0 0 0 0 0 0 0 0 0 0 0 0 0 0 0 0 0
0.193164 3.6314e-12 1.66984e-12 1.96155e-12 0.540165 0.129088 0 0 0 0 0 0 0 0 0 0 0 0 0 0 0 0 0 0 0 0 0 0 0 0 0 0 0 0 0 0 0 0 0 0 0 0 0 0 0 0 0 0
0.203079 2.96526e-12 1.48709e-12 1.47817e-12 0.498496 0.113526 0 0 0 0 0 0 0 0 0 0 0 0 0 0 0 0 0 0 0 0 0 0 0 0 0 0 0 0 0 0 0 0 0 0 0 0 0 0 0 0 0 0
0.213503 2.51752e-12 1.38233e-12 1.1352e-12 0.450918 0.100437 0 0 0 0 0 0 0 0 0 0 0 0 0 0 0 0 0 0 0 0 0 0 0 0 0 0 0 0 0 0 0 0 0 0 0 0 0 0 0 0 0 0
0.224463 2.16376e-12 1.27482e-12 8.88939e-13 0.410831 0.0893485 0 0 0 0 0 0 0 0 0 0 0 0 0 0 0 0 0 0 0 0 0 0 0 0 0 0 0 0 0 0 0 0 0 0 0 0 0 0 0 0 0 0
0.235984 1.8918e-12 1.19088e-12 7.00921e-13 0.370504 0.0798827 0 0 0 0 0 0 0 0 0 0 0 0 0 0 0 0 0 0 0 0 0 0 0 0 0 0 0 0 0 0 0 0 0 0 0 0 0 0 0 0 0 0
0.248097 1.67441e-12 1.1186e-12 5.55813e-13 0.331945 0.0716733 0 0 0 0 0 0 0 0 0 0 0 0 0 0 0 0 0 0 0 0 0 0 0 0 0 0 0 0 0 0 0 0 0 0 0 0 0 0 0 0 0 0
0.260832 1.50099e-12 1.05726e-12 4.43725e-13 0.295622 0.0644393 0 0 0 0 0 0 0 0 0 0 0 0 0 0 0 0 0 0 0 0 0 0 0 0 0 0 0 0 0 0 0 0 0 0 0 0 0 0 0 0 0 0
0.274221 1.35545e-12 9.9979e-13 3.55663e-13 0.262394 0.058011 0 0 0 0 0 0 0 0 0 0 0 0 0 0 0 0 0 0 0 0 0 0 0 0 0 0 0 0 0 0 0 0 0 0 0 0 0 0 0 0 0 0
0.288297 1.23146e-12 9.45323e-13 2.86141e-13 0.232358 0.0522894 0 0 0 0 0 0 0 0 0 0 0 0 0 0 0 0 0 0 0 0 0 0 0 0 0 0 0 0 0 0 0 0 0 0 0 0 0 0 0 0 0 0
0.303095 1.12454e-12 8.93748e-13 2.3079e-13 0.205231 0.0471733 0 0 0 0 0 0 0 0 0 0 0 0 0 0 0 0 0 0 0 0 0 0 0 0 0 0 0 0 0 0 0 0 0 0 0 0 0 0 0 0 0 0
0.318653 1.03149e-12 8.44863e-13 1.8663e-13 0.180932 0.0425796 0 0 0 0 0 0 0 0 0 0 0 0 0 0 0 0 0 0 0 0 0 0 0 0 0 0 0 0 0 0 0 0 0 0 0 0 0 0 0 0 0 0
0.335009 9.49896e-13 7.98661e-13 1.51234e-13 0.159212 0.0384512 0 0 0 0 0 0 0 0 0 0 0 0 0 0 0 0 0 0 0 0 0 0 0 0 0 0 0 0 0 0 0 0 0 0 0 0 0 0 0 0 0 0
0.352205 8.77885e-13 7.55132e-13 1.22753e-13 0.139829 0.0347376 0 0 0 0 0 0 0 0 0 0 0 0 0 0 0 0 0 0 0 0 0 0 0 0 0 0 0 0 0 0 0 0 0 0 0 0 0 0 0 0 0 0
0.370284 8.13872e-13 7.14041e-13 9.98313e-14 0.122662 0.0313932 0 0 0 0 0 0 0 0 0 0 0 0 0 0 0 0 0 0 0 0 0 0 0 0 0 0 0 0 0 0 0 0 0 0 0 0 0 0 0 0 0 0
0.389291 7.56603e-13 6.75343e-13 8.12603e-14 0.107401 0.0283786 0 0 0 0 0 0 0 0 0 0 0 0 0 0 0 0 0 0 0 0 0 0 0 0 0 0 0 0 0 0 0 0 0 0 0 0 0 0 0 0 0 0
0.409273 7.05075e-13 6.38838e-13 6.62371e-14 0.0939433 0.0256579 0 0 0 0 0 0 0 0 0 0 0 0 0 0 0 0 0 0 0 0 0 0 0 0 0 0 0 0 0 0 0 0 0 0 0 0 0 0 0 0 0 0
0.430281 6.58538e-13 6.04506e-13 5.40314e-14 0.0820476 0.0231999 0 0 0 0 0 0 0 0 0 0 0 0 0 0 0 0 0 0 0 0 0 0 0 0 0 0 0 0 0 0 0 0 0 0 0 0 0 0 0 0 0 0
0.452368 6.16262e-13 5.72153e-13 4.41095e-14 0.0715759 0.0209856 0 0 0 0 0 0 0 0 0 0 0 0 0 0 0 0 0 0 0 0 0 0 0 0 0 0 0 0 0 0 0 0 0 0 0 0 0 0 0 0 0 0
0.475588 5.77671e-13 5.4164e-13 3.60309e-14 0.0623727 0.0189826 0 0 0 0 0 0 0 0 0 0 0 0 0 0 0 0 0 0 0 0 0 0 0 0 0 0 0 0 0 0 0 0 0 0 0 0 0 0 0 0 0 0
0.5 5.42341e-13 5.12889e-13 2.94514e-14 0.0543043 0.0171708 0 0 0 0 0 0 0 0 0 0 0 0 0 0 0 0 0 0 0 0 0 0 0 0 0 0 0 0 0 0 0 0 0 0 0 0 0 0 0 0 0 0
0.525665 5.09856e-13 4.85766e-13 2.40901e-14 0.0472488 0.0155325 0 0 0 0 0 0 0 0 0 0 0 0 0 0 0 0 0 0 0 0 0 0 0 0 0 0 0 0 0 0 0 0 0 0 0 0 0 0 0 0 0 0
0.552648 4.79855e-13 4.60139e-13 1.97166e-14 0.0410887 0.0140521 0 0 0 0 0 0 0 0 0 0 0 0 0 0 0 0 0 0 0 0 0 0 0 0 0 0 0 0 0 0 0 0 0 0 0 0 0 0 0 0 0 0
0.581015 4.52186e-13 4.36053e-13 1.61326e-14 0.035677 0.0127157 0 0 0 0 0 0 0 0 0 0 0 0 0 0 0 0 0 0 0 0 0 0 0 0 0 0 0 0 0 0 0 0 0 0 0 0 0 0 0 0 0 0
0.610839 4.26546e-13 4.13343e-13 1.32034e-14 0.0309543 0.0115052 0 0 0 0 0 0 0 0 0 0 0 0 0 0 0 0 0 0 0 0 0 0 0 0 0 0 0 0 0 0 0 0 0 0 0 0 0 0 0 0 0 0
0.642193 4.02519e-13 3.91706e-13 1.08124e-14 0.0268618 0.0104089 0 0 0 0 0 0 0 0 0 0 0 0 0 0 0 0 0 0 0 0 0 0 0 0 0 0 0 0 0 0 0 0 0 0 0 0 0 0 0 0 0 0
0.675157 3.80233e-13 3.71379e-13 8.85434e-15 0.0232866 0.00941923 0 0 0 0 0 0 0 0 0 0 0 0 0 0 0 0 0 0 0 0 0 0 0 0 0 0 0 0 0 0 0 0 0 0 0 0 0 0 0 0 0 0
0.709813 3.59549e-13 3.52299e-13 7.25002e-15 0.0201642 0.00852369 0 0 0 0 0 0 0 0 0 0 0 0 0 0 0 0 0 0 0 0 0 0 0 0 0 0 0 0 0 0 0 0 0 0 0 0 0 0 0 0 0 0
0.746248 3.4025e-13 3.34312e-13 5.93769e-15 0.017451 0.00771263 0 0 0 0 0 0 0 0 0 0 0 0 0 0 0 0 0 0 0 0 0 0 0 0 0 0 0 0 0 0 0 0 0 0 0 0 0 0 0 0 0 0
0.784553 3.22181e-13 3.17319e-13 4.86154e-15 0.0150895 0.00697806 0 0 0 0 0 0 0 0 0 0 0 0 0 0 0 0 0 0 0 0 0 0 0 0 0 0 0 0 0 0 0 0 0 0 0 0 0 0 0 0 0 0
0.824824 3.05244e-13 3.01263e-13 3.98085e-15 0.0130416 0.00631483 0 0 0 0 0 0 0 0 0 0 0 0 0 0 0 0 0 0 0 0 0 0 0 0 0 0 0 0 0 0 0 0 0 0 0 0 0 0 0 0 0 0
0.867162 2.89284e-13 2.86024e-13 3.25954e-15 0.0112676 0.00571481 0 0 0 0 0 0 0 0 0 0 0 0 0 0 0 0 0 0 0 0 0 0 0 0 0 0 0 0 0 0 0 0 0 0 0 0 0 0 0 0 0 0
0.911674 2.74467e-13 2.718e-13 2.66772e-15 0.00971964 0.00517141 0 0 0 0 0 0 0 0 0 0 0 0 0 0 0 0 0 0 0 0 0 0 0 0 0 0 0 0 0 0 0 0 0 0 0 0 0 0 0 0 0 0
0.95847 2.60678e-13 2.58496e-13 2.18166e-15 0.00836918 0.00467945 0 0 0 0 0 0 0 0 0 0 0 0 0 0 0 0 0 0 0 0 0 0 0 0 0 0 0 0 0 0 0 0 0 0 0 0 0 0 0 0 0 0
1.00767 2.47706e-13 2.45927e-13 1.77973e-15 0.00718484 0.00423461 0 0 0 0 0 0 0 0 0 0 0 0 0 0 0 0 0 0 0 0 0 0 0 0 0 0 0 0 0 0 0 0 0 0 0 0 0 0 0 0 0 0
1.05939 2.40692e-13 2.3924e-13 1.45221e-15 0.00603348 0.00383217 0 0 0 0 0 0 0 0 0 0 0 0 0 0 0 0 0 0 0 0 0 0 0 0 0 0 0 0 0 0 0 0 0 0 0 0 0 0 0 0 0 0
1.11377 2.34844e-13 2.33658e-13 1.18671e-15 0.00505316 0.00346768 0 0 0 0 0 0 0 0 0 0 0 0 0 0 0 0 0 0 0 0 0 0 0 0 0 0 0 0 0 0 0 0 0 0 0 0 0 0 0 0 0 0
1.17094 2.30055e-13 2.29083e-13 9.71718e-16 0.00422385 0.00313756 0 0 0 0 0 0 0 0 0 0 0 0 0 0 0 0 0 0 0 0 0 0 0 0 0 0 0 0 0 0 0 0 0 0 0 0 0 0 0 0 0 0
1.23105 2.25837e-13 2.25041e-13 7.95442e-16 0.0035222 0.00283887 0 0 0 0 0 0 0 0 0 0 0 0 0 0 0 0 0 0 0 0 0 0 0 0 0 0 0 0 0 0 0 0 0 0 0 0 0 0 0 0 0 0
1.29424 2.21316e-13 2.20665e-13 6.51497e-16 0.00294374 0.00256868 0 0 0 0 0 0 0 0 0 0 0 0 0 0 0 0 0 0 0 0 0 0 0 0 0 0 0 0 0 0 0 0 0 0 0 0 0 0 0 0 0 0
1.36067 2.16344e-13 2.15808e-13 5.35882e-16 0.00247699 0.00232436 0 0 0 0 0 0 0 0 0 0 0 0 0 0 0 0 0 0 0 0 0 0 0 0 0 0 0 0 0 0 0 0 0 0 0 0 0 0 0 0 0 0
1.43051 2.1105e-13 2.10614e-13 4.35981e-16 0.00206577 0.00210281 0 0 0 0 0 0 0 0 0 0 0 0 0 0 0 0 0 0 0 0 0 0 0 0 0 0 0 0 0 0 0 0 0 0 0 0 0 0 0 0 0 0
1.50394 2.05657e-13 2.053e-13 3.56336e-16 0.00173267 0.00190243 0 0 0 0 0 0 0 0 0 0 0 0 0 0 0 0 0 0 0 0 0 0 0 0 0 0 0 0 0 0 0 0 0 0 0 0 0 0 0 0 0 0
1.58114 2.00465e-13 2.00173e-13 2.91558e-16 0.00145441 0.00172136 0 0 0 0 0 0 0 0 0 0 0 0 0 0 0 0 0 0 0 0 0 0 0 0 0 0 0 0 0 0 0 0 0 0 0 0 0 0 0 0 0 0
1.6623 1.95733e-13 1.95494e-13 2.38542e-16 0.00121871 0.00155722 0 0 0 0 0 0 0 0 0 0 0 0 0 0 0 0 0 0 0 0 0 0 0 0 0 0 0 0 0 0 0 0 0 0 0 0 0 0 0 0 0 0
1.74763 1.91732e-13 1.91536e-13 1.95146e-16 0.00101781 0.00140862 0 0 0 0 0 0 0 0 0 0 0 0 0 0 0 0 0 0 0 0 0 0 0 0 0 0 0 0 0 0 0 0 0 0 0 0 0 0 0 0 0 0
1.83733 1.88721e-13 1.88562e-13 1.59573e-16 0.000845551 0.00127403 0 0 0 0 0 0 0 0 0 0 0 0 0 0 0 0 0 0 0 0 0 0 0 0 0 0 0 0 0 0 0 0 0 0 0 0 0 0 0 0 0 0
1.93164 1.86836e-13 1.86706e-13 1.30442e-16 0.00069816 0.00115243 0 0 0 0 0 0 0 0 0 0 0 0 0 0 0 0 0 0 0 0 0 0 0 0 0 0 0 0 0 0 0 0 0 0 0 0 0 0 0 0 0 0
2.03079 1.86076e-13 1.85969e-13 1.06688e-16 0.000573358 0.00104241 0 0 0 0 0 0 0 0 0 0 0 0 0 0 0 0 0 0 0 0 0 0 0 0 0 0 0 0 0 0 0 0 0 0 0 0 0 0 0 0 0 0
2.13503 1.86155e-13 1.86068e-13 8.7342e-17 0.000469188 0.000942707 0 0 0 0 0 0 0 0 0 0 0 0 0 0 0 0 0 0 0 0 0 0 0 0 0 0 0 0 0 0 0 0 0 0 0 0 0 0 0 0 0 0
2.24463 1.86467e-13 1.86395e-13 7.15699e-17 0.000383821 0.000852396 0 0 0 0 0 0 0 0 0 0 0 0 0 0 0 0 0 0 0 0 0 0 0 0 0 0 0 0 0 0 0 0 0 0 0 0 0 0 0 0 0 0
2.35984 1.86842e-13 1.86783e-13 5.86789e-17 0.000314057 0.000770815 0 0 0 0 0 0 0 0 0 0 0 0 0 0 0 0 0 0 0 0 0 0 0 0 0 0 0 0 0 0 0 0 0 0 0 0 0 0 0 0 0 0
2.48097 1.87513e-13 1.87465e-13 4.81278e-17 0.000256664 0.00069689 0 0 0 0 0 0 0 0 0 0 0 0 0 0 0 0 0 0 0 0 0 0 0 0 0 0 0 0 0 0 0 0 0 0 0 0 0 0 0 0 0 0
2.60832 1.88514e-13 1.88474e-13 3.94974e-17 0.00020952 0.000629975 0 0 0 0 0 0 0 0 0 0 0 0 0 0 0 0 0 0 0 0 0 0 0 0 0 0 0 0 0 0 0 0 0 0 0 0 0 0 0 0 0 0
2.74221 1.90086e-13 1.90054e-13 3.24417e-17 0.000170668 0.000569428 0 0 0 0 0 0 0 0 0 0 0 0 0 0 0 0 0 0 0 0 0 0 0 0 0 0 0 0 0 0 0 0 0 0 0 0 0 0 0 0 0 0
2.88297 1.92261e-13 1.92234e-13 2.66899e-17 0.000138821 0.000514595 0 0 0 0 0 0 0 0 0 0 0 0 0 0 0 0 0 0 0 0 0 0 0 0 0 0 0 0 0 0 0 0 0 0 0 0 0 0 0 0 0 0
3.03095 1.94994e-13 1.94972e-13 2.20428e-17 0.000113043 0.000465009 0 0 0 0 0 0 0 0 0 0 0 0 0 0 0 0 0 0 0 0 0 0 0 0 0 0 0 0 0 0 0 0 0 0 0 0 0 0 0 0 0 0
3.18653 1.95906e-13 1.95888e-13 1.82476e-17 9.31446e-05 0.000420117 0 0 0 0 0 0 0 0 0 0 0 0 0 0 0 0 0 0 0 0 0 0 0 0 0 0 0 0 0 0 0 0 0 0 0 0 0 0 0 0 0 0
3.35009 2.00828e-13 2.00813e-13 1.49199e-17 7.42921e-05 0.000379452 0 0 0 0 0 0 0 0 0 0 0 0 0 0 0 0 0 0 0 0 0 0 0 0 0 0 0 0 0 0 0 0 0 0 0 0 0 0 0 0 0 0
3.52205 2.00098e-13 2.00085e-13 1.29816e-17 6.4876e-05 0.000342642 0 0 0 0 0 0 0 0 0 0 0 0 0 0 0 0 0 0 0 0 0 0 0 0 0 0 0 0 0 0 0 0 0 0 0 0 0 0 0 0 0 0
3.70284 1.86772e-13 1.86762e-13 1.05606e-17 5.65426e-05 0.00030935 0 0 0 0 0 0 0 0 0 0 0 0 0 0 0 0 0 0 0 0 0 0 0 0 0 0 0 0 0 0 0 0 0 0 0 0 0 0 0 0 0 0
3.89291 1.8296e-13 1.82951e-13 8.65329e-18 4.72961e-05 0.000279178 0 0 0 0 0 0 0 0 0 0 0 0 0 0 0 0 0 0 0 0 0 0 0 0 0 0 0 0 0 0 0 0 0 0 0 0 0 0 0 0 0 0
4.09273 1.79952e-13 1.79945e-13 7.09557e-18 3.94303e-05 0.000251815 0 0 0 0 0 0 0 0 0 0 0 0 0 0 0 0 0 0 0 0 0 0 0 0 0 0 0 0 0 0 0 0 0 0 0 0 0 0 0 0 0 0
4.30281 1.77781e-13 1.77775e-13 5.82073e-18 3.2741e-05 0.00022702 0 0 0 0 0 0 0 0 0 0 0 0 0 0 0 0 0 0 0 0 0 0 0 0 0 0 0 0 0 0 0 0 0 0 0 0 0 0 0 0 0 0
4.52368 1.76505e-13 1.765e-13 4.77995e-18 2.70811e-05 0.000204582 0 0 0 0 0 0 0 0 0 0 0 0 0 0 0 0 0 0 0 0 0 0 0 0 0 0 0 0 0 0 0 0 0 0 0 0 0 0 0 0 0 0
4.75588 1.75894e-13 1.7589e-13 3.93178e-18 2.23532e-05 0.000184225 0 0 0 0 0 0 0 0 0 0 0 0 0 0 0 0 0 0 0 0 0 0 0 0 0 0 0 0 0 0 0 0 0 0 0 0 0 0 0 0 0 0
5 1.75449e-13 1.75445e-13 3.24071e-18 1.8471e-05 0.000165714 0 0 0 0 0 0 0 0 0 0 0 0 0 0 0 0 0 0 0 0 0 0 0 0 0 0 0 0 0 0 0 0 0 0 0 0 0 0 0 0 0 0
5.25665 1.74745e-13 1.74743e-13 2.67412e-18 1.53029e-05 0.000148893 0 0 0 0 0 0 0 0 0 0 0 0 0 0 0 0 0 0 0 0 0 0 0 0 0 0 0 0 0 0 0 0 0 0 0 0 0 0 0 0 0 0
5.52648 1.73809e-13 1.73807e-13 2.20641e-18 1.26944e-05 0.000133669 0 0 0 0 0 0 0 0 0 0 0 0 0 0 0 0 0 0 0 0 0 0 0 0 0 0 0 0 0 0 0 0 0 0 0 0 0 0 0 0 1.4013e-45 0
5.81015 1.72523e-13 1.72521e-13 1.8185e-18 1.05406e-05 0.000119791 0 0 0 0 0 0 0 0 0 0 0 0 0 0 0 0 0 0 0 0 0 0 0 0 0 0 0 0 0 0 1.4013e-45 0 2.8026e-45 0 8.40779e-45 0 2.24208e-44 0 5.32493e-44 0 1.21913e-43 0
6.10839 1.71074e-13 1.71073e-13 1.49568e-18 8.74287e-06 0.000107178 0 0 0 0 0 0 0 0 0 0 0 0 0 0 0 0 0 0 0 0 0 0 1.4013e-45 0 2.8026e-45 0 1.12104e-44 0 3.78351e-44 0 1.16308e-43 0 3.18095e-43 0 8.28167e-43 0 1.99125e-42 0 4.52059e-42 0 9.91699e-42 0
6.42193 1.69414e-13 1.69412e-13 1.22565e-18 7.23464e-06 9.56693e-05 0 0 0 0 0 0 0 0 0 0 0 0 0 0 0 0 0 0 2.8026e-45 0 1.68156e-44 0 7.70714e-44 0 3.04082e-43 0 1.05518e-42 0 3.25522e-42 0 9.36908e-42 0 2.42593e-41 0 6.03595e-41 0 1.39002e-40 0 3.0322e-40 0 6.40151e-40 0
6.75157 1.68218e-13 1.68217e-13 9.9653e-19 5.92405e-06 8.50637e-05 0 0 0 0 0 0 0 0 0 0 0 0 0 0 5.60519e-45 0 4.48416e-44 0 2.88667e-43 0 1.49238e-42 0 6.2568e-42 0 2.30444e-41 0 7.52511e-41 0 2.19635e-40 0 6.00427e-40 0 1.4841e-39 0 3.53186e-39 0 7.80892e-39 0 1.6398e-38 0 3.33788e-38 0
7.09813 1.65502e-13 1.65502e-13 8.09742e-19 4.89263e-06 7.50769e-05 0 0 0 0 0 0 0 0 0 0 2.8026e-45 0 4.2039e-44 0 4.7504e-43 0 3.68682e-42 0 2.14315e-41 0 1.02372e-40 0 4.00165e-40 0 1.3829e-39 0 4.26232e-39 0 1.18066e-38 0 3.07298e-38 0 7.2673e-38 0 1.6578e-37 0 3.52609e-37 0 7.14106e-37 0 1.40401e-36 0
7.46248 1.63304e-13 1.63304e-13 6.41758e-19 3.92983e-06 6.53556e-05 0 0 0 0 0 0 0 0 5.60519e-45 0 2.07392e-43 0 3.38974e-42 0 3.40754e-41 0 2.39496e-40 0 1.27773e-39 0 5.65455e-39 0 2.068e-38 0 6.72679e-38 0 1.96243e-37 0 5.17213e-37 0 1.28476e-36 0 2.91329e-36 0 6.38345e-36 0 1.30862e-35 0 2.56048e-35 0 4.87074e-35 0
7.84553 1.61012e-13 1.61012e-13 4.85753e-19 3.01687e-06 5.60828e-05 0 0 0 1.4013e-45 0 0 5.60519e-45 0 5.21283e-43 0 1.53106e-41 0 2.1817e-40 0 1.95916e-39 0 1.25191e-38 0 6.15478e-38 0 2.53299e-37 0 8.6954e-37 0 2.67016e-36 0 7.39302e-36 0 1.85844e-35 0 4.41577e-35 0 9.62075e-35 0 2.02884e-34 0 4.01593e-34 0 7.6043e-34 0 1.40184e-33 0
8.24824 1.7947e-13 1.7947e-13 3.57376e-19 1.99128e-06 4.82053e-05 0 0 0 7.28675e-44 1.4013e-45 0 5.2829e-43 0 4.10034e-41 0 1.0215e-39 0 1.27853e-38 0 1.03145e-37 0 6.02035e-37 0 2.73837e-36 0 1.05176e-35 0 3.39952e-35 0 9.88272e-35 0 2.60355e-34 0 6.25672e-34 0 1.42513e-33 0 2.98913e-33 0 6.07802e-33 0 1.16365e-32 0 2.13579e-32 0 3.82144e-32 0
8.67162 2.17981e-13 2.1798e-13 3.09883e-19 1.42161e-06 4.19527e-05 0 8.40779e-45 0 4.2053e-42 9.52883e-44 0 4.49354e-41 0 2.8214e-39 0 6.00772e-38 0 6.6466e-37 0 4.84243e-36 0 2.59317e-35 0 1.09542e-34 0 3.93977e-34 0 1.20254e-33 0 3.3184e-33 0 8.33832e-33 0 1.91985e-32 0 4.20069e-32 0 8.49776e-32 0 1.66907e-31 0 3.09573e-31 0 5.51597e-31 0 9.59299e-31 0
9.11674 2.99199e-13 2.99199e-13 3.68614e-19 1.232e-06 3.57925e-05 0 5.85743e-43 0 2.30448e-40 9.96884e-42 0 3.46921e-39 0 1.7796e-37 0 3.26376e-36 0 3.21101e-35 0 2.12323e-34 0 1.04757e-33 0 4.12459e-33 0 1.39357e-32 0 4.02805e-32 0 1.0578e-31 0 2.54106e-31 0 5.61722e-31 0 1.18296e-30 0 2.31215e-30 0 4.39412e-30 0 7.90791e-30 0 1.36985e-29 0 2.31884e-29 0
9.5847 3.64716e-13 3.64715e-13 5.11266e-19 1.40182e-06 3.20311e-05 0 2.88892e-41 1.96182e-44 9.51474e-39 7.38044e-40 0 1.93006e-37 0 8.16899e-36 0 1.29981e-34 0 1.14373e-33 0 6.89646e-33 0 3.14752e-32 0 1.15906e-31 0 3.69011e-31 0 1.01274e-30 0 2.53708e-30 0 5.83934e-30 0 1.24179e-29 0 2.52178e-29 0 4.77026e-29 0 8.78582e-29 0 1.53643e-28 0 2.59104e-28 0 4.27476e-28 0
10.0767 3.53041e-13 3.5304e-13 5.62497e-19 1.59329e-06 3.0415e-05 0 9.63131e-40 1.57926e-42 2.66432e-37 3.50755e-38 0 6.98972e-36 0 2.464e-34 0 3.42515e-33 0 2.71027e-32 0 1.49698e-31 0 6.34406e-31 0 2.19212e-30 0 6.59541e-30 0 1.72303e-29 0 4.12721e-29 0 9.12033e-29 0 1.86938e-28 0 3.6672e-28 0 6.72439e-28 0 1.20211e-27 0 2.04561e-27 0 3.36281e-27 0 5.41407e-27 0
10.5939 3.00585e-13 3.00585e-13 4.9931e-19 1.66113e-06 2.99106e-05 1.4013e-45 2.41685e-38 8.79273e-41 5.63989e-36 1.19764e-36 0 1.84295e-34 0 5.45952e-33 0 6.67399e-32 0 4.77374e-31 0 2.42563e-30 0 9.57979e-30 0 3.11574e-29 0 8.88347e-29 0 2.21448e-28 0 5.08292e-28 0 1.08057e-27 0 2.13857e-27 0 4.0595e-27 0 7.22661e-27 0 1.25576e-26 0 2.08216e-26 0 3.34083e-26 0 5.25506e-26 0
11.1377 2.51127e-13 2.51126e-13 4.19636e-19 1.67101e-06 3.06327e-05 1.44334e-43 5.12389e-37 3.86809e-39 1.01294e-34 3.31016e-35 0 3.98336e-33 0 1.00009e-31 0 1.0819e-30 0 7.02978e-30 0 3.29944e-29 0 1.21856e-28 0 3.74148e-28 0 1.01356e-27 0 2.41641e-27 0 5.32591e-27 0 1.0913e-26 0 2.089e-26 0 3.84323e-26 0 6.65166e-26 0 1.12509e-25 0 1.82e-25 0 2.85355e-25 0 4.3904e-25 0
11.7094 2.01667e-13 2.01666e-13 3.28133e-19 1.6271e-06 3.08164e-05 8.14295e-42 9.04361e-36 1.33147e-37 1.52084e-33 7.32301e-34 0 6.97455e-32 0 1.49611e-30 0 1.44085e-29 0 8.5446e-29 0 3.71882e-28 0 1.28857e-27 0 3.74558e-27 0 9.6648e-27 0 2.20847e-26 0 4.68336e-26 0 9.26608e-26 0 1.71839e-25 0 3.0687e-25 0 5.17079e-25 0 8.52449e-25 0 1.34696e-24 0 2.06601e-24 0 3.11255e-24 0
