# 0.00256808 4 107 : grain size, compostion index, size index
# This grain was stochastically heated: No
# Heating and cooling timescale: 3.87648e-06 inf
# Ratio of heating to cooling to determine stochastic cutoff: 100
# Equilibrium emission is recorded even for those grains in the stochastic regime.
# Emission spectrum was computed for: 
# Type: IRSF
# Scale: 1
# Temperature: -1
# Wavelength  CExt  CAbs  CSca  Albedo G EqEmission StEmission
0.05 4.16104e-05 1.7601e-05 2.40094e-05 0.577006 0.931732 0 0
0.0525665 4.16172e-05 1.74478e-05 2.41694e-05 0.580754 0.925921 0 0
0.0552647 4.16246e-05 1.71934e-05 2.44313e-05 0.586943 0.91703 0 0
0.0581015 4.16329e-05 1.68074e-05 2.48255e-05 0.596295 0.903204 0 0
0.0610839 4.16423e-05 1.64182e-05 2.52241e-05 0.605732 0.8877 0 0
0.0642193 4.16523e-05 1.61461e-05 2.55062e-05 0.61236 0.875091 0 0
0.0675157 4.16626e-05 1.59922e-05 2.56704e-05 0.61615 0.866193 0 0
0.0709813 4.16732e-05 1.59347e-05 2.57385e-05 0.617627 0.860581 0 0
0.0746248 4.16837e-05 1.59575e-05 2.57263e-05 0.617178 0.857845 0 0
0.0784553 4.16943e-05 1.6071e-05 2.56233e-05 0.614551 0.858486 0 0
0.0824824 4.17043e-05 1.63134e-05 2.53909e-05 0.608832 0.864042 0 0
0.0867162 4.17132e-05 1.6415e-05 2.52983e-05 0.606481 0.867024 0 0
0.0911674 4.17246e-05 1.62679e-05 2.54567e-05 0.610113 0.860488 0 0
0.095847 4.17365e-05 1.62475e-05 2.5489e-05 0.610713 0.857182 0 0
0.100767 4.1748e-05 1.62964e-05 2.54516e-05 0.609648 0.856712 0 0
0.105939 4.17585e-05 1.64616e-05 2.52969e-05 0.60579 0.860643 0 0
0.111377 4.17687e-05 1.66321e-05 2.51365e-05 0.601803 0.865727 0 0
0.117094 4.17793e-05 1.67437e-05 2.50356e-05 0.599234 0.868915 0 0
0.123105 4.17904e-05 1.682e-05 2.49703e-05 0.597514 0.870922 0 0
0.129424 4.18018e-05 1.68673e-05 2.49345e-05 0.596494 0.871899 0 0
0.136067 4.18138e-05 1.68824e-05 2.49314e-05 0.596249 0.871656 0 0
0.143051 4.18262e-05 1.68466e-05 2.49796e-05 0.597224 0.869319 0 0
0.150394 4.18373e-05 1.69062e-05 2.49311e-05 0.595905 0.870558 0 0
0.158114 4.1848e-05 1.70873e-05 2.47607e-05 0.591682 0.877033 0 0
0.16623 4.18596e-05 1.7293e-05 2.45666e-05 0.586882 0.884901 0 0
0.174762 4.18727e-05 1.74758e-05 2.43969e-05 0.582644 0.892042 0 0
0.183733 4.18865e-05 1.76386e-05 2.4248e-05 0.578897 0.898429 0 0
0.193164 4.19011e-05 1.77772e-05 2.4124e-05 0.575736 0.903851 0 0
0.203079 4.19166e-05 1.7896e-05 2.40205e-05 0.573056 0.908461 0 0
0.213503 4.19327e-05 1.80018e-05 2.39309e-05 0.570699 0.912516 0 0
0.224463 4.19495e-05 1.80911e-05 2.38584e-05 0.568742 0.915874 0 0
0.235984 4.19666e-05 1.81627e-05 2.38039e-05 0.56721 0.918489 0 0
0.248097 4.19844e-05 1.82192e-05 2.37653e-05 0.56605 0.920458 0 0
0.260832 4.2003e-05 1.82665e-05 2.37365e-05 0.565114 0.922034 0 0
0.274221 4.20221e-05 1.8308e-05 2.37141e-05 0.564324 0.923354 0 0
0.288297 4.20417e-05 1.83446e-05 2.36971e-05 0.563657 0.92445 0 0
0.303095 4.2062e-05 1.83772e-05 2.36848e-05 0.563092 0.925363 0 0
0.318653 4.20832e-05 1.84073e-05 2.36759e-05 0.562597 0.926153 0 0
0.335009 4.21048e-05 1.84349e-05 2.36699e-05 0.562166 0.926821 0 0
0.352205 4.21273e-05 1.84611e-05 2.36662e-05 0.561778 0.927408 0 0
0.370284 4.21505e-05 1.8486e-05 2.36645e-05 0.561429 0.927921 0 0
0.389291 4.21746e-05 1.85093e-05 2.36654e-05 0.561128 0.928342 0 0
0.409273 4.21994e-05 1.85315e-05 2.36679e-05 0.560858 0.928699 0 0
0.430281 4.2225e-05 1.85538e-05 2.36712e-05 0.560596 0.929034 0 0
0.452368 4.22515e-05 1.85748e-05 2.36767e-05 0.560375 0.929287 0 0
0.475588 4.22789e-05 1.85958e-05 2.36831e-05 0.560164 0.929513 0 0
0.5 4.23073e-05 1.86168e-05 2.36905e-05 0.559963 0.929711 0 0
0.525665 4.23364e-05 1.86379e-05 2.36985e-05 0.559766 0.929886 0 0
0.552647 4.23667e-05 1.86598e-05 2.37069e-05 0.559565 0.930059 0 0
0.581015 4.23979e-05 1.86803e-05 2.37176e-05 0.559405 0.930144 0 0
0.610839 4.24302e-05 1.87017e-05 2.37285e-05 0.559236 0.930232 0 0
0.642193 4.24635e-05 1.87241e-05 2.37395e-05 0.559055 0.930324 0 0
0.675157 4.2498e-05 1.87467e-05 2.37513e-05 0.55888 0.930389 0 0
0.709813 4.25337e-05 1.87697e-05 2.3764e-05 0.55871 0.930433 0 0
0.746248 4.25705e-05 1.87936e-05 2.37769e-05 0.55853 0.930473 0 0
0.784553 4.26086e-05 1.88186e-05 2.379e-05 0.558339 0.930513 0 0
0.824824 4.26479e-05 1.88439e-05 2.3804e-05 0.558151 0.930527 0 0
0.867162 4.26884e-05 1.887e-05 2.38184e-05 0.55796 0.930524 0 0
0.911674 4.27303e-05 1.8897e-05 2.38333e-05 0.557761 0.930516 0 0
0.95847 4.27737e-05 1.89251e-05 2.38486e-05 0.557553 0.930498 0 0
1.00767 4.28186e-05 1.89544e-05 2.38642e-05 0.557334 0.930479 0 0
1.05939 4.28648e-05 1.8985e-05 2.38798e-05 0.557096 0.930461 0 0
1.11377 4.29127e-05 1.90169e-05 2.38958e-05 0.556846 0.93044 0 0
1.17094 4.29621e-05 1.90505e-05 2.39116e-05 0.556575 0.930425 0 0
1.23105 4.30132e-05 1.90855e-05 2.39277e-05 0.556287 0.930411 0 0
1.29424 4.30659e-05 1.91223e-05 2.39435e-05 0.555975 0.930405 0 0
1.36067 4.31206e-05 1.91598e-05 2.39608e-05 0.55567 0.930362 0 0
1.43051 4.31773e-05 1.91998e-05 2.39775e-05 0.555327 0.930351 0 0
1.50394 4.32347e-05 1.92411e-05 2.39935e-05 0.554961 0.930322 0 0
1.58114 4.32945e-05 1.92842e-05 2.40102e-05 0.55458 0.930291 0 0
1.6623 4.33562e-05 1.93299e-05 2.40263e-05 0.554161 0.930282 0 0
1.74762 4.34205e-05 1.93774e-05 2.40431e-05 0.553727 0.930271 0 0
1.83733 4.34867e-05 1.94273e-05 2.40594e-05 0.553259 0.930274 0 0
1.93164 4.35539e-05 1.94794e-05 2.40745e-05 0.552752 0.930273 0 0
2.03079 4.36222e-05 1.95333e-05 2.40889e-05 0.552216 0.930256 0 0
2.13503 4.36972e-05 1.95902e-05 2.4107e-05 0.551684 0.930271 0 0
2.24463 4.37798e-05 1.96497e-05 2.41301e-05 0.551169 0.930316 0 0
2.35984 4.38646e-05 1.97117e-05 2.41528e-05 0.550623 0.930358 0 0
2.48097 4.39335e-05 1.97773e-05 2.41562e-05 0.549836 0.930383 0 0
2.60832 4.40055e-05 1.98454e-05 2.41602e-05 0.549025 0.930404 0 0
2.74221 4.41197e-05 1.9916e-05 2.42037e-05 0.548591 0.930532 0 0
2.88297 4.42e-05 1.99911e-05 2.42088e-05 0.547712 0.930614 0 0
3.03095 4.42628e-05 2.00691e-05 2.41937e-05 0.546591 0.930631 3.4756e-300 0
3.18653 4.44171e-05 2.01507e-05 2.42664e-05 0.54633 0.930923 2.77982e-285 0
3.35009 4.44472e-05 2.02367e-05 2.42105e-05 0.544703 0.930881 4.11425e-271 0
3.52205 4.46202e-05 2.03263e-05 2.42939e-05 0.544459 0.931256 1.22334e-257 0
3.70284 4.4662e-05 2.04196e-05 2.42424e-05 0.542798 0.931298 7.9037e-245 0
3.89291 4.48312e-05 2.05188e-05 2.43124e-05 0.542311 0.93174 1.19559e-232 0
4.09273 4.48738e-05 2.06222e-05 2.42516e-05 0.54044 0.931832 4.54512e-221 0
4.30281 4.50942e-05 2.07294e-05 2.43648e-05 0.540309 0.9325 4.645e-210 0
4.52368 4.50655e-05 2.08452e-05 2.42204e-05 0.537448 0.932616 1.36109e-199 0
4.75588 4.54121e-05 2.0968e-05 2.44441e-05 0.538273 0.933766 1.21532e-189 0
5 4.5241e-05 2.10986e-05 2.41424e-05 0.53364 0.93364 3.5045e-180 0
5.25665 4.57386e-05 2.12447e-05 2.44939e-05 0.535519 0.935755 3.45024e-171 0
5.52648 4.55268e-05 2.14151e-05 2.41117e-05 0.529616 0.936233 1.2224e-162 0
5.81015 4.59458e-05 2.16034e-05 2.43424e-05 0.529807 0.938501 1.63846e-154 0
6.10839 4.5974e-05 2.18065e-05 2.41674e-05 0.525676 0.940201 8.70811e-147 0
6.42193 4.60675e-05 2.20401e-05 2.40275e-05 0.521571 0.943027 1.92203e-139 0
6.75157 4.64517e-05 2.23145e-05 2.41371e-05 0.519618 0.94676 1.83913e-132 0
7.09813 4.6445e-05 2.26029e-05 2.38421e-05 0.51334 0.950379 7.94106e-126 0
7.46248 4.62817e-05 2.32208e-05 2.30608e-05 0.498271 0.961234 1.63009e-119 0
7.84553 4.58847e-05 2.33707e-05 2.2514e-05 0.490664 0.969541 1.59501e-113 0
8.24824 4.45152e-05 2.22291e-05 2.22861e-05 0.50064 0.959552 7.43104e-108 0
8.67162 4.50281e-05 2.14152e-05 2.36129e-05 0.524403 0.934839 1.82739e-102 0
9.11674 4.60787e-05 2.04987e-05 2.558e-05 0.555137 0.895363 2.40139e-97 0
9.5847 4.7208e-05 2.02349e-05 2.69732e-05 0.571368 0.863894 1.80459e-92 0
10.0767 4.78214e-05 2.03531e-05 2.74683e-05 0.574394 0.850804 7.88394e-88 0
10.5939 4.82999e-05 2.04042e-05 2.78956e-05 0.577551 0.838318 2.01365e-83 0
11.1377 4.84866e-05 2.06725e-05 2.78141e-05 0.573645 0.836761 3.12866e-79 0
11.7094 4.8615e-05 2.09266e-05 2.76884e-05 0.569545 0.836755 2.99685e-75 0
12.3105 4.86986e-05 2.12487e-05 2.74498e-05 0.563668 0.839749 1.81932e-71 0
12.9424 4.87846e-05 2.16807e-05 2.71038e-05 0.555582 0.846509 7.17012e-68 0
13.6067 4.89102e-05 2.22633e-05 2.66468e-05 0.544812 0.857666 1.87723e-64 0
14.3051 4.90783e-05 2.2961e-05 2.61173e-05 0.532155 0.872038 3.32457e-61 0
15.0394 4.92398e-05 2.33956e-05 2.58442e-05 0.524864 0.878721 3.99465e-58 0
15.8114 4.94066e-05 2.35541e-05 2.58525e-05 0.52326 0.877126 3.31676e-55 0
16.623 4.96684e-05 2.35069e-05 2.61615e-05 0.526724 0.868334 1.94301e-52 0
17.4762 5.01005e-05 2.33391e-05 2.67613e-05 0.534154 0.85378 8.19394e-50 0
18.3733 5.06616e-05 2.31391e-05 2.75226e-05 0.543262 0.836473 2.5368e-47 0
19.3164 5.12143e-05 2.29782e-05 2.82361e-05 0.551333 0.820152 5.87031e-45 0
20.3079 5.16257e-05 2.29378e-05 2.86879e-05 0.55569 0.808389 1.03378e-42 0
21.3503 5.19497e-05 2.29936e-05 2.89561e-05 0.557387 0.800274 1.40284e-40 0
22.4463 5.22551e-05 2.30637e-05 2.91914e-05 0.558633 0.792657 1.4808e-38 0
23.5984 5.25288e-05 2.31769e-05 2.9352e-05 0.558778 0.786377 1.23234e-36 0
24.8097 5.28131e-05 2.3288e-05 2.95251e-05 0.55905 0.779863 8.1654e-35 0
26.0832 5.30785e-05 2.34363e-05 2.96421e-05 0.558459 0.774034 4.36277e-33 0
27.4221 5.33352e-05 2.35739e-05 2.97612e-05 0.558004 0.767962 1.89592e-31 0
28.8297 5.36134e-05 2.37345e-05 2.98789e-05 0.557304 0.761981 6.77804e-30 0
30.3095 5.38829e-05 2.38972e-05 2.99857e-05 0.556497 0.755595 2.01106e-28 0
31.8653 5.41427e-05 2.40759e-05 3.00668e-05 0.555325 0.749432 4.99996e-27 0
33.5009 5.44293e-05 2.42655e-05 3.01638e-05 0.554183 0.743147 1.05046e-25 0
35.2206 5.47412e-05 2.45102e-05 3.0231e-05 0.552253 0.737163 1.88388e-24 0
37.0284 5.50209e-05 2.47308e-05 3.02901e-05 0.55052 0.730184 2.89697e-23 0
38.9291 5.52972e-05 2.49254e-05 3.03719e-05 0.549248 0.722474 3.84849e-22 0
40.9273 5.56222e-05 2.5146e-05 3.04762e-05 0.547914 0.71482 4.45722e-21 0
43.0282 5.59722e-05 2.543e-05 3.05422e-05 0.545667 0.707498 4.53774e-20 0
45.2368 5.62728e-05 2.56988e-05 3.05741e-05 0.543318 0.698975 4.07402e-19 0
47.5588 5.65363e-05 2.59414e-05 3.05949e-05 0.541155 0.689207 3.2442e-18 0
50 5.68483e-05 2.61788e-05 3.06695e-05 0.539498 0.678829 2.30651e-17 0
52.5665 5.72859e-05 2.65043e-05 3.07816e-05 0.537333 0.66959 1.47747e-16 0
55.2648 5.77884e-05 2.69036e-05 3.08849e-05 0.534447 0.661217 8.56598e-16 0
58.1015 5.82308e-05 2.72867e-05 3.09442e-05 0.531405 0.651871 4.50229e-15 0
61.0839 5.85908e-05 2.75912e-05 3.09997e-05 0.529088 0.640016 2.15065e-14 0
64.2193 5.89777e-05 2.78534e-05 3.11243e-05 0.52773 0.626258 9.39229e-14 0
67.5157 5.94739e-05 2.81846e-05 3.12893e-05 0.526101 0.61305 3.78119e-13 0
70.9813 5.99508e-05 2.8623e-05 3.13278e-05 0.522558 0.601299 1.41082e-12 0
74.6248 6.01372e-05 2.90879e-05 3.10493e-05 0.516308 0.58894 4.88322e-12 0
78.4553 5.98648e-05 2.94927e-05 3.03721e-05 0.507345 0.573205 1.56913e-11 0
82.4824 5.92507e-05 2.99443e-05 2.93064e-05 0.494617 0.553274 4.71451e-11 0
86.7162 5.87372e-05 3.07223e-05 2.8015e-05 0.476954 0.529734 1.34105e-10 0
91.1674 5.87945e-05 3.19218e-05 2.68727e-05 0.457062 0.50258 3.63097e-10 0
95.847 5.94698e-05 3.31815e-05 2.62883e-05 0.442044 0.47317 9.27157e-10 0
100.767 5.98254e-05 3.3687e-05 2.61384e-05 0.436912 0.445243 2.18615e-09 0
105.939 5.85983e-05 3.30112e-05 2.55871e-05 0.436653 0.41677 4.71697e-09 0
111.377 5.72671e-05 3.25769e-05 2.46901e-05 0.43114 0.388681 9.74228e-09 0
117.094 5.93096e-05 3.41832e-05 2.51264e-05 0.423648 0.367786 2.03862e-08 0
123.105 6.58335e-05 3.71117e-05 2.87219e-05 0.43628 0.337548 4.21566e-08 0
129.424 7.42293e-05 3.80283e-05 3.62009e-05 0.487691 0.280588 7.87634e-08 0
136.067 8.21388e-05 3.5596e-05 4.65428e-05 0.566636 0.216323 1.28956e-07 0
143.051 8.87366e-05 3.23411e-05 5.63955e-05 0.635538 0.161974 1.96993e-07 0
150.394 9.25816e-05 3.01509e-05 6.24307e-05 0.674332 0.119993 2.97392e-07 0
158.114 9.40959e-05 3.02081e-05 6.38877e-05 0.678964 0.0969474 4.65541e-07 0
166.23 9.60496e-05 3.33529e-05 6.26967e-05 0.652753 0.104925 7.7626e-07 0
174.763 9.99284e-05 3.96816e-05 6.02468e-05 0.6029 0.16433 1.35036e-06 0
183.733 9.87433e-05 4.442e-05 5.43234e-05 0.550147 0.278256 2.14322e-06 0
193.164 8.18512e-05 3.90129e-05 4.28383e-05 0.523368 0.392014 2.59187e-06 0
203.079 5.75481e-05 2.70858e-05 3.04624e-05 0.529337 0.439452 2.40979e-06 0
213.503 3.91179e-05 1.75173e-05 2.16006e-05 0.552193 0.422705 2.03254e-06 0
224.463 2.73489e-05 1.15212e-05 1.58278e-05 0.578734 0.379451 1.70009e-06 0
235.984 1.98669e-05 7.93975e-06 1.19272e-05 0.600353 0.331786 1.45474e-06 0
248.097 1.48959e-05 5.71479e-06 9.1811e-06 0.616351 0.288849 1.27086e-06 0
260.832 1.13586e-05 4.20835e-06 7.15027e-06 0.629502 0.251688 1.11154e-06 0
274.221 8.79006e-06 3.17889e-06 5.61117e-06 0.638354 0.219945 9.76944e-07 0
288.297 6.89586e-06 2.46781e-06 4.42805e-06 0.642132 0.192891 8.6536e-07 0
303.095 5.4656e-06 1.95127e-06 3.51433e-06 0.642991 0.169958 7.66339e-07 0
318.653 4.38124e-06 1.58255e-06 2.79869e-06 0.638789 0.150284 6.83939e-07 0
335.009 3.52707e-06 1.29194e-06 2.23513e-06 0.633708 0.133322 6.04195e-07 0
352.206 2.8539e-06 1.06361e-06 1.79029e-06 0.627314 0.118619 5.2977e-07 0
370.284 2.33353e-06 8.95707e-07 1.43783e-06 0.616158 0.105796 4.68044e-07 0
389.291 1.91266e-06 7.55982e-07 1.15668e-06 0.604749 0.0945366 4.08539e-07 0
409.273 1.57663e-06 6.44764e-07 9.31869e-07 0.59105 0.0846058 3.55498e-07 0
430.282 1.30809e-06 5.55726e-07 7.52365e-07 0.575162 0.0758368 3.08627e-07 0
452.368 1.0884e-06 4.80162e-07 6.08237e-07 0.558836 0.0680572 2.65352e-07 0
475.588 9.12346e-07 4.20104e-07 4.92242e-07 0.539534 0.0611419 2.28381e-07 0
500 7.66179e-07 3.67443e-07 3.98736e-07 0.520422 0.0549727 1.94378e-07 0
525.665 6.48677e-07 3.25108e-07 3.2357e-07 0.498814 0.0494821 1.65647e-07 0
552.648 5.50633e-07 2.87913e-07 2.6272e-07 0.477124 0.0445627 1.39932e-07 0
581.015 4.70327e-07 2.56905e-07 2.13422e-07 0.453773 0.0401502 1.18022e-07 0
610.838 4.03175e-07 2.2963e-07 1.73545e-07 0.430447 0.0361975 9.88604e-08 0
642.193 3.47606e-07 2.06345e-07 1.41261e-07 0.406383 0.0326548 8.25803e-08 0
675.157 3.01136e-07 1.8612e-07 1.15015e-07 0.381939 0.0294663 6.87157e-08 0
709.813 2.62165e-07 1.68496e-07 9.36691e-08 0.357291 0.0265949 5.69796e-08 0
746.247 2.29298e-07 1.52936e-07 7.63619e-08 0.333025 0.0240135 4.70528e-08 0
784.553 2.01454e-07 1.39182e-07 6.22726e-08 0.309115 0.021687 3.87131e-08 0
824.824 1.77725e-07 1.26933e-07 5.07918e-08 0.285789 0.0195907 3.17301e-08 0
867.162 1.57227e-07 1.15788e-07 4.14384e-08 0.263559 0.0177007 2.58678e-08 0
911.674 1.39464e-07 1.05625e-07 3.38391e-08 0.242637 0.0159994 2.09792e-08 0
958.471 1.24208e-07 9.65715e-08 2.7636e-08 0.222498 0.0144649 1.69694e-08 0
1007.67 1.10812e-07 8.82432e-08 2.2569e-08 0.203669 0.0130778 1.36552e-08 0
1059.39 9.94407e-08 8.10029e-08 1.84379e-08 0.185416 0.0118238 1.0991e-08 0
1113.77 8.93151e-08 7.42458e-08 1.50693e-08 0.168721 0.0106919 8.79783e-09 0
1170.94 8.02357e-08 6.79209e-08 1.23147e-08 0.153482 0.00966837 7.00201e-09 0
1231.05 7.22199e-08 6.21554e-08 1.00645e-08 0.139359 0.00874492 5.55482e-09 0
1294.24 6.54245e-08 5.71938e-08 8.23072e-09 0.125805 0.00791074 4.41633e-09 0
1360.67 5.93122e-08 5.25814e-08 6.73085e-09 0.113482 0.00715593 3.49709e-09 0
1430.51 5.37464e-08 4.82428e-08 5.50359e-09 0.102399 0.00647312 2.75546e-09 0
1503.94 4.86911e-08 4.41909e-08 4.50023e-09 0.0924239 0.00585568 2.16165e-09 0
1581.14 4.45166e-08 4.08346e-08 3.68203e-09 0.0827113 0.00529774 1.70628e-09 0
1662.3 4.06847e-08 3.76727e-08 3.012e-09 0.0740328 0.0047928 1.34142e-09 0
1747.63 3.71507e-08 3.46873e-08 2.46343e-09 0.0663092 0.00433582 1.05011e-09 0
1837.33 3.38856e-08 3.18701e-08 2.01546e-09 0.0594784 0.00392291 8.18549e-10 0
1931.64 3.08588e-08 2.92094e-08 1.64943e-09 0.0534507 0.00354973 6.35199e-10 0
2030.79 2.81484e-08 2.67989e-08 1.34953e-09 0.0479435 0.00321172 4.92504e-10 0
2135.03 2.58584e-08 2.47545e-08 1.10386e-09 0.0426885 0.00290541 3.8378e-10 0
2244.63 2.37257e-08 2.28223e-08 9.03492e-10 0.0380807 0.00262888 2.97987e-10 0
2359.84 2.17314e-08 2.0992e-08 7.39428e-10 0.0340258 0.00237863 2.30475e-10 0
2480.97 1.98712e-08 1.92662e-08 6.05016e-10 0.0304469 0.00215209 1.77604e-10 0
2608.32 1.82947e-08 1.77997e-08 4.95058e-10 0.0270602 0.00194731 1.3758e-10 0
2742.21 1.68233e-08 1.6418e-08 4.05312e-10 0.0240923 0.00176234 1.06264e-10 0
2882.96 1.54391e-08 1.51074e-08 3.31759e-10 0.0214882 0.00159487 8.17782e-11 0
3030.95 1.41684e-08 1.38969e-08 2.71483e-10 0.0191611 0.00144318 6.28415e-11 0
3186.53 1.30962e-08 1.2874e-08 2.22205e-10 0.0169672 0.00130584 4.85786e-11 0
3350.09 1.20855e-08 1.19036e-08 1.8191e-10 0.0150519 0.00118168 3.74429e-11 0
3522.05 1.1131e-08 1.09822e-08 1.48887e-10 0.0133758 0.00106926 2.87684e-11 0
3702.84 1.02288e-08 1.0107e-08 1.21828e-10 0.0119103 0.000967468 2.20286e-11 0
3892.91 9.37688e-09 9.27713e-09 9.97491e-11 0.0106378 0.000875542 1.6809e-11 0
4092.73 8.62218e-09 8.54052e-09 8.16593e-11 0.00947083 0.000792298 1.28535e-11 0
4302.81 7.96652e-09 7.89969e-09 6.68311e-11 0.00838899 0.000716886 9.86778e-12 0
4523.68 7.34565e-09 7.29095e-09 5.46936e-11 0.00744572 0.000648651 7.55352e-12 0
4755.88 6.75808e-09 6.7133e-09 4.47839e-11 0.00662673 0.000587008 5.76448e-12 0
5000 6.20516e-09 6.1685e-09 3.666e-11 0.00590799 0.000531186 4.38713e-12 0
