# 3.94133e-08 0 1 : grain size, compostion index, size index
# Heating and cooling timescale: 1.62697e+06 0.850337
# Ratio of heating to cooling to determine stochastic cutoff: 100
# Equilibrium emission is recorded even for those grains in the stochastic regime.
# Emission spectrum was computed for: 
# Type: IRSF
# Scales: 0.5 1 2 5 10
StochasticallyHeated: 1 1 1 1 1
# Temperature: -1
# Wavelength  CExt  CAbs  CSca  Albedo G EqEm1 StEm1 EqEm2 StEm2 EqEm3 StEm3 EqEm4 StEm4 EqEm5 StEm5
0.05 2.60276e-16 2.60264e-16 1.21855e-20 4.68175e-05 0.000339431 0 0 0 0 0 0 0 0 0 0
0.0525665 3.01425e-16 3.01412e-16 1.30638e-20 4.334e-05 0.000302358 0 0 0 0 0 0 0 0 0 0
0.0552647 3.47822e-16 3.47808e-16 1.39937e-20 4.02323e-05 0.000269245 0 0 0 0 0 0 0 0 0 1.4013e-45
0.0581015 4.08559e-16 4.08544e-16 1.47601e-20 3.61271e-05 0.000239632 0 0 0 0 0 1.4013e-45 0 7.00649e-45 0 2.94273e-44
0.0610839 5.66863e-16 5.66847e-16 1.56902e-20 2.7679e-05 0.00021105 0 1.4013e-45 0 7.00649e-45 0 3.08286e-44 0 2.11596e-43 0 8.82818e-43
0.0642193 7.16399e-16 7.16382e-16 1.74758e-20 2.43939e-05 0.000182537 0 3.64338e-44 0 1.65353e-43 0 7.25873e-43 0 4.97181e-42 0 2.06762e-41
0.0675157 8.56928e-16 8.56908e-16 2.05264e-20 2.39535e-05 0.00015381 0 7.20267e-43 0 3.22579e-42 0 1.40718e-41 0 9.55181e-41 0 3.95766e-40
0.0709813 9.84559e-16 9.84538e-16 2.11735e-20 2.15056e-05 0.000128956 0 1.19839e-41 0 5.28346e-41 0 2.2806e-40 0 1.53375e-39 0 6.3305e-39
0.0746248 9.19841e-16 9.19823e-16 1.84752e-20 2.00852e-05 0.000111247 0 1.4518e-40 0 6.22549e-40 0 2.64494e-39 0 1.75755e-38 0 7.22083e-38
0.0784553 7.22829e-16 7.22815e-16 1.43246e-20 1.98173e-05 9.94657e-05 0 1.40144e-39 0 5.63711e-39 0 2.31497e-38 0 1.50429e-37 0 6.13193e-37
0.0824824 5.73756e-16 5.73746e-16 1.00748e-20 1.75594e-05 9.29951e-05 0 1.44658e-38 0 5.06071e-38 0 1.91556e-37 0 1.17985e-36 0 4.72163e-36
0.0867162 4.80634e-16 4.80627e-16 7.76436e-21 1.61544e-05 8.9308e-05 0 1.86002e-37 0 5.28248e-37 0 1.70451e-36 0 9.26839e-36 0 3.53863e-35
0.0911674 4.19386e-16 4.19379e-16 6.51331e-21 1.55306e-05 8.67327e-05 0 2.8572e-36 0 6.76879e-36 0 1.789e-35 0 7.82274e-35 0 2.69064e-34
0.095847 3.75326e-16 3.75321e-16 5.16777e-21 1.37688e-05 9.14547e-05 0 4.55039e-35 0 9.76081e-35 0 2.2233e-34 0 7.63782e-34 0 2.22589e-33
0.100767 3.29481e-16 3.29478e-16 3.52638e-21 1.07028e-05 0.000106665 0 6.5621e-34 0 1.34932e-33 0 2.84936e-33 0 8.27522e-33 0 2.0416e-32
0.105939 2.87262e-16 2.8726e-16 2.44345e-21 8.50599e-06 0.000115066 0 8.36275e-33 0 1.69133e-32 0 3.45881e-32 0 9.22659e-32 0 2.03981e-31
0.111377 2.46529e-16 2.46527e-16 1.49487e-21 6.06369e-06 0.000131687 0 9.24603e-32 0 1.85791e-31 0 3.75068e-31 0 9.64071e-31 0 2.01682e-30
0.117094 2.08957e-16 2.08956e-16 9.32169e-22 4.46105e-06 0.00012058 0 8.90509e-31 0 1.78475e-30 0 3.5841e-30 0 9.07008e-30 0 1.851e-29
0.123105 1.75651e-16 1.7565e-16 6.07457e-22 3.45832e-06 0.000103446 0 7.53371e-30 0 1.50825e-29 0 3.02216e-29 0 7.59754e-29 0 1.53378e-28
0.129424 1.47756e-16 1.47756e-16 3.90795e-22 2.64487e-06 8.69992e-05 0 5.67844e-29 0 1.13628e-28 0 2.27463e-28 0 5.70169e-28 0 1.14552e-27
0.136067 1.34001e-16 1.34001e-16 2.53203e-22 1.88956e-06 7.36083e-05 0 4.13078e-28 0 8.26401e-28 0 1.65358e-27 0 4.13947e-27 0 8.29815e-27
0.143051 1.21622e-16 1.21622e-16 1.66318e-22 1.3675e-06 6.27894e-05 0 2.70649e-27 0 5.41398e-27 0 1.08308e-26 0 2.70961e-26 0 5.42605e-26
0.150394 1.14887e-16 1.14887e-16 1.1331e-22 9.86274e-07 5.35989e-05 0 1.66956e-26 0 3.33956e-26 0 6.68016e-26 0 1.6707e-25 0 3.34384e-25
0.158114 1.13554e-16 1.13554e-16 8.56956e-23 7.54666e-07 4.5898e-05 0 9.79678e-26 0 1.95955e-25 0 3.9195e-25 0 9.80106e-25 0 1.96111e-24
0.16623 1.18066e-16 1.18066e-16 7.91606e-23 6.70477e-07 3.94569e-05 0 5.52325e-25 0 1.10474e-24 0 2.20964e-24 0 5.52492e-24 0 1.10532e-23
0.174762 1.29351e-16 1.29351e-16 9.53831e-23 7.374e-07 3.39264e-05 0 3.01029e-24 0 6.021e-24 0 1.20426e-23 0 3.01097e-23 0 6.02325e-23
0.183733 1.49452e-16 1.49452e-16 1.36206e-22 9.1137e-07 2.88949e-05 0 1.59415e-23 0 3.1885e-23 0 6.37727e-23 0 1.59443e-22 0 3.1894e-22
0.193164 1.84996e-16 1.84995e-16 2.16356e-22 1.16952e-06 2.40446e-05 0 8.36626e-23 0 1.67335e-22 0 3.34681e-22 0 8.36751e-22 0 1.67372e-21
0.203079 2.42311e-16 2.42311e-16 3.30167e-22 1.36258e-06 1.92815e-05 0 4.31413e-22 0 8.6287e-22 0 1.72579e-21 0 4.31468e-21 0 8.63032e-21
0.213503 2.98507e-16 2.98506e-16 4.05074e-22 1.357e-06 1.48294e-05 0 1.94981e-21 0 3.8998e-21 0 7.79982e-21 0 1.95003e-20 0 3.90043e-20
0.224463 2.86665e-16 2.86664e-16 3.36471e-22 1.17375e-06 1.09793e-05 0 6.42355e-21 0 1.28477e-20 0 2.5696e-20 0 6.42421e-20 0 1.28495e-19
0.235984 2.21516e-16 2.21516e-16 2.28226e-22 1.03029e-06 7.83593e-06 0 1.59739e-20 0 3.19492e-20 0 6.38999e-20 0 1.59755e-19 0 3.19533e-19
0.248097 1.67307e-16 1.67307e-16 1.47719e-22 8.82919e-07 6.00262e-06 0 3.65336e-20 0 7.307e-20 0 1.46143e-19 0 3.65368e-19 0 7.30785e-19
0.260832 1.33903e-16 1.33903e-16 1.01447e-22 7.5762e-07 6.24662e-06 0 8.35505e-20 0 1.67107e-19 0 3.34221e-19 0 8.35573e-19 0 1.67125e-18
0.274221 1.13902e-16 1.13901e-16 7.31719e-23 6.42413e-07 8.35315e-06 0 1.9216e-19 0 3.84333e-19 0 7.68679e-19 0 1.92175e-18 0 3.8437e-18
0.288297 1.01417e-16 1.01417e-16 5.45387e-23 5.37765e-07 1.12067e-05 0 4.38862e-19 0 8.77752e-19 0 1.75553e-18 0 4.38894e-18 0 8.77833e-18
0.303095 9.17681e-17 9.1768e-17 4.20273e-23 4.57974e-07 1.25649e-05 0 9.6862e-19 0 1.9373e-18 0 3.87466e-18 0 9.68686e-18 0 1.93746e-17
0.318653 7.99328e-17 7.99327e-17 3.27255e-23 4.09413e-07 1.31099e-05 0 1.96153e-18 0 3.92318e-18 0 7.84648e-18 0 1.96166e-17 0 3.9235e-17
0.335009 7.0023e-17 7.0023e-17 2.57764e-23 3.68114e-07 1.28918e-05 0 3.81619e-18 0 7.63259e-18 0 1.52654e-17 0 3.81643e-17 0 7.63317e-17
0.352205 6.07612e-17 6.07612e-17 2.05534e-23 3.38265e-07 1.22324e-05 0 7.0395e-18 0 1.40793e-17 0 2.81591e-17 0 7.03991e-17 0 1.40804e-16
0.370284 5.19717e-17 5.19717e-17 1.65337e-23 3.18129e-07 1.14358e-05 0 1.22763e-17 0 2.45531e-17 0 4.91069e-17 0 1.2277e-16 0 2.45548e-16
0.389291 4.31688e-17 4.31687e-17 1.34024e-23 3.10465e-07 1.06617e-05 0 1.99767e-17 0 3.99542e-17 0 7.99094e-17 0 1.99777e-16 0 3.99568e-16
0.409273 3.26777e-17 3.26776e-17 1.08966e-23 3.33458e-07 9.9103e-06 0 2.85166e-17 0 5.70344e-17 0 1.1407e-16 0 2.8518e-16 0 5.70379e-16
0.430281 1.99896e-17 1.99896e-17 8.86808e-24 4.43634e-07 9.19643e-06 0 3.1719e-17 0 6.34392e-17 0 1.2688e-16 0 3.17205e-16 0 6.34429e-16
0.452368 1.4033e-17 1.4033e-17 7.21615e-24 5.14228e-07 8.45909e-06 0 3.91029e-17 0 7.82072e-17 0 1.56416e-16 0 3.91046e-16 0 7.82115e-16
0.475588 1.13713e-17 1.13713e-17 5.87581e-24 5.16724e-07 7.75291e-06 0 5.38217e-17 0 1.07645e-16 0 2.15293e-16 0 5.38241e-16 0 1.07651e-15
0.5 6.55465e-18 6.55464e-18 4.79702e-24 7.31851e-07 7.07548e-06 0 5.10475e-17 0 1.02097e-16 0 2.04196e-16 0 5.10497e-16 0 1.02102e-15
0.525665 2.16061e-18 2.16061e-18 3.9205e-24 1.81453e-06 6.43492e-06 0 2.68584e-17 0 5.37178e-17 0 1.07437e-16 0 2.68595e-16 0 5.37204e-16
0.552647 7.15272e-19 7.15269e-19 3.20533e-24 4.48127e-06 5.85144e-06 0 1.37862e-17 0 2.75729e-17 0 5.51462e-17 0 1.37867e-16 0 2.75741e-16
0.581015 2.84936e-19 2.84933e-19 2.63339e-24 9.24205e-06 5.3092e-06 0 8.2822e-18 0 1.65647e-17 0 3.31296e-17 0 8.28251e-17 0 1.65654e-16
0.610839 1.28779e-19 1.28777e-19 2.16413e-24 1.6805e-05 4.81802e-06 0 5.49756e-18 0 1.09953e-17 0 2.19908e-17 0 5.49776e-17 0 1.09958e-16
0.642193 6.29179e-20 6.29161e-20 1.7782e-24 2.82622e-05 4.37248e-06 0 3.84636e-18 0 7.69283e-18 0 1.53858e-17 0 3.84649e-17 0 7.69314e-17
0.675157 3.24299e-20 3.24284e-20 1.46276e-24 4.51052e-05 3.97e-06 0 2.77139e-18 0 5.54286e-18 0 1.10858e-17 0 2.77149e-17 0 5.54308e-17
0.709813 1.74666e-20 1.74654e-20 1.20531e-24 6.90067e-05 3.60904e-06 0 2.03915e-18 0 4.07835e-18 0 8.15676e-18 0 2.03921e-17 0 4.0785e-17
0.746248 9.64871e-21 9.64771e-21 9.93356e-25 0.000102952 3.2865e-06 0 1.50548e-18 0 3.01099e-18 0 6.02203e-18 0 1.50552e-17 0 3.0111e-17
0.784553 5.42305e-21 5.42223e-21 8.18415e-25 0.000150914 2.99358e-06 0 1.10748e-18 0 2.215e-18 0 4.43002e-18 0 1.10752e-17 0 2.21507e-17
0.824824 3.0928e-21 3.09212e-21 6.74134e-25 0.000217969 2.73079e-06 0 8.10381e-19 0 1.62078e-18 0 3.24159e-18 0 8.10405e-18 0 1.62084e-17
0.867162 1.79439e-21 1.79384e-21 5.55489e-25 0.000309569 2.49419e-06 0 5.91927e-19 0 1.18387e-18 0 2.36775e-18 0 5.91944e-18 0 1.18391e-17
0.911674 1.05657e-21 1.05612e-21 4.57486e-25 0.00043299 2.28027e-06 0 4.30953e-19 0 8.61916e-19 0 1.72384e-18 0 4.30965e-18 0 8.61943e-18
0.95847 6.37695e-22 6.37319e-22 3.76459e-25 0.000590343 2.08846e-06 0 3.16135e-19 0 6.32277e-19 0 1.26456e-18 0 3.16144e-18 0 6.32297e-18
1.00767 4.03203e-22 4.02893e-22 3.09805e-25 0.000768361 1.91434e-06 0 2.39021e-19 0 4.78048e-19 0 9.56101e-19 0 2.39028e-18 0 4.78063e-18
1.05939 2.74209e-22 2.73954e-22 2.54846e-25 0.000929384 1.7564e-06 0 1.91401e-19 0 3.82806e-19 0 7.65616e-19 0 1.91406e-18 0 3.82817e-18
1.11377 2.05948e-22 2.05739e-22 2.09571e-25 0.00101759 1.61259e-06 0 1.66811e-19 0 3.33626e-19 0 6.67256e-19 0 1.66816e-18 0 3.33636e-18
1.17094 1.73424e-22 1.73251e-22 1.72265e-25 0.00099332 1.47859e-06 0 1.60761e-19 0 3.21524e-19 0 6.43053e-19 0 1.60765e-18 0 3.21534e-18
1.23105 1.62347e-22 1.62205e-22 1.41665e-25 0.000872611 1.35569e-06 0 1.69988e-19 0 3.39978e-19 0 6.79961e-19 0 1.69992e-18 0 3.39988e-18
1.29424 1.64021e-22 1.63904e-22 1.16538e-25 0.000710508 1.24254e-06 0 1.91578e-19 0 3.83159e-19 0 7.66322e-19 0 1.91582e-18 0 3.8317e-18
1.36067 1.73865e-22 1.73769e-22 9.5812e-26 0.000551071 1.13955e-06 0 2.23849e-19 0 4.47703e-19 0 8.95411e-19 0 2.23855e-18 0 4.47716e-18
1.43051 1.89445e-22 1.89367e-22 7.87354e-26 0.00041561 1.04559e-06 0 2.65833e-19 0 5.3167e-19 0 1.06335e-18 0 2.65839e-18 0 5.31684e-18
1.50394 2.09599e-22 2.09534e-22 6.47259e-26 0.000308809 9.59046e-07 0 3.17119e-19 0 6.34244e-19 0 1.2685e-18 0 3.17127e-18 0 6.34261e-18
1.58114 2.33884e-22 2.3383e-22 5.32099e-26 0.000227506 8.78186e-07 0 3.77668e-19 0 7.55342e-19 0 1.51069e-18 0 3.77676e-18 0 7.55362e-18
1.6623 2.62448e-22 2.62405e-22 4.37473e-26 0.000166689 8.03116e-07 0 4.47939e-19 0 8.95885e-19 0 1.79178e-18 0 4.47949e-18 0 8.95909e-18
1.74762 2.95887e-22 2.95852e-22 3.59714e-26 0.000121571 7.35475e-07 0 5.28889e-19 0 1.05779e-18 0 2.11559e-18 0 5.28901e-18 0 1.05781e-17
1.83733 3.35176e-22 3.35146e-22 2.95745e-26 8.82357e-05 6.73545e-07 0 6.21967e-19 0 1.24394e-18 0 2.4879e-18 0 6.2198e-18 0 1.24398e-17
1.93164 3.81751e-22 3.81727e-22 2.43058e-26 6.36693e-05 6.17148e-07 0 7.29303e-19 0 1.45862e-18 0 2.91725e-18 0 7.29319e-18 0 1.45865e-17
2.03079 4.37802e-22 4.37782e-22 1.99712e-26 4.56169e-05 5.64483e-07 0 8.5425e-19 0 1.70851e-18 0 3.41704e-18 0 8.54268e-18 0 1.70856e-17
2.13503 5.06936e-22 5.06919e-22 1.64224e-26 3.23954e-05 5.16303e-07 0 1.00264e-18 0 2.00529e-18 0 4.01061e-18 0 1.00266e-17 0 2.00534e-17
2.24463 5.94636e-22 5.94623e-22 1.3498e-26 2.26996e-05 4.72508e-07 0 1.18353e-18 0 2.36707e-18 0 4.73418e-18 0 1.18355e-17 0 2.36713e-17
2.35984 7.10519e-22 7.10508e-22 1.10902e-26 1.56086e-05 4.32161e-07 0 1.41328e-18 0 2.82658e-18 0 5.65319e-18 0 1.41331e-17 0 2.82665e-17
2.48097 8.73026e-22 8.73016e-22 9.1103e-27 1.04353e-05 3.94701e-07 0 1.72394e-18 0 3.4479e-18 0 6.89585e-18 0 1.72397e-17 0 3.44799e-17
2.60832 1.1228e-21 1.12279e-21 7.49017e-27 6.671e-06 3.60124e-07 0 2.18714e-18 0 4.37429e-18 0 8.74864e-18 0 2.18718e-17 7.00649e-45 4.3744e-17
2.74221 1.55782e-21 1.55781e-21 6.15602e-27 3.95169e-06 3.29151e-07 0 2.97523e-18 0 5.95049e-18 0 1.1901e-17 0 2.97528e-17 4.72238e-43 5.95063e-17
2.88297 2.48376e-21 2.48375e-21 5.05562e-27 2.03547e-06 3.00356e-07 0 4.62377e-18 0 9.24757e-18 0 1.84952e-17 5.60519e-45 4.62385e-17 2.80414e-41 9.24779e-17
3.03095 5.36155e-21 5.36154e-21 4.15266e-27 7.74526e-07 2.75257e-07 0 9.67419e-18 0 1.93485e-17 0 3.86971e-17 5.64723e-43 9.67435e-17 1.8664e-39 1.93489e-16
3.18653 2.98835e-20 2.98835e-20 3.41155e-27 1.14162e-07 2.51332e-07 0 5.19808e-17 0 1.03962e-16 1.4013e-45 2.07925e-16 1.20571e-40 5.19816e-16 2.68015e-37 1.03964e-15
3.35009 1.6412e-19 1.6412e-19 2.80176e-27 1.70714e-08 2.29045e-07 0 2.7378e-16 0 5.47562e-16 3.01279e-43 1.09513e-15 2.0951e-38 2.73784e-15 3.19677e-35 5.47574e-15
3.52205 8.88376e-21 8.88375e-21 2.29988e-27 2.58886e-07 2.07877e-07 0 1.41414e-17 0 2.82828e-17 7.42688e-43 5.6566e-17 2.99442e-38 1.41416e-16 3.19438e-35 2.82834e-16
3.70284 3.75686e-21 3.75686e-21 1.88872e-27 5.0274e-07 1.90222e-07 0 5.6792e-18 1.4013e-45 1.13584e-17 1.17121e-41 2.2717e-17 2.8151e-37 5.67928e-17 2.13661e-34 1.13587e-16
3.89291 2.64088e-21 2.64087e-21 1.55051e-27 5.87118e-07 1.73729e-07 0 3.77373e-18 6.02558e-44 7.54749e-18 2.54292e-40 1.50951e-17 3.73509e-36 3.77379e-17 2.05073e-33 7.54764e-17
4.09273 2.36288e-21 2.36288e-21 1.27267e-27 5.3861e-07 1.58463e-07 0 3.17761e-18 2.08373e-42 6.35523e-18 5.87163e-39 1.27105e-17 5.39858e-35 3.17765e-17 2.17835e-32 6.35536e-17
4.30281 2.40469e-21 2.40469e-21 1.04442e-27 4.34325e-07 1.438e-07 1.4013e-44 3.03043e-18 6.79882e-41 6.06087e-18 1.29979e-37 1.21218e-17 7.65383e-34 3.03046e-17 2.30409e-31 6.06098e-17
4.52368 2.65322e-21 2.65321e-21 8.57355e-28 3.23138e-07 1.302e-07 6.1517e-43 3.12056e-18 2.00564e-39 6.24113e-18 2.65141e-36 1.24823e-17 1.02192e-32 3.12059e-17 2.3282e-30 6.24124e-17
4.75588 3.14424e-21 3.14424e-21 7.03526e-28 2.23751e-07 1.19603e-07 2.437e-41 3.43791e-18 5.34704e-38 6.87584e-18 4.97676e-35 1.37517e-17 1.28176e-31 3.43795e-17 2.24028e-29 6.87595e-17
5 4.27828e-21 4.27828e-21 5.77132e-28 1.34898e-07 1.06822e-07 9.21575e-40 4.3326e-18 1.38888e-36 8.66521e-18 9.25864e-34 1.73305e-17 1.62508e-30 4.33264e-17 2.20741e-28 8.66535e-17
5.25665 1.14446e-20 1.14446e-20 4.73551e-28 4.13776e-08 9.70419e-08 5.75432e-38 1.06963e-17 6.06677e-35 2.13927e-17 2.94419e-32 4.27855e-17 3.58832e-29 1.06964e-16 3.83493e-27 2.1393e-16
5.52648 9.89484e-21 9.89484e-21 3.88536e-28 3.92665e-08 8.86857e-08 9.83591e-37 8.506e-18 7.3822e-34 1.7012e-17 2.64883e-31 3.40241e-17 2.28198e-28 8.50607e-17 1.94143e-26 1.70123e-16
5.81015 1.66841e-20 1.66841e-20 3.18579e-28 1.90948e-08 7.87695e-08 2.79994e-35 1.31494e-17 1.52101e-32 2.62987e-17 4.09506e-30 5.25976e-17 2.53634e-27 1.31495e-16 1.73698e-25 2.62991e-16
6.10839 5.4361e-20 5.4361e-20 2.61149e-28 4.80398e-09 7.05975e-08 1.32535e-33 3.9161e-17 5.29397e-31 7.83221e-17 1.08458e-28 1.56645e-16 4.90789e-26 3.91613e-16 2.7344e-24 7.83231e-16
6.42193 3.64249e-20 3.64249e-20 2.14071e-28 5.87707e-09 6.73926e-08 1.1184e-32 2.39155e-17 3.33453e-30 4.7831e-17 5.26816e-28 9.56622e-17 1.76861e-25 2.39156e-16 8.09757e-24 4.78316e-16
6.75157 3.00861e-20 3.00861e-20 1.75504e-28 5.83341e-09 5.65736e-08 1.01552e-31 1.79551e-17 2.29252e-29 3.59103e-17 2.82874e-27 7.18207e-17 7.1489e-25 1.79552e-16 2.71568e-23 3.59107e-16
7.09813 3.39242e-20 3.39242e-20 1.43805e-28 4.23901e-09 5.0344e-08 1.10619e-30 1.83559e-17 1.91664e-28 3.67117e-17 1.86945e-26 7.34235e-17 3.60622e-24 1.83559e-16 1.14701e-22 3.67121e-16
7.46248 7.75246e-20 7.75246e-20 1.17795e-28 1.51946e-09 4.70173e-08 2.15947e-29 3.79425e-17 2.90908e-27 7.58849e-17 2.26887e-25 1.5177e-16 3.38509e-23 3.79426e-16 9.09341e-22 7.58856e-16
7.84553 9.79721e-20 9.79721e-20 9.65255e-29 9.85235e-10 3.9446e-08 2.07403e-28 4.32775e-17 2.19917e-26 8.65549e-17 1.38655e-24 1.7311e-16 1.62018e-22 4.32776e-16 3.7063e-21 8.65557e-16
8.24824 4.72762e-20 4.72762e-20 7.907e-29 1.67251e-09 3.91569e-08 6.80519e-28 1.88109e-17 5.74636e-26 3.76217e-17 2.95939e-24 7.52434e-17 2.74082e-22 1.88109e-16 5.38133e-21 3.7622e-16
8.67162 6.4778e-20 6.4778e-20 6.4728e-29 9.99228e-10 2.89851e-08 5.70384e-27 2.31745e-17 3.87845e-25 4.6349e-17 1.64774e-23 9.26981e-17 1.22334e-21 2.31745e-16 2.07694e-20 4.63493e-16
9.11674 1.93773e-20 1.93773e-20 5.2987e-29 2.73449e-09 2.55536e-08 9.43753e-27 6.22282e-18 5.22251e-25 1.24456e-17 1.84763e-23 2.48912e-17 1.11158e-21 6.22281e-17 1.6435e-20 1.24457e-16
9.5847 1.52286e-20 1.52286e-20 4.33582e-29 2.84716e-09 2.24848e-08 3.72806e-26 4.38365e-18 1.69591e-24 8.76727e-18 5.04105e-23 1.75345e-17 2.48297e-21 4.38364e-17 3.21874e-20 8.76732e-17
10.0767 1.66912e-20 1.66912e-20 3.54635e-29 2.12469e-09 1.70119e-08 1.87506e-25 4.30136e-18 7.07926e-24 8.60269e-18 1.78313e-22 1.72054e-17 7.2611e-21 4.30134e-17 8.30598e-20 8.60272e-17
10.5939 2.57912e-20 2.57912e-20 2.89846e-29 1.12382e-09 1.67199e-08 1.21927e-24 5.94398e-18 3.85547e-23 1.18879e-17 8.29585e-22 2.37758e-17 2.81891e-20 5.94395e-17 2.86282e-19 1.18879e-16
11.1377 1.70779e-19 1.70779e-19 2.36713e-29 1.38608e-10 1.99298e-08 3.12882e-23 3.5169e-17 8.35841e-22 7.03378e-17 1.54823e-20 1.40675e-16 4.42889e-19 3.51688e-16 4.01658e-18 7.03379e-16
11.7094 8.36694e-20 8.36694e-20 1.95123e-29 2.33207e-10 2.41392e-08 5.49282e-23 1.53864e-17 1.24991e-21 3.07727e-17 2.00769e-20 6.15454e-17 4.87581e-19 1.53863e-16 3.9706e-18 3.07727e-16
12.3105 8.53676e-20 8.53676e-20 1.58655e-29 1.85849e-10 8.21369e-09 1.86398e-22 1.40128e-17 3.64139e-21 2.80255e-17 5.10754e-20 5.60509e-17 1.06151e-18 1.40127e-16 7.80301e-18 2.80255e-16
12.9424 6.62697e-20 6.62697e-20 1.2955e-29 1.95489e-10 7.74705e-09 4.4832e-22 9.70781e-18 7.57515e-21 1.94155e-17 9.33979e-20 3.88309e-17 1.67383e-18 9.70769e-17 1.11623e-17 1.94154e-16
13.6067 4.52791e-20 4.52791e-20 1.05786e-29 2.33632e-10 -1.00037e-08 8.87187e-22 5.91951e-18 1.30578e-20 1.18389e-17 1.42414e-19 2.36778e-17 2.21683e-18 5.91942e-17 1.34754e-17 1.18389e-16
14.3051 2.78475e-20 2.78475e-20 8.63134e-30 3.0995e-10 2.54329e-10 1.48213e-21 3.24983e-18 1.91304e-20 6.49962e-18 1.8567e-19 1.29992e-17 2.52764e-18 3.24978e-17 1.40687e-17 6.49956e-17
15.0394 2.16951e-20 2.16951e-20 7.03833e-30 3.24421e-10 -2.02552e-08 2.9509e-21 2.26113e-18 3.36167e-20 4.52223e-18 2.92e-19 9.04442e-18 3.49938e-18 2.26109e-17 1.79114e-17 4.52218e-17
15.8114 2.17311e-20 2.17311e-20 5.7392e-30 2.641e-10 2.1699e-09 7.12787e-21 2.02412e-18 7.21065e-20 4.0482e-18 5.63591e-19 8.09636e-18 5.98289e-18 2.02407e-17 2.82766e-17 4.04814e-17
16.623 2.96717e-20 2.96717e-20 4.679e-30 1.57692e-10 -6.15721e-09 2.22095e-20 2.47219e-18 2.0067e-19 4.94432e-18 1.41865e-18 9.88858e-18 1.34193e-17 2.47212e-17 5.87914e-17 4.94422e-17
17.4762 2.53427e-20 2.53427e-20 3.81265e-30 1.50443e-10 1.60822e-08 4.10735e-20 1.89087e-18 3.33299e-19 3.7817e-18 2.14168e-18 7.56335e-18 1.81537e-17 1.89081e-17 7.3999e-17 3.78161e-17
18.3733 1.66738e-20 1.66738e-20 3.10504e-30 1.86222e-10 -1.56829e-08 5.56637e-20 1.11555e-18 4.07802e-19 2.23106e-18 2.39289e-18 4.46209e-18 1.82732e-17 1.11551e-17 6.95475e-17 2.231e-17
19.3164 1.39595e-20 1.39595e-20 2.53201e-30 1.81382e-10 -3.69895e-09 9.15384e-20 8.38729e-19 6.08491e-19 1.67743e-18 3.27498e-18 3.35483e-18 2.26462e-17 8.38694e-18 8.07463e-17 1.67737e-17
20.3079 1.18993e-20 1.18993e-20 2.06605e-30 1.73628e-10 -4.52102e-08 1.46497e-19 6.43126e-19 8.87801e-19 1.28623e-18 4.40131e-18 2.57243e-18 2.76928e-17 6.43095e-18 9.27985e-17 1.28618e-17
21.3503 1.02699e-20 1.02699e-20 1.68764e-30 1.64329e-10 -5.16247e-08 2.27397e-19 5.00212e-19 1.26202e-18 1.00041e-18 5.78612e-18 2.00079e-18 3.32794e-17 5.00184e-18 1.05127e-16 1.00035e-17
22.4463 8.90079e-21 8.90079e-21 1.383e-30 1.55379e-10 2.11668e-08 3.40257e-19 3.91445e-19 1.7368e-18 7.82873e-19 7.39236e-18 1.56572e-18 3.90371e-17 3.9142e-18 1.16582e-16 7.82825e-18
23.5984 7.72891e-21 7.72891e-21 1.14012e-30 1.47514e-10 -1.503e-08 4.90645e-19 3.07534e-19 2.31284e-18 6.15054e-19 9.1721e-18 1.23009e-18 4.46565e-17 3.07511e-18 1.2643e-16 6.15008e-18
24.8097 6.72047e-21 6.72047e-21 9.48017e-31 1.41064e-10 1.70763e-08 6.82749e-19 2.42444e-19 2.98376e-18 4.84875e-19 1.10631e-17 9.6973e-19 4.98581e-17 2.42423e-18 1.34169e-16 4.84832e-18
26.0832 5.85336e-21 5.85336e-21 7.98484e-31 1.36415e-10 -2.32829e-08 9.18754e-19 1.91853e-19 3.73621e-18 3.83695e-19 1.29945e-17 7.67371e-19 5.44138e-17 1.91834e-18 1.39527e-16 3.83654e-18
27.4221 5.10994e-21 5.10994e-21 6.81837e-31 1.33434e-10 1.85779e-08 1.19843e-18 1.5249e-19 4.55094e-18 3.04969e-19 1.48938e-17 6.09922e-19 5.81575e-17 1.52473e-18 1.42436e-16 3.04931e-18
