# 1.122e-05 0 100 : grain size, compostion index, size index
# Heating and cooling timescale: 0.0276595 126713
# Ratio of heating to cooling to determine stochastic cutoff: 100
# Equilibrium emission is recorded even for those grains in the stochastic regime.
# Emission spectrum was computed for: 
# Type: IRSF
# Scales: 0.25 0.5 1 1.5 2 2.5 3 3.5 4 4.5 5 5.5 6 6.5 7 7.5 8 8.5 9 9.5 10
# StochasticallyHeated: 0 0 0 0 0 0 0 0 0 0 0 0 0 0 0 0 0 0 0 0 0
# Temperature: -1
# Wavelength  CExt  CAbs  CSca  Albedo G EqEm1 StEm1 EqEm2 StEm2 EqEm3 StEm3 EqEm4 StEm4 EqEm5 StEm5 EqEm6 StEm6 EqEm7 StEm7 EqEm8 StEm8 EqEm9 StEm9 EqEm10 StEm10 EqEm11 StEm11 EqEm12 StEm12 EqEm13 StEm13 EqEm14 StEm14 EqEm15 StEm15 EqEm16 StEm16 EqEm17 StEm17 EqEm18 StEm18 EqEm19 StEm19 EqEm20 StEm20 EqEm21 StEm21
0.05 2.51177e-10 1.10042e-10 1.41135e-10 0.561894 0.00576547 0 0 0 0 0 0 0 0 0 0 0 0 0 0 0 0 0 0 0 0 0 0 0 0 0 0 0 0 0 0 0 0 0 0 0 0 0 0 0 0 0 0
0.0525665 2.77624e-10 1.21629e-10 1.55995e-10 0.561894 0.00637255 0 0 0 0 0 0 0 0 0 0 0 0 0 0 0 0 0 0 0 0 0 0 0 0 0 0 0 0 0 0 0 0 0 0 0 0 0 0 0 0 0 0
0.0552647 3.06857e-10 1.34436e-10 1.72421e-10 0.561894 0.00704355 0 0 0 0 0 0 0 0 0 0 0 0 0 0 0 0 0 0 0 0 0 0 0 0 0 0 0 0 0 0 0 0 0 0 0 0 0 0 0 0 0 0
0.0581015 3.39167e-10 1.48591e-10 1.90576e-10 0.561894 0.0077852 0 0 0 0 0 0 0 0 0 0 0 0 0 0 0 0 0 0 0 0 0 0 0 0 0 0 0 0 0 0 0 0 0 0 0 0 0 0 0 0 0 0
0.0610839 3.7488e-10 1.64237e-10 2.10643e-10 0.561894 0.00860494 0 0 0 0 0 0 0 0 0 0 0 0 0 0 0 0 0 0 0 0 0 0 0 0 0 0 0 0 0 0 0 0 0 0 0 0 0 0 0 0 0 0
0.0642193 4.14353e-10 1.81531e-10 2.32822e-10 0.561894 0.009511 0 0 0 0 0 0 0 0 0 0 0 0 0 0 0 0 0 0 0 0 0 0 0 0 0 0 0 0 0 0 0 0 0 0 0 0 0 0 0 0 0 0
0.0675157 4.57982e-10 2.00645e-10 2.57337e-10 0.561894 0.0105125 0 0 0 0 0 0 0 0 0 0 0 0 0 0 0 0 0 0 0 0 0 0 0 0 0 0 0 0 0 0 0 0 0 0 0 0 0 0 0 0 0 0
0.0709813 5.06206e-10 2.21772e-10 2.84434e-10 0.561894 0.0116194 0 0 0 0 0 0 0 0 0 0 0 0 0 0 0 0 0 0 0 0 0 0 0 0 0 0 0 0 0 0 0 0 0 0 0 0 0 0 0 0 0 0
0.0746248 5.59507e-10 2.45124e-10 3.14383e-10 0.561894 0.0128428 0 0 0 0 0 0 0 0 0 0 0 0 0 0 0 0 0 0 0 0 0 0 0 0 0 0 0 0 0 0 0 0 0 0 0 0 0 0 0 0 0 0
0.0784553 6.1842e-10 2.70934e-10 3.47486e-10 0.561894 0.0141951 0 0 0 0 0 0 0 0 0 0 0 0 0 0 0 0 0 0 0 0 0 0 0 0 0 0 0 0 0 0 0 0 0 0 0 0 0 0 0 0 0 0
0.0824824 6.83537e-10 2.99462e-10 3.84075e-10 0.561894 0.0156898 0 0 0 0 0 0 0 0 0 0 0 0 0 0 0 0 0 0 0 0 0 0 0 0 0 0 0 0 0 0 0 0 0 0 0 0 0 0 0 0 0 0
0.0867162 7.5551e-10 3.30994e-10 4.24516e-10 0.561894 0.0173419 0 0 0 0 0 0 0 0 0 0 0 0 0 0 0 0 0 0 0 0 0 0 0 0 0 0 0 0 0 0 0 0 0 0 0 0 0 0 0 0 0 0
0.0911674 8.35062e-10 3.65846e-10 4.69216e-10 0.561894 0.0191679 0 0 0 0 0 0 0 0 0 0 0 0 0 0 0 0 0 0 0 0 0 0 0 0 0 0 0 0 0 0 0 0 0 0 0 0 0 0 0 0 0 0
0.095847 9.2299e-10 4.04368e-10 5.18622e-10 0.561894 0.0211862 0 0 0 0 0 0 0 0 0 0 0 0 0 0 0 0 0 0 0 0 0 0 0 0 0 0 0 0 0 0 0 0 0 0 0 0 0 0 0 0 0 0
0.100767 1.0036e-09 4.42922e-10 5.60674e-10 0.558665 0.0235692 0 0 0 0 0 0 0 0 0 0 0 0 0 0 0 0 0 0 0 0 0 0 0 0 0 0 0 0 0 0 0 0 0 0 0 0 0 0 0 0 0 0
0.105939 1.00088e-09 4.6116e-10 5.39721e-10 0.539246 0.0256046 0 0 0 0 0 0 0 0 0 0 0 0 0 0 0 0 0 0 0 0 0 0 0 0 0 0 0 0 0 0 0 0 0 0 0 0 0 0 0 0 0 0
0.111377 1.00451e-09 4.6845e-10 5.36062e-10 0.533654 0.0289403 0 0 0 0 0 0 0 0 0 0 0 0 0 0 0 0 0 0 0 0 0 0 0 0 0 0 0 0 0 0 0 0 0 0 0 0 0 0 0 0 0 0
0.117094 1.00643e-09 4.86461e-10 5.19971e-10 0.516648 0.0274507 0 0 0 0 0 0 0 0 0 0 0 0 0 0 0 0 0 0 0 0 0 0 0 0 0 0 0 0 0 0 0 0 0 0 0 0 0 0 0 0 0 0
0.123105 1.01775e-09 5.11062e-10 5.06692e-10 0.497853 0.0236555 0 0 0 0 0 0 0 0 0 0 0 0 0 0 0 0 0 0 0 0 0 0 0 0 0 0 0 0 0 0 0 0 0 0 0 0 0 0 0 0 0 0
0.129424 1.01863e-09 5.34164e-10 4.84467e-10 0.475606 0.0199126 0 0 0 0 0 0 0 0 0 0 0 0 0 0 0 0 0 0 0 0 0 0 0 0 0 0 0 0 0 0 0 0 0 0 0 0 0 0 0 0 0 0
0.136067 1.01586e-09 5.49808e-10 4.66055e-10 0.458777 0.0168557 0 0 0 0 0 0 0 0 0 0 0 0 0 0 0 0 0 0 0 0 0 0 0 0 0 0 0 0 0 0 0 0 0 0 0 0 0 0 0 0 0 0
0.143051 1.05663e-09 5.52619e-10 5.04008e-10 0.476997 0.0143876 0 0 0 0 0 0 0 0 0 0 0 0 0 0 0 0 0 0 0 0 0 0 0 0 0 0 0 0 0 0 0 0 0 0 0 0 0 0 0 0 0 0
0.150394 1.07402e-09 5.44762e-10 5.29262e-10 0.492784 0.0122986 0 0 0 0 0 0 0 0 0 0 0 0 0 0 0 0 0 0 0 0 0 0 0 0 0 0 0 0 0 0 0 0 0 0 0 0 0 0 0 0 0 0
0.158114 1.01633e-09 5.31754e-10 4.84578e-10 0.476791 0.01055 0 0 0 0 0 0 0 0 0 0 0 0 0 0 0 0 0 0 0 0 0 0 0 0 0 0 0 0 0 0 0 0 0 0 0 0 0 0 0 0 0 0
0.16623 9.28295e-10 5.19872e-10 4.08423e-10 0.439971 0.00908216 0 0 0 0 0 0 0 0 0 0 0 0 0 0 0 0 0 0 0 0 0 0 0 0 0 0 0 0 0 0 0 0 0 0 0 0 0 0 0 0 0 0
0.174762 8.73229e-10 5.10809e-10 3.62421e-10 0.415035 0.00782097 0 0 0 0 0 0 0 0 0 0 0 0 0 0 0 0 0 0 0 0 0 0 0 0 0 0 0 0 0 0 0 0 0 0 0 0 0 0 0 0 0 0
0.183733 8.66121e-10 5.04021e-10 3.62101e-10 0.418072 0.00667218 0 0 0 0 0 0 0 0 0 0 0 0 0 0 0 0 0 0 0 0 0 0 0 0 0 0 0 0 0 0 0 0 0 0 0 0 0 0 0 0 0 0
0.193164 9.10309e-10 5.01845e-10 4.08464e-10 0.448709 0.00556038 0 0 0 0 0 0 0 0 0 0 0 0 0 0 0 0 0 0 0 0 0 0 0 0 0 0 0 0 0 0 0 0 0 0 0 0 0 0 0 0 0 0
0.203079 9.89224e-10 5.07349e-10 4.81875e-10 0.487124 0.00446034 0 0 0 0 0 0 0 0 0 0 0 0 0 0 0 0 0 0 0 0 0 0 0 0 0 0 0 0 0 0 0 0 0 0 0 0 0 0 0 0 0 0
0.213503 1.07951e-09 5.20037e-10 5.59474e-10 0.518266 0.00342932 0 0 0 0 0 0 0 0 0 0 0 0 0 0 0 0 0 0 0 0 0 0 0 0 0 0 0 0 0 0 0 0 0 0 0 0 0 0 0 0 0 0
0.224463 1.15647e-09 5.309e-10 6.25571e-10 0.540931 0.00254317 0 0 0 0 0 0 0 0 0 0 0 0 0 0 0 0 0 0 0 0 0 0 0 0 0 0 0 0 0 0 0 0 0 0 0 0 0 0 0 0 0 0
0.235984 1.19922e-09 5.28986e-10 6.70236e-10 0.558892 0.00182186 0 0 0 0 0 0 0 0 0 0 0 0 0 0 0 0 0 0 0 0 0 0 0 0 0 0 0 0 0 0 0 0 0 0 0 0 0 0 0 0 0 0
0.248097 1.21059e-09 5.19692e-10 6.90902e-10 0.570713 0.00138916 0 0 0 0 0 0 0 0 0 0 0 0 0 0 0 0 0 0 0 0 0 0 0 0 0 0 0 0 0 0 0 0 0 0 0 0 0 0 0 0 0 0
0.260832 1.19977e-09 5.13871e-10 6.85894e-10 0.57169 0.00141961 0 0 0 0 0 0 0 0 0 0 0 0 0 0 0 0 0 0 0 0 0 0 0 0 0 0 0 0 0 0 0 0 0 0 0 0 0 0 0 0 0 0
0.274221 1.17578e-09 5.15767e-10 6.60015e-10 0.561342 0.00187131 0 0 0 0 0 0 0 0 0 0 0 0 0 0 0 0 0 0 0 0 0 0 0 0 0 0 0 0 0 0 0 0 0 0 0 0 0 0 0 0 0 0
0.288297 1.15724e-09 5.29542e-10 6.27702e-10 0.542411 0.00251556 0 0 0 0 0 0 0 0 0 0 0 0 0 0 0 0 0 0 0 0 0 0 0 0 0 0 0 0 0 0 0 0 0 0 0 0 0 0 0 0 0 0
0.303095 1.15348e-09 5.52916e-10 6.00564e-10 0.520654 0.0028362 0 0 0 0 0 0 0 0 0 0 0 0 0 0 0 0 0 0 0 0 0 0 0 0 0 0 0 0 0 0 0 0 0 0 0 0 0 0 0 0 0 0
0.318653 1.16081e-09 5.78977e-10 5.81831e-10 0.501229 0.00297223 0 0 0 0 0 0 0 0 0 0 0 0 0 0 0 0 0 0 0 0 0 0 0 0 0 0 0 0 0 0 0 0 0 0 0 0 0 0 0 0 0 0
0.335009 1.17857e-09 6.03564e-10 5.75004e-10 0.487883 0.00293231 0 0 0 0 0 0 0 0 0 0 0 0 0 0 0 0 0 0 0 0 0 0 0 0 0 0 0 0 0 0 0 0 0 0 0 0 0 0 0 0 0 0
0.352205 1.20338e-09 6.2526e-10 5.7812e-10 0.480413 0.00278811 0 0 0 0 0 0 0 0 0 0 0 0 0 0 0 0 0 0 0 0 0 0 0 0 0 0 0 0 0 0 0 0 0 0 0 0 0 0 0 0 0 0
0.370284 1.22354e-09 6.41743e-10 5.81794e-10 0.475502 0.00261033 0 0 0 0 0 0 0 0 0 0 0 0 0 0 0 0 0 0 0 0 0 0 0 0 0 0 0 0 0 0 0 0 0 0 0 0 0 0 0 0 0 0
0.389291 1.23196e-09 6.50743e-10 5.81213e-10 0.471781 0.00243645 0 0 0 0 0 0 0 0 0 0 0 0 0 0 0 0 0 0 0 0 0 0 0 0 0 0 0 0 0 0 0 0 0 0 0 0 0 0 0 0 0 0
0.409273 1.231e-09 6.52629e-10 5.78368e-10 0.469837 0.00226652 0 0 0 0 0 0 0 0 0 0 0 0 0 0 0 0 0 0 0 0 0 0 0 0 0 0 0 0 0 0 0 0 0 0 0 0 0 0 0 0 0 0
0.430281 1.22658e-09 6.49709e-10 5.76866e-10 0.470306 0.00210471 0 0 0 0 0 0 0 0 0 0 0 0 0 0 0 0 0 0 0 0 0 0 0 0 0 0 0 0 0 0 0 0 0 0 0 0 0 0 0 0 0 0
0.452368 1.22453e-09 6.45241e-10 5.79292e-10 0.473072 0.00193723 0 0 0 0 0 0 0 0 0 0 0 0 0 0 0 0 0 0 0 0 0 0 0 0 0 0 0 0 0 0 0 0 0 0 0 0 0 0 0 0 0 0
0.475588 1.22873e-09 6.42384e-10 5.86351e-10 0.477199 0.00177642 0 0 0 0 0 0 0 0 0 0 0 0 0 0 0 0 0 0 0 0 0 0 0 0 0 0 0 0 0 0 0 0 0 0 0 0 0 0 0 0 0 0
0.5 1.24041e-09 6.43609e-10 5.96804e-10 0.481133 0.00162159 0 0 0 0 0 0 0 0 0 0 0 0 0 0 0 0 0 0 0 0 0 0 0 0 0 0 0 0 0 0 0 0 0 0 0 0 0 0 0 0 0 0
0.525665 1.25755e-09 6.49918e-10 6.07629e-10 0.483186 0.0014751 0 0 0 0 0 0 0 0 0 0 0 0 0 0 0 0 0 0 0 0 0 0 0 0 0 0 0 0 0 0 0 0 0 0 0 0 0 0 0 0 0 0
0.552648 1.27553e-09 6.6068e-10 6.14846e-10 0.482033 0.00134175 0 0 0 0 0 0 0 0 0 0 0 0 0 0 0 0 0 0 0 0 0 0 0 0 0 0 0 0 0 0 0 0 0 0 0 0 0 0 0 0 0 0
0.581015 1.28825e-09 6.73692e-10 6.14555e-10 0.477047 0.00121775 0 0 0 0 0 0 0 0 0 0 0 0 0 0 0 0 0 0 0 0 0 0 0 0 0 0 0 0 0 0 0 0 0 0 0 0 0 0 0 0 0 0
0.610839 1.28989e-09 6.85637e-10 6.04254e-10 0.468453 0.00110516 0 0 0 0 0 0 0 0 0 0 0 0 0 0 0 0 0 0 0 0 0 0 0 0 0 0 0 0 0 0 0 0 0 0 0 0 0 0 0 0 0 0
0.642193 1.27608e-09 6.93101e-10 5.82977e-10 0.456851 0.00100302 0 0 0 0 0 0 0 0 0 0 0 0 0 0 0 0 0 0 0 0 0 0 0 0 0 0 0 0 0 0 0 0 0 0 0 0 0 0 0 0 0 0
0.675157 1.2451e-09 6.93505e-10 5.51597e-10 0.443013 0.000910957 0 0 0 0 0 0 0 0 0 0 0 0 0 0 0 0 0 0 0 0 0 0 0 0 0 0 0 0 0 0 0 0 0 0 0 0 0 0 0 0 0 0
0.709813 1.19794e-09 6.85724e-10 5.1222e-10 0.427582 0.00082817 0 0 0 0 0 0 0 0 0 0 0 0 0 0 0 0 0 0 0 0 0 0 0 0 0 0 0 0 0 0 0 0 0 0 0 0 0 0 0 0 0 0
0.746248 1.13706e-09 6.69733e-10 4.67328e-10 0.410996 0.000754183 0 0 0 0 0 0 0 0 0 0 0 0 0 0 0 0 0 0 0 0 0 0 0 0 0 0 0 0 0 0 0 0 0 0 0 0 0 0 0 0 0 0
0.784553 1.06636e-09 6.46675e-10 4.19681e-10 0.393565 0.000686995 0 0 0 0 0 0 0 0 0 0 0 0 0 0 0 0 0 0 0 0 0 0 0 0 0 0 0 0 0 0 0 0 0 0 0 0 0 0 0 0 0 0
0.824824 9.89546e-10 6.17975e-10 3.71571e-10 0.375496 0.000626788 0 0 0 0 0 0 0 0 0 0 0 0 0 0 0 0 0 0 0 0 0 0 0 0 0 0 0 0 0 0 0 0 0 0 0 0 0 0 0 0 0 0
0.867162 9.09826e-10 5.85052e-10 3.24774e-10 0.356962 0.000572518 0 0 0 0 0 0 0 0 0 0 0 0 0 0 0 0 0 0 0 0 0 0 0 0 0 0 0 0 0 0 0 0 0 0 0 0 0 0 0 0 0 0
0.911674 8.30111e-10 5.49387e-10 2.80725e-10 0.338177 0.000523427 0 0 0 0 0 0 0 0 0 0 0 0 0 0 0 0 0 0 0 0 0 0 0 0 0 0 0 0 0 0 0 0 0 0 0 0 0 0 0 0 0 0
0.95847 7.52371e-10 5.12132e-10 2.40239e-10 0.319309 0.00047944 0 0 0 0 0 0 0 0 0 0 0 0 0 0 0 0 0 0 0 0 0 0 0 0 0 0 0 0 0 0 0 0 0 0 0 0 0 0 0 0 0 0
1.00767 6.78224e-10 4.74382e-10 2.03842e-10 0.300552 0.0004395 0 0 0 0 0 0 0 0 0 0 0 0 0 0 0 0 0 0 0 0 0 0 0 0 0 0 0 0 0 0 0 0 0 0 0 0 0 0 0 0 0 0
1.05939 6.08631e-10 4.36947e-10 1.71684e-10 0.282082 0.000403275 0 0 0 0 0 0 0 0 0 0 0 0 0 0 0 0 0 0 0 0 0 0 0 0 0 0 0 0 0 0 0 0 0 0 0 0 0 0 0 0 0 0
1.11377 5.44059e-10 4.00434e-10 1.43625e-10 0.263988 0.000370298 0 0 0 0 0 0 0 0 0 0 0 0 0 0 0 0 0 0 0 0 0 0 0 0 0 0 0 0 0 0 0 0 0 0 0 0 0 0 0 0 0 0
1.17094 4.851e-10 3.65526e-10 1.19573e-10 0.246492 0.000339515 0 0 0 0 0 0 0 0 0 0 0 0 0 0 0 0 0 0 0 0 0 0 0 0 0 0 0 0 0 0 0 0 0 0 0 0 0 0 0 0 0 0
1.23105 4.31497e-10 3.32421e-10 9.90762e-11 0.22961 0.000311294 0 0 0 0 0 0 0 0 0 0 0 0 0 0 0 0 0 0 0 0 0 0 0 0 0 0 0 0 0 0 0 0 0 0 0 0 0 0 0 0 0 0
1.29424 3.83249e-10 3.01442e-10 8.18075e-11 0.213458 0.000285362 0 0 0 0 0 0 0 0 0 0 0 0 0 0 0 0 0 0 0 0 0 0 0 0 0 0 0 0 0 0 0 0 0 0 0 0 0 0 0 0 0 0
1.36067 3.4002e-10 2.72668e-10 6.7352e-11 0.198082 0.000261742 0 0 0 0 0 0 0 0 0 0 0 0 0 0 0 0 0 0 0 0 0 0 0 0 0 0 0 0 0 0 0 0 0 0 0 0 0 0 0 0 0 0
1.43051 3.01404e-10 2.461e-10 5.53041e-11 0.183488 0.000240209 0 0 0 0 0 0 0 0 0 0 0 0 0 0 0 0 0 0 0 0 0 0 0 0 0 0 0 0 0 0 0 0 0 0 0 0 0 0 0 0 0 0
1.50394 2.67095e-10 2.21762e-10 4.53336e-11 0.169728 0.000220279 0 0 0 0 0 0 0 0 0 0 0 0 0 0 0 0 0 0 0 0 0 0 0 0 0 0 0 0 0 0 0 0 0 0 0 0 0 0 0 0 0 0
1.58114 2.36688e-10 1.99577e-10 3.71119e-11 0.156796 0.000201732 0 0 0 0 0 0 0 0 0 0 0 0 0 0 0 0 0 0 0 0 0 0 0 0 0 0 0 0 0 0 0 0 0 0 0 0 0 0 0 0 0 0
1.6623 2.09753e-10 1.79408e-10 3.03452e-11 0.144671 0.000184534 0 0 0 0 0 0 0 0 0 0 0 0 0 0 0 0 0 0 0 0 0 0 0 0 0 0 0 0 0 0 0 0 0 0 0 0 0 0 0 0 0 0
1.74763 1.85936e-10 1.61141e-10 2.4795e-11 0.133352 0.000169005 0 0 0 0 0 0 0 0 0 0 0 0 0 0 0 0 0 0 0 0 0 0 0 0 0 0 0 0 0 0 0 0 0 0 0 0 0 0 0 0 0 0
1.83733 1.64875e-10 1.44627e-10 2.02479e-11 0.122807 0.000154804 0 0 0 0 0 0 0 0 0 0 0 0 0 0 0 0 0 0 0 0 0 0 0 0 0 0 0 0 0 0 0 0 0 0 0 0 0 0 0 0 0 0
1.93164 1.46262e-10 1.29735e-10 1.65269e-11 0.112996 0.000141793 0 0 0 0 0 0 0 0 0 0 0 0 0 0 0 0 0 0 0 0 0 0 0 0 0 0 0 0 0 0 0 0 0 0 0 0 0 0 0 0 0 0
2.03079 1.29804e-10 1.16318e-10 1.34861e-11 0.103896 0.000129725 0 0 0 0 0 0 0 0 0 0 0 0 0 0 0 0 0 0 0 0 0 0 0 0 0 0 0 0 0 0 0 0 0 0 0 0 0 0 0 0 0 0
2.13503 1.15276e-10 1.04271e-10 1.10049e-11 0.0954657 0.000118657 0 0 0 0 0 0 0 0 0 0 0 0 0 0 0 0 0 0 0 0 0 0 0 0 0 0 0 0 0 0 0 0 0 0 0 0 0 0 0 0 0 0
2.24463 1.02422e-10 9.34427e-11 8.97913e-12 0.0876681 0.000108569 0 0 0 0 0 0 0 0 0 0 0 0 0 0 0 0 0 0 0 0 0 0 0 0 0 0 0 0 0 0 0 0 0 0 0 0 0 0 0 0 0 0
2.35984 9.10561e-11 8.37295e-11 7.32664e-12 0.0804629 9.92926e-05 0 0 0 0 0 0 0 0 0 0 0 0 0 0 0 0 0 0 0 0 0 0 0 0 0 0 0 0 0 0 0 0 0 0 0 0 0 0 0 0 0 0
2.48097 8.09994e-11 7.50208e-11 5.97852e-12 0.0738095 9.07218e-05 0 0 0 0 0 0 0 0 0 0 0 0 0 0 0 0 0 0 0 0 0 0 0 0 0 0 0 0 0 0 0 0 0 0 0 0 0 0 0 0 0 0
2.60832 7.20976e-11 6.72185e-11 4.87914e-12 0.067674 8.27967e-05 0 0 0 0 0 0 0 0 0 0 0 0 0 0 0 0 0 0 0 0 0 0 0 0 0 0 0 0 0 0 0 0 0 0 0 0 0 0 0 0 0 0
2.74221 6.42223e-11 6.02394e-11 3.98296e-12 0.0620183 7.55862e-05 0 0 0 0 0 0 0 0 0 0 0 0 0 0 0 0 0 0 0 0 0 0 0 0 0 0 0 0 0 0 0 0 0 0 0 0 0 0 0 0 0 0
2.88297 5.72383e-11 5.39873e-11 3.25104e-12 0.0567983 6.90729e-05 0 0 0 0 0 0 0 0 0 0 0 0 0 0 0 0 0 0 0 0 0 0 0 0 0 0 0 0 0 0 0 0 0 0 0 0 0 0 0 0 0 0
3.03095 5.10572e-11 4.84026e-11 2.65467e-12 0.0519939 6.31538e-05 0 0 0 0 0 0 0 0 0 0 0 0 0 0 0 0 0 0 0 0 0 0 0 0 0 0 0 0 0 0 0 0 0 0 0 0 0 0 0 0 0 0
3.18653 4.55764e-11 4.34086e-11 2.16781e-12 0.0475643 5.76567e-05 0 0 0 0 0 0 0 0 0 0 0 0 0 0 0 0 0 0 0 0 0 0 0 0 0 0 0 0 0 0 0 0 0 0 0 0 0 0 0 0 0 0
3.35009 4.07169e-11 3.89464e-11 1.7705e-12 0.0434831 5.2603e-05 0 0 0 0 0 0 0 0 0 0 0 0 0 0 0 0 0 0 0 0 0 0 0 0 0 0 0 0 0 0 0 0 0 0 0 0 0 0 0 0 0 0
3.52205 3.64094e-11 3.49631e-11 1.44632e-12 0.0397238 4.80102e-05 0 0 0 0 0 0 0 0 0 0 0 0 0 0 0 0 0 0 0 0 0 0 0 0 0 0 0 0 0 0 0 0 0 0 0 0 0 0 0 0 0 0
3.70284 3.25884e-11 3.14068e-11 1.18165e-12 0.0362597 4.38066e-05 0 0 0 0 0 0 0 0 0 0 0 0 0 0 0 0 0 0 0 0 0 0 0 0 0 0 0 0 0 0 0 0 0 0 0 0 0 0 0 0 0 0
3.89291 2.91986e-11 2.82331e-11 9.65485e-13 0.0330661 3.9926e-05 0 0 0 0 0 0 0 0 0 0 0 0 0 0 0 0 0 0 0 0 0 0 0 0 0 0 0 0 0 0 0 0 0 0 0 0 0 0 0 0 0 0
4.09273 2.61923e-11 2.54032e-11 7.8905e-13 0.0301253 3.62643e-05 0 0 0 0 0 0 0 0 0 0 0 0 0 0 0 0 0 0 0 0 0 0 0 0 0 0 0 0 0 0 0 0 0 0 0 0 0 0 0 0 0 0
4.30281 2.35236e-11 2.28786e-11 6.44955e-13 0.0274174 3.29535e-05 0 0 0 0 0 0 0 0 0 0 0 0 0 0 0 0 0 0 0 0 0 0 0 0 0 0 0 0 0 0 0 0 0 0 1.4013e-45 0 4.2039e-45 0 1.12104e-44 0 3.08286e-44 0
4.52368 2.11544e-11 2.0627e-11 5.27315e-13 0.024927 2.99416e-05 0 0 0 0 0 0 0 0 0 0 0 0 0 0 0 0 0 0 0 0 0 0 0 0 0 0 1.4013e-45 0 4.2039e-45 0 1.54143e-44 0 5.32493e-44 0 1.69557e-43 0 4.87652e-43 0 1.32142e-42 0 3.38974e-42 0
4.75588 1.9051e-11 1.86198e-11 4.3118e-13 0.0226329 2.71796e-05 0 0 0 0 0 0 0 0 0 0 0 0 0 0 0 0 0 0 0 0 1.4013e-45 0 5.60519e-45 0 2.8026e-44 0 1.26117e-43 0 4.94658e-43 0 1.74322e-42 0 5.54494e-42 0 1.65788e-41 0 4.51751e-41 0 1.16603e-40 0 2.85833e-40 0
5 1.71817e-11 1.68291e-11 3.5258e-13 0.0205207 2.45398e-05 0 0 0 0 0 0 0 0 0 0 0 0 0 0 0 0 1.4013e-45 0 1.54143e-44 0 1.079e-43 0 6.16571e-43 0 2.92171e-42 0 1.22516e-41 0 4.5084e-41 0 1.49444e-40 0 4.49197e-40 0 1.27309e-39 0 3.30338e-39 0 8.14073e-39 0 1.91008e-38 0
5.25665 1.55199e-11 1.52315e-11 2.88372e-13 0.0185808 2.21678e-05 0 0 0 0 0 0 0 0 0 0 0 0 1.4013e-45 0 1.68156e-44 0 1.90577e-43 0 1.58627e-42 0 1.04032e-41 0 5.47768e-41 0 2.40389e-40 0 9.39915e-40 0 3.24541e-39 0 1.01465e-38 0 2.89028e-38 0 7.78524e-38 0 1.92821e-37 0 4.5471e-37 0 1.02339e-36 0
5.52648 1.4043e-11 1.38071e-11 2.35885e-13 0.0167974 2.00489e-05 0 0 0 0 0 0 0 0 0 0 4.2039e-45 0 1.079e-43 0 1.70118e-42 0 1.75933e-41 0 1.32428e-40 0 7.92019e-40 0 3.84563e-39 0 1.57009e-38 0 5.74363e-38 0 1.86677e-37 0 5.52037e-37 0 1.49415e-36 0 3.83457e-36 0 9.08588e-36 0 2.05474e-35 0 4.44489e-35 0
5.81015 1.27278e-11 1.25348e-11 1.92973e-13 0.0151616 1.8115e-05 0 0 0 0 0 0 0 0 7.00649e-45 0 4.09179e-43 0 1.00711e-41 0 1.39282e-40 0 1.28554e-39 0 8.76803e-39 0 4.80545e-38 0 2.16003e-37 0 8.23356e-37 0 2.82715e-36 0 8.67483e-36 0 2.43303e-35 0 6.27281e-35 0 1.53744e-34 0 3.49267e-34 0 7.59004e-34 0 1.5812e-33 0
6.10839 1.15553e-11 1.13973e-11 1.57936e-13 0.0136679 1.63023e-05 0 0 0 0 0 0 4.2039e-45 0 7.48293e-43 0 3.53716e-41 0 7.44667e-40 0 9.05855e-39 0 7.50111e-38 0 4.65834e-37 0 2.34958e-36 0 9.81405e-36 0 3.50431e-35 0 1.13294e-34 0 3.29113e-34 0 8.77737e-34 0 2.16071e-33 0 5.06902e-33 0 1.10633e-32 0 2.3148e-32 0 4.65258e-32 0
6.42193 1.0451e-11 1.03221e-11 1.28903e-13 0.012334 1.48144e-05 0 0 0 0 0 0 4.59626e-43 0 6.15492e-41 0 2.40901e-39 0 4.37058e-38 0 4.70605e-37 0 3.5148e-36 0 1.99656e-35 0 9.30531e-35 0 3.62473e-34 0 1.2163e-33 0 3.71334e-33 0 1.02398e-32 0 2.60322e-32 0 6.13255e-32 0 1.38003e-31 0 2.89933e-31 0 5.85158e-31 0 1.13671e-30 0
6.75157 9.58191e-12 9.4763e-12 1.0561e-13 0.0110218 1.32279e-05 0 0 0 0 3.64338e-44 0 3.85427e-41 0 4.06592e-39 0 1.33049e-37 0 2.09537e-36 0 2.00903e-35 0 1.36017e-34 0 7.09813e-34 0 3.06871e-33 0 1.11858e-32 0 3.53805e-32 0 1.02287e-31 0 2.68435e-31 0 6.5204e-31 0 1.47311e-30 0 3.18628e-30 0 6.45585e-30 0 1.25904e-29 0 2.36775e-29 0
7.09813 8.75377e-12 8.66734e-12 8.64298e-14 0.00987344 1.18448e-05 0 0 0 0 3.39114e-42 0 2.55301e-39 0 2.14533e-37 0 5.92088e-36 0 8.15039e-35 0 6.99797e-34 0 4.31546e-33 0 2.07751e-32 0 8.36204e-32 0 2.86154e-31 0 8.55616e-31 0 2.34869e-30 0 5.88011e-30 0 1.36773e-29 0 2.96949e-29 0 6.18546e-29 0 1.21079e-28 0 2.28554e-28 0 4.16769e-28 0
7.46248 8.01364e-12 7.94291e-12 7.073e-14 0.0088262 1.05694e-05 0 0 1.4013e-45 0 2.49248e-40 0 1.35801e-37 0 9.19145e-36 0 2.15738e-34 0 2.61287e-33 0 2.01986e-32 0 1.13973e-31 0 5.08154e-31 0 1.9109e-30 0 6.15798e-30 0 1.74539e-29 0 4.56066e-29 0 1.09176e-28 0 2.43694e-28 0 5.09433e-28 0 1.02381e-27 0 1.93942e-27 0 3.54913e-27 0 6.28477e-27 0
7.84553 7.35271e-12 7.29483e-12 5.7888e-14 0.00787301 9.34187e-06 0 0 1.91978e-43 0 1.4642e-38 0 5.86509e-36 0 3.23136e-34 0 6.50148e-33 0 6.97137e-32 0 4.87702e-31 0 2.52898e-30 0 1.0482e-29 0 3.69487e-29 0 1.12457e-28 0 3.02937e-28 0 7.55301e-28 0 1.73265e-27 0 3.7188e-27 0 7.49909e-27 0 1.4566e-26 0 2.67453e-26 0 4.75207e-26 0 8.18341e-26 0
8.24824 6.76137e-12 6.71399e-12 4.7377e-14 0.00700702 8.19911e-06 0 0 1.57996e-41 0 6.95055e-37 0 2.07788e-34 0 9.41289e-33 0 1.63569e-31 0 1.56208e-30 0 9.93785e-30 0 4.75536e-29 0 1.83879e-28 0 6.09501e-28 0 1.75696e-27 0 4.50935e-27 0 1.07525e-26 0 2.36862e-26 0 4.89771e-26 0 9.54393e-26 0 1.79465e-25 0 3.19892e-25 0 5.52651e-25 0 9.2678e-25 0
8.67162 6.23259e-12 6.19381e-12 3.87787e-14 0.00622192 7.20916e-06 1.26117e-44 0 1.03244e-39 0 2.69484e-35 0 6.0991e-33 0 2.29356e-31 0 3.46696e-30 0 2.96554e-29 0 1.72368e-28 0 7.64105e-28 0 2.76583e-27 0 8.64683e-27 0 2.36699e-26 0 5.80179e-26 0 1.32597e-25 0 2.81043e-25 0 5.60874e-25 0 1.05792e-24 0 1.92893e-24 0 3.34259e-24 0 5.6226e-24 0 9.19393e-24 0
9.11674 5.75895e-12 5.72721e-12 3.1741e-14 0.00551159 6.32492e-06 1.13225e-42 0 5.4256e-38 0 8.61944e-34 0 1.49708e-31 0 4.71606e-30 0 6.24356e-29 0 4.80923e-28 0 2.56513e-27 0 1.05738e-26 0 3.59441e-26 0 1.06289e-25 0 2.76998e-25 0 6.49878e-25 0 1.42651e-24 0 2.91466e-24 0 5.62378e-24 0 1.0284e-23 0 1.82091e-23 0 3.07183e-23 0 5.03761e-23 0 8.04195e-23 0
9.5847 5.33494e-12 5.30896e-12 2.59818e-14 0.00487012 5.52644e-06 8.18625e-41 0 2.31817e-36 0 2.29649e-32 0 3.1008e-30 0 8.25381e-29 0 9.63239e-28 0 6.71564e-27 0 3.30085e-26 0 1.26974e-25 0 4.06598e-25 0 1.14035e-24 0 2.83605e-24 0 6.38245e-24 0 1.34822e-23 0 2.66025e-23 0 4.9708e-23 0 8.82594e-23 0 1.51975e-22 0 2.49916e-22 0 4.00067e-22 0 6.2424e-22 0
10.0767 4.9559e-12 4.93463e-12 2.12701e-14 0.00429188 4.78203e-06 4.74018e-39 0 8.13738e-35 0 5.14408e-31 0 5.46641e-29 0 1.23965e-27 0 1.28316e-26 0 8.13688e-26 0 3.70026e-25 0 1.33277e-24 0 4.03207e-24 0 1.07531e-23 0 2.55794e-23 0 5.53305e-23 0 1.12689e-22 0 2.15096e-22 0 3.89834e-22 0 6.7304e-22 0 1.12857e-21 0 1.81136e-21 0 2.83378e-21 0 4.32664e-21 0
