# 2.4671e-06 0 44 : grain size, compostion index, size index
# Heating and cooling timescale: 3.30372 2346.52
# Ratio of heating to cooling to determine stochastic cutoff: 100
# Equilibrium emission is recorded even for those grains in the stochastic regime.
# Emission spectrum was computed for: 
# Type: ISRF
# Scales: 0.25 0.5 1 1.5 2 2.5 3 3.5 4 4.5 5 5.5 6 6.5 7 7.5 8 8.5 9 9.5 10
# StochasticallyHeated: 1 1 1 0 0 0 0 0 0 0 0 0 0 0 0 0 0 0 0 0 0
# Temperature: -1
# Wavelength  CExt  CAbs  CSca  Albedo G EqEm1 StEm1 EqEm2 StEm2 EqEm3 StEm3 EqEm4 StEm4 EqEm5 StEm5 EqEm6 StEm6 EqEm7 StEm7 EqEm8 StEm8 EqEm9 StEm9 EqEm10 StEm10 EqEm11 StEm11 EqEm12 StEm12 EqEm13 StEm13 EqEm14 StEm14 EqEm15 StEm15 EqEm16 StEm16 EqEm17 StEm17 EqEm18 StEm18 EqEm19 StEm19 EqEm20 StEm20 EqEm21 StEm21
0.05 1.76962e-11 1.21418e-11 5.55443e-12 0.313877 0.807659 0 0 0 0 0 0 0 0 0 0 0 0 0 0 0 0 0 0 0 0 0 0 0 0 0 0 0 0 0 0 0 0 0 0 0 0 0 0 0 0 0 0
0.0525665 1.85354e-11 1.2779e-11 5.75637e-12 0.310562 0.791323 0 0 0 0 0 0 0 0 0 0 0 0 0 0 0 0 0 0 0 0 0 0 0 0 0 0 0 0 0 0 0 0 0 0 0 0 0 0 0 0 0 0
0.0552647 1.94189e-11 1.34489e-11 5.97003e-12 0.307434 0.772892 0 0 0 0 0 0 0 0 0 0 0 0 0 0 0 0 0 0 0 0 0 0 0 0 0 0 0 0 0 0 0 0 0 0 0 0 0 0 0 0 0 0
0.0581015 2.0365e-11 1.4166e-11 6.19897e-12 0.304393 0.75253 0 0 0 0 0 0 0 0 0 0 0 0 0 0 0 0 0 0 0 0 0 0 0 0 0 0 0 0 0 0 0 0 0 0 0 0 0 0 0 0 0 0
0.0610839 2.13782e-11 1.49318e-11 6.44641e-12 0.301541 0.730515 0 0 0 0 0 0 0 0 0 0 0 0 0 0 0 0 0 0 0 0 0 0 0 0 0 0 0 0 0 0 0 0 0 0 0 0 0 0 0 0 0 0
0.0642193 2.24807e-11 1.57634e-11 6.71724e-12 0.298801 0.707225 0 0 0 0 0 0 0 0 0 0 0 0 0 0 0 0 0 0 0 0 0 0 0 0 0 0 0 0 0 0 0 0 0 0 0 0 0 0 0 0 0 0
0.0675157 2.37008e-11 1.66831e-11 7.01766e-12 0.296094 0.683079 0 0 0 0 0 0 0 0 0 0 0 0 0 0 0 0 0 0 0 0 0 0 0 0 0 0 0 0 0 0 0 0 0 0 0 0 0 0 0 0 0 0
0.0709813 2.50646e-11 1.77087e-11 7.35587e-12 0.293477 0.658433 0 0 0 0 0 0 0 0 0 0 0 0 0 0 0 0 0 0 0 0 0 0 0 0 0 0 0 0 0 0 0 0 0 0 0 0 0 0 0 0 0 0
0.0746248 2.66308e-11 1.8889e-11 7.74183e-12 0.290709 0.633827 0 0 0 0 0 0 0 0 0 0 0 0 0 0 0 0 0 0 0 0 0 0 0 0 0 0 0 0 0 0 0 0 0 0 0 0 0 0 0 0 0 0
0.0784553 2.83715e-11 2.02457e-11 8.12577e-12 0.286406 0.610236 0 0 0 0 0 0 0 0 0 0 0 0 0 0 0 0 0 0 0 0 0 0 0 0 0 0 0 0 0 0 0 0 0 0 0 0 0 0 0 0 0 0
0.0824824 2.99348e-11 2.15578e-11 8.37699e-12 0.279841 0.587056 0 0 0 0 0 0 0 0 0 0 0 0 0 0 0 0 0 0 0 0 0 0 0 0 0 0 0 0 0 0 0 0 0 0 0 0 0 0 0 0 0 0
0.0867162 3.11838e-11 2.26911e-11 8.4927e-12 0.272344 0.562694 0 0 0 0 0 0 0 0 0 0 0 0 0 0 0 0 0 0 0 0 0 0 0 0 0 0 0 0 0 0 0 0 0 0 0 0 0 0 0 0 0 0
0.0911674 3.20521e-11 2.35649e-11 8.48727e-12 0.264796 0.535898 0 0 0 0 0 0 0 0 0 0 0 0 0 0 0 0 0 0 0 0 0 0 0 0 0 0 0 0 0 0 0 0 0 0 0 0 0 0 0 0 0 0
0.095847 3.24655e-11 2.4113e-11 8.35248e-12 0.257273 0.505963 0 0 0 0 0 0 0 0 0 0 0 0 0 0 0 0 0 0 0 0 0 0 0 0 0 0 0 0 0 0 0 0 0 0 0 0 0 0 0 0 0 0
0.100767 3.24016e-11 2.43101e-11 8.0915e-12 0.249725 0.472889 0 0 0 0 0 0 0 0 0 0 0 0 0 0 0 0 0 0 0 0 0 0 0 0 0 0 0 0 0 0 0 0 0 0 0 0 0 0 0 0 0 0
0.105939 3.18286e-11 2.41394e-11 7.68916e-12 0.241581 0.43728 0 0 0 0 0 0 0 0 0 0 0 0 0 0 0 0 0 0 0 0 0 0 0 0 0 0 0 0 0 0 0 0 0 0 0 0 0 0 0 0 0 0
0.111377 3.07955e-11 2.3639e-11 7.15647e-12 0.232387 0.400233 0 0 0 0 0 0 0 0 0 0 0 0 0 0 0 0 0 0 0 0 0 0 0 0 0 0 0 0 0 0 0 0 0 0 0 0 0 0 0 0 0 0
0.117094 2.9353e-11 2.28478e-11 6.50519e-12 0.221619 0.362868 0 0 0 0 0 0 0 0 0 0 0 0 0 0 0 0 0 0 0 0 0 0 0 0 0 0 0 0 0 0 0 0 0 0 0 0 0 0 0 0 0 0
0.123105 2.75923e-11 2.18339e-11 5.75838e-12 0.208695 0.326132 0 0 0 0 0 0 0 0 0 0 0 0 0 0 0 0 0 0 0 0 0 0 0 0 0 0 0 0 0 0 0 0 0 0 0 0 0 0 0 0 0 0
0.129424 2.56996e-11 2.07186e-11 4.981e-12 0.193816 0.291172 0 0 0 0 0 0 0 0 0 0 0 0 0 0 0 0 0 0 0 0 0 0 0 0 0 0 0 0 0 0 0 0 0 0 0 0 0 0 0 0 0 0
0.136067 2.38659e-11 1.9634e-11 4.23193e-12 0.177321 0.258777 0 0 0 0 0 0 0 0 0 0 0 0 0 0 0 0 0 0 0 0 0 0 0 0 0 0 0 0 0 0 0 0 0 0 0 0 0 0 0 0 0 0
0.143051 2.22834e-11 1.87123e-11 3.57107e-12 0.160257 0.229506 0 0 0 0 0 0 0 0 0 0 0 0 0 0 0 0 0 0 0 0 0 0 0 0 0 0 0 0 0 0 0 0 0 0 0 0 0 0 0 0 0 0
0.150394 2.10704e-11 1.80387e-11 3.0317e-12 0.143885 0.203527 0 0 0 0 0 0 0 0 0 0 0 0 0 0 0 0 0 0 0 0 0 0 0 0 0 0 0 0 0 0 0 0 0 0 0 0 0 0 0 0 0 0
0.158114 2.02972e-11 1.76698e-11 2.6274e-12 0.129447 0.180672 0 0 0 0 0 0 0 0 0 0 0 0 0 0 0 0 0 0 0 0 0 0 0 0 0 0 0 0 0 0 0 0 0 0 0 0 0 0 0 0 0 0
0.16623 1.99367e-11 1.75923e-11 2.34445e-12 0.117595 0.160607 0 0 0 0 0 0 0 0 0 0 0 0 0 0 0 0 0 0 0 0 0 0 0 0 0 0 0 0 0 0 0 0 0 0 0 0 0 0 0 0 0 0
0.174762 1.99429e-11 1.77805e-11 2.16244e-12 0.108432 0.142951 0 0 0 0 0 0 0 0 0 0 0 0 0 0 0 0 0 0 0 0 0 0 0 0 0 0 0 0 0 0 0 0 0 0 0 0 0 0 0 0 0 0
0.183733 2.02431e-11 1.81865e-11 2.05661e-12 0.101596 0.12735 0 0 0 0 0 0 0 0 0 0 0 0 0 0 0 0 0 0 0 0 0 0 0 0 0 0 0 0 0 0 0 0 0 0 0 0 0 0 0 0 0 0
0.193164 2.07444e-11 1.87434e-11 2.00099e-12 0.0964596 0.11352 0 0 0 0 0 0 0 0 0 0 0 0 0 0 0 0 0 0 0 0 0 0 0 0 0 0 0 0 0 0 0 0 0 0 0 0 0 0 0 0 0 0
0.203079 2.13523e-11 1.93784e-11 1.97391e-12 0.0924447 0.101247 0 0 0 0 0 0 0 0 0 0 0 0 0 0 0 0 0 0 0 0 0 0 0 0 0 0 0 0 0 0 0 0 0 0 0 0 0 0 0 0 0 0
0.213503 2.19565e-11 2.00009e-11 1.95557e-12 0.0890657 0.0903801 0 0 0 0 0 0 0 0 0 0 0 0 0 0 0 0 0 0 0 0 0 0 0 0 0 0 0 0 0 0 0 0 0 0 0 0 0 0 0 0 0 0
0.224463 2.24314e-11 2.05028e-11 1.92858e-12 0.0859769 0.0808217 0 0 0 0 0 0 0 0 0 0 0 0 0 0 0 0 0 0 0 0 0 0 0 0 0 0 0 0 0 0 0 0 0 0 0 0 0 0 0 0 0 0
0.235984 2.26475e-11 2.07705e-11 1.87699e-12 0.0828785 0.072482 0 0 0 0 0 0 0 0 0 0 0 0 0 0 0 0 0 0 0 0 0 0 0 0 0 0 0 0 0 0 0 0 0 0 0 0 0 0 0 0 0 0
0.248097 2.24821e-11 2.06919e-11 1.79017e-12 0.0796266 0.0652987 0 0 0 0 0 0 0 0 0 0 0 0 0 0 0 0 0 0 0 0 0 0 0 0 0 0 0 0 0 0 0 0 0 0 0 0 0 0 0 0 0 0
0.260832 2.18332e-11 2.01732e-11 1.65994e-12 0.0760284 0.0592252 0 0 0 0 0 0 0 0 0 0 0 0 0 0 0 0 0 0 0 0 0 0 0 0 0 0 0 0 0 0 0 0 0 0 0 0 0 0 0 0 0 0
0.274221 2.07247e-11 1.92313e-11 1.49336e-12 0.0720571 0.0541126 0 0 0 0 0 0 0 0 0 0 0 0 0 0 0 0 0 0 0 0 0 0 0 0 0 0 0 0 0 0 0 0 0 0 0 0 0 0 0 0 0 0
0.288297 1.92253e-11 1.79269e-11 1.29846e-12 0.067539 0.0498054 0 0 0 0 0 0 0 0 0 0 0 0 0 0 0 0 0 0 0 0 0 0 0 0 0 0 0 0 0 0 0 0 0 0 0 0 0 0 0 0 0 0
0.303095 1.75948e-11 1.64982e-11 1.09662e-12 0.0623264 0.0459443 0 0 0 0 0 0 0 0 0 0 0 0 0 0 0 0 0 0 0 0 0 0 0 0 0 0 0 0 0 0 0 0 0 0 0 0 0 0 0 0 0 0
0.318653 1.61048e-11 1.51851e-11 9.19723e-13 0.0571086 0.0423221 0 0 0 0 0 0 0 0 0 0 0 0 0 0 0 0 0 0 0 0 0 0 0 0 0 0 0 0 0 0 0 0 0 0 0 0 0 0 0 0 0 0
0.335009 1.47431e-11 1.39744e-11 7.68703e-13 0.05214 0.038968 0 0 0 0 0 0 0 0 0 0 0 0 0 0 0 0 0 0 0 0 0 0 0 0 0 0 0 0 0 0 0 0 0 0 0 0 0 0 0 0 0 0
0.352205 1.34968e-11 1.28559e-11 6.40913e-13 0.0474862 0.0358765 0 0 0 0 0 0 0 0 0 0 0 0 0 0 0 0 0 0 0 0 0 0 0 0 0 0 0 0 0 0 0 0 0 0 0 0 0 0 0 0 0 0
0.370284 1.23589e-11 1.18255e-11 5.33349e-13 0.0431552 0.0330273 0 0 0 0 0 0 0 0 0 0 0 0 0 0 0 0 0 0 0 0 0 0 0 0 0 0 0 0 0 0 0 0 0 0 0 0 0 0 0 0 0 0
0.389291 1.13207e-11 1.08775e-11 4.43178e-13 0.0391475 0.0304029 0 0 0 0 0 0 0 0 0 0 0 0 0 0 0 0 0 0 0 0 0 0 0 0 0 0 0 0 0 0 0 0 0 0 0 0 0 0 0 0 0 0
0.409273 1.03748e-11 1.0007e-11 3.67828e-13 0.0354538 0.0279852 0 0 0 0 0 0 0 0 0 0 0 0 0 0 0 0 0 0 0 0 0 0 0 0 0 0 0 0 0 0 0 0 0 0 0 0 0 0 0 0 0 0
0.430281 9.51329e-12 9.20827e-12 3.05022e-13 0.0320627 0.0257568 0 0 0 0 0 0 0 0 0 0 0 0 0 0 0 0 0 0 0 0 0 0 0 0 0 0 0 0 0 0 0 0 0 0 0 0 0 0 0 0 0 0
0.452368 8.72831e-12 8.47555e-12 2.52762e-13 0.0289588 0.023704 0 0 0 0 0 0 0 0 0 0 0 0 0 0 0 0 0 0 0 0 0 0 0 0 0 0 0 0 0 0 0 0 0 0 0 0 0 0 0 0 0 0
0.475588 8.01426e-12 7.80493e-12 2.09332e-13 0.0261199 0.0218109 0 0 0 0 0 0 0 0 0 0 0 0 0 0 0 0 0 0 0 0 0 0 0 0 0 0 0 0 0 0 0 0 0 0 0 0 0 0 0 0 0 0
0.5 7.36379e-12 7.19046e-12 1.73326e-13 0.0235376 0.0200669 0 0 0 0 0 0 0 0 0 0 0 0 0 0 0 0 0 0 0 0 0 0 0 0 0 0 0 0 0 0 0 0 0 0 0 0 0 0 0 0 0 0
0.525665 6.77109e-12 6.6276e-12 1.43496e-13 0.0211925 0.0184599 0 0 0 0 0 0 0 0 0 0 0 0 0 0 0 0 0 0 0 0 0 0 0 0 0 0 0 0 0 0 0 0 0 0 0 0 0 0 0 0 0 0
0.552648 6.23102e-12 6.11225e-12 1.18767e-13 0.0190606 0.0169778 0 0 0 0 0 0 0 0 0 0 0 0 0 0 0 0 0 0 0 0 0 0 0 0 0 0 0 0 0 0 0 0 0 0 0 0 0 0 0 0 0 0
0.581015 5.73765e-12 5.63937e-12 9.82826e-14 0.0171294 0.0156131 0 0 0 0 0 0 0 0 0 0 0 0 0 0 0 0 0 0 0 0 0 0 0 0 0 0 0 0 0 0 0 0 0 0 0 0 0 0 0 0 0 0
0.610839 5.28722e-12 5.20591e-12 8.13158e-14 0.0153797 0.0143538 0 0 0 0 0 0 0 0 0 0 0 0 0 0 0 0 0 0 0 0 0 0 0 0 0 0 0 0 0 0 0 0 0 0 0 0 0 0 0 0 0 0
0.642193 4.87532e-12 4.80805e-12 6.72702e-14 0.0137981 0.0131945 0 0 0 0 0 0 0 0 0 0 0 0 0 0 0 0 0 0 0 0 0 0 0 0 0 0 0 0 0 0 0 0 0 0 0 0 0 0 0 0 0 0
0.675157 4.49845e-12 4.44281e-12 5.56439e-14 0.0123696 0.0121264 0 0 0 0 0 0 0 0 0 0 0 0 0 0 0 0 0 0 0 0 0 0 0 0 0 0 0 0 0 0 0 0 0 0 0 0 0 0 0 0 0 0
0.709813 4.15348e-12 4.10745e-12 4.60214e-14 0.0110802 0.0111424 0 0 0 0 0 0 0 0 0 0 0 0 0 0 0 0 0 0 0 0 0 0 0 0 0 0 0 0 0 0 0 0 0 0 0 0 0 0 0 0 0 0
0.746248 3.83694e-12 3.79888e-12 3.80592e-14 0.00991913 0.0102366 0 0 0 0 0 0 0 0 0 0 0 0 0 0 0 0 0 0 0 0 0 0 0 0 0 0 0 0 0 0 0 0 0 0 0 0 0 0 0 0 0 0
0.784553 3.54679e-12 3.51532e-12 3.14721e-14 0.00887341 0.00940222 0 0 0 0 0 0 0 0 0 0 0 0 0 0 0 0 0 0 0 0 0 0 0 0 0 0 0 0 0 0 0 0 0 0 0 0 0 0 0 0 0 0
0.824824 3.28024e-12 3.25422e-12 2.60228e-14 0.00793319 0.00863456 0 0 0 0 0 0 0 0 0 0 0 0 0 0 0 0 0 0 0 0 0 0 0 0 0 0 0 0 0 0 0 0 0 0 0 0 0 0 0 0 0 0
0.867162 3.03536e-12 3.01384e-12 2.15159e-14 0.00708841 0.00792796 0 0 0 0 0 0 0 0 0 0 0 0 0 0 0 0 0 0 0 0 0 0 0 0 0 0 0 0 0 0 0 0 0 0 0 0 0 0 0 0 0 0
0.911674 2.81015e-12 2.79236e-12 1.77865e-14 0.00632939 0.00727803 0 0 0 0 0 0 0 0 0 0 0 0 0 0 0 0 0 0 0 0 0 0 0 0 0 0 0 0 0 0 0 0 0 0 0 0 0 0 0 0 0 0
0.95847 2.60276e-12 2.58806e-12 1.47033e-14 0.0056491 0.00668037 0 0 0 0 0 0 0 0 0 0 0 0 0 0 0 0 0 0 0 0 0 0 0 0 0 0 0 0 0 0 0 0 0 0 0 0 0 0 0 0 0 0
1.00767 2.41204e-12 2.39988e-12 1.21551e-14 0.00503932 0.00613076 0 0 0 0 0 0 0 0 0 0 0 0 0 0 0 0 0 0 0 0 0 0 0 0 0 0 0 0 0 0 0 0 0 0 0 0 0 0 0 0 0 0
1.05939 2.23605e-12 2.226e-12 1.00493e-14 0.00449419 0.00562592 0 0 0 0 0 0 0 0 0 0 0 0 0 0 0 0 0 0 0 0 0 0 0 0 0 0 0 0 0 0 0 0 0 0 0 0 0 0 0 0 0 0
1.11377 2.07387e-12 2.06556e-12 8.30743e-15 0.00400577 0.00516184 0 0 0 0 0 0 0 0 0 0 0 0 0 0 0 0 0 0 0 0 0 0 0 0 0 0 0 0 0 0 0 0 0 0 0 0 0 0 0 0 0 0
1.17094 1.92416e-12 1.9173e-12 6.86687e-15 0.00356875 0.00473524 0 0 0 0 0 0 0 0 0 0 0 0 0 0 0 0 0 0 0 0 0 0 0 0 0 0 0 0 0 0 0 0 0 0 0 0 0 0 0 0 0 0
1.23105 1.78582e-12 1.78015e-12 5.67546e-15 0.00317806 0.00434336 0 0 0 0 0 0 0 0 0 0 0 0 0 0 0 0 0 0 0 0 0 0 0 0 0 0 0 0 0 0 0 0 0 0 0 0 0 0 0 0 0 0
1.29424 1.65804e-12 1.65335e-12 4.69032e-15 0.00282884 0.00398327 0 0 0 0 0 0 0 0 0 0 0 0 0 0 0 0 0 0 0 0 0 0 0 0 0 0 0 0 0 0 0 0 0 0 0 0 0 0 0 0 0 0
1.36067 1.53986e-12 1.53598e-12 3.8757e-15 0.00251692 0.00365258 0 0 0 0 0 0 0 0 0 0 0 0 0 0 0 0 0 0 0 0 0 0 0 0 0 0 0 0 0 0 0 0 0 0 0 0 0 0 0 0 0 0
1.43051 1.43054e-12 1.42734e-12 3.20207e-15 0.00223836 0.00334893 0 0 0 0 0 0 0 0 0 0 0 0 0 0 0 0 0 0 0 0 0 0 0 0 0 0 0 0 0 0 0 0 0 0 0 0 0 0 0 0 0 0
1.50394 1.32938e-12 1.32674e-12 2.6453e-15 0.00198987 0.00307004 0 0 0 0 0 0 0 0 0 0 0 0 0 0 0 0 0 0 0 0 0 0 0 0 0 0 0 0 0 0 0 0 0 0 0 0 0 0 0 0 0 0
1.58114 1.23569e-12 1.23351e-12 2.18499e-15 0.00176823 0.00281406 0 0 0 0 0 0 0 0 0 0 0 0 0 0 0 0 0 0 0 0 0 0 0 0 0 0 0 0 0 0 0 0 0 0 0 0 0 0 0 0 0 0
1.6623 1.14892e-12 1.14712e-12 1.80462e-15 0.00157071 0.00257909 0 0 0 0 0 0 0 0 0 0 0 0 0 0 0 0 0 0 0 0 0 0 0 0 0 0 0 0 0 0 0 0 0 0 0 0 0 0 0 0 0 0
1.74763 1.06848e-12 1.06699e-12 1.49024e-15 0.00139473 0.00236352 0 0 0 0 0 0 0 0 0 0 0 0 0 0 0 0 0 0 0 0 0 0 0 0 0 0 0 0 0 0 0 0 0 0 0 0 0 0 0 0 0 0
1.83733 9.93934e-13 9.92704e-13 1.23045e-15 0.00123796 0.00216561 0 0 0 0 0 0 0 0 0 0 0 0 0 0 0 0 0 0 0 0 0 0 0 0 0 0 0 0 0 0 0 0 0 0 0 0 0 0 0 0 0 0
1.93164 9.24799e-13 9.23783e-13 1.01581e-15 0.00109841 0.00198411 0 0 0 0 0 0 0 0 0 0 0 0 0 0 0 0 0 0 0 0 0 0 0 0 0 0 0 0 0 0 0 0 0 0 0 0 0 0 0 0 0 0
2.03079 8.60648e-13 8.59809e-13 8.38725e-16 0.000974527 0.00181779 0 0 0 0 0 0 0 0 0 0 0 0 0 0 0 0 0 0 0 0 0 0 0 0 0 0 0 0 0 0 0 0 0 0 0 0 0 0 0 0 0 0
2.13503 8.01205e-13 8.00512e-13 6.92461e-16 0.000864274 0.00166517 0 0 0 0 0 0 0 0 0 0 0 0 0 0 0 0 0 0 0 0 0 0 0 0 0 0 0 0 0 0 0 0 0 0 0 0 0 0 0 0 0 0
2.24463 7.45969e-13 7.45398e-13 5.71633e-16 0.000766296 0.00152521 0 0 0 0 0 0 0 0 0 0 0 0 0 0 0 0 0 0 0 0 0 0 0 0 0 0 0 0 0 0 0 0 0 0 0 0 0 0 0 0 0 0
2.35984 6.94693e-13 6.94221e-13 4.71819e-16 0.000679176 0.00139686 0 0 0 0 0 0 0 0 0 0 0 0 0 0 0 0 0 0 0 0 0 0 0 0 0 0 0 0 0 0 0 0 0 0 0 0 0 0 0 0 0 0
2.48097 6.47069e-13 6.46679e-13 3.89382e-16 0.000601763 0.00127922 0 0 0 0 0 0 0 0 0 0 0 0 0 0 0 0 0 0 0 0 0 0 0 0 0 0 0 0 0 0 0 0 0 0 0 0 0 0 0 0 0 0
2.60832 6.02815e-13 6.02494e-13 3.21295e-16 0.000532991 0.00117132 0 0 0 0 0 0 0 0 0 0 0 0 0 0 0 0 0 0 0 0 0 0 0 0 0 0 0 0 0 0 0 0 0 0 0 0 0 0 0 0 0 0
2.74221 5.61697e-13 5.61432e-13 2.6508e-16 0.000471927 0.00107241 0 0 0 0 0 0 0 0 0 0 0 0 0 0 0 0 0 0 0 0 0 0 0 0 0 0 0 0 0 0 0 0 0 0 0 0 0 0 0 0 0 0
2.88297 5.2348e-13 5.23261e-13 2.18663e-16 0.00041771 0.000981739 0 0 0 0 0 0 0 0 0 0 0 0 0 0 0 0 0 0 0 0 0 0 0 0 0 0 0 0 0 0 0 0 0 0 0 0 0 0 0 0 0 0
3.03095 4.87922e-13 4.87741e-13 1.80246e-16 0.000369416 0.000898504 0 0 0 0 0 0 0 0 0 0 0 0 0 0 0 0 0 0 0 0 0 0 0 0 0 0 0 0 0 0 0 0 0 0 0 0 0 0 0 0 0 0
3.18653 4.55054e-13 4.54906e-13 1.48642e-16 0.000326647 0.000822256 0 0 0 0 0 0 0 0 0 0 0 0 0 0 0 0 0 0 0 0 0 0 0 0 0 0 0 0 0 0 0 0 0 0 0 0 0 0 0 0 0 0
3.35009 4.24686e-13 4.24563e-13 1.22577e-16 0.000288629 0.000752395 0 0 0 0 0 0 0 0 0 0 0 0 0 0 0 0 0 0 0 0 0 0 0 0 0 0 0 0 0 0 0 0 0 0 0 0 0 0 0 0 0 0
3.52205 3.9558e-13 3.95479e-13 1.01214e-16 0.000255861 0.000689385 0 0 0 0 0 0 0 0 0 0 0 0 0 0 0 0 0 0 0 0 0 0 0 0 0 0 0 0 0 0 0 0 0 0 0 0 0 0 0 0 0 0
3.70284 3.68575e-13 3.68491e-13 8.33674e-17 0.000226189 0.0006306 0 0 0 0 0 0 0 0 0 0 0 0 0 0 0 0 0 0 0 0 0 0 0 0 0 0 0 0 0 0 0 0 0 0 0 0 0 0 0 0 0 0
3.89291 3.43904e-13 3.43835e-13 6.87124e-17 0.000199801 0.000576888 0 0 0 0 0 0 0 0 0 0 0 0 0 0 0 0 0 0 0 0 0 0 0 0 0 0 0 0 0 0 0 0 0 0 0 0 0 0 0 0 0 0
4.09273 3.20903e-13 3.20846e-13 5.66324e-17 0.000176478 0.000527732 0 0 0 0 0 0 0 0 0 0 0 0 0 0 0 0 0 0 0 0 0 0 0 0 0 0 0 0 0 0 0 0 0 0 0 0 0 0 0 0 0 0
4.30281 2.99498e-13 2.99452e-13 4.66684e-17 0.000155822 0.000482708 0 0 0 0 0 0 0 0 0 0 0 0 0 0 0 0 0 0 0 0 0 0 0 0 0 0 0 0 0 0 0 0 0 0 1.4013e-45 0 4.2039e-45 0 1.12104e-44 0 2.8026e-44 0
4.52368 2.79574e-13 2.79536e-13 3.84549e-17 0.000137548 0.000441483 0 0 0 0 0 0 0 0 0 0 0 0 0 0 0 0 0 0 0 0 0 0 0 0 0 0 1.4013e-45 0 4.2039e-45 0 1.26117e-44 0 4.34403e-44 0 1.33123e-43 0 3.74147e-43 0 1.00053e-42 0 2.54055e-42 0
4.75588 2.61044e-13 2.61013e-13 3.16802e-17 0.00012136 0.000403708 0 0 0 0 0 0 0 0 0 0 0 0 0 0 0 0 0 0 0 0 0 0 4.2039e-45 0 2.10195e-44 0 8.96831e-44 0 3.53127e-43 0 1.20792e-42 0 3.75128e-42 0 1.09862e-41 0 2.94791e-41 0 7.51124e-41 0 1.82193e-40 0
5 2.43833e-13 2.43807e-13 2.60968e-17 0.000107027 0.000369096 0 0 0 0 0 0 0 0 0 0 0 0 0 0 0 0 1.4013e-45 0 9.80909e-45 0 6.72623e-44 0 3.81153e-43 0 1.81889e-42 0 7.45351e-42 0 2.74318e-41 0 8.84289e-41 0 2.59923e-40 0 7.2226e-40 0 1.84686e-39 0 4.49573e-39 0 1.04432e-38 0
5.25665 2.27888e-13 2.27867e-13 2.1491e-17 9.43051e-05 0.000337356 0 0 0 0 0 0 0 0 0 0 0 0 0 0 8.40779e-45 0 1.06499e-43 0 8.82818e-43 0 5.62341e-42 0 2.9091e-41 0 1.286e-40 0 4.91987e-40 0 1.69902e-39 0 5.1728e-39 0 1.44248e-38 0 3.8132e-38 0 9.31372e-38 0 2.17083e-37 0 4.83935e-37 0
5.52648 2.13187e-13 2.13169e-13 1.76946e-17 8.30005e-05 0.000308197 0 0 0 0 0 0 0 0 0 0 1.4013e-45 0 5.04467e-44 0 8.14154e-43 0 8.47225e-42 0 6.37114e-41 0 3.709e-40 0 1.77058e-39 0 7.27934e-39 0 2.60829e-38 0 8.47852e-38 0 2.44479e-37 0 6.48454e-37 0 1.63473e-36 0 3.82247e-36 0 8.54877e-36 0 1.8326e-35 0
5.81015 1.9999e-13 1.99976e-13 1.45615e-17 7.28112e-05 0.000281242 0 0 0 0 0 1.96182e-44 0 0 2.8026e-45 0 1.61149e-43 0 4.08899e-42 0 5.82604e-41 0 5.40785e-40 0 3.68513e-39 0 1.96852e-38 0 8.70673e-38 0 3.34083e-37 0 1.12475e-36 0 3.45163e-36 0 9.45127e-36 0 2.39026e-35 0 5.75979e-35 0 1.29209e-34 0 2.77834e-34 0 5.73825e-34 0
6.10839 1.90801e-13 1.90789e-13 1.19878e-17 6.28289e-05 0.000255652 0 0 0 1.4013e-45 0 1.00193e-42 1.4013e-45 0 2.50832e-43 0 1.2466e-41 0 2.70835e-40 0 3.3897e-39 0 2.82209e-38 0 1.75109e-37 0 8.61921e-37 0 3.54532e-36 0 1.27392e-35 0 4.04207e-35 0 1.17435e-34 0 3.06128e-34 0 7.39918e-34 0 1.70803e-33 0 3.68342e-33 0 7.62974e-33 0 1.52098e-32 0
6.42193 1.74346e-13 1.74336e-13 9.95424e-18 5.70949e-05 0.00023699 0 0 0 4.90454e-44 0 4.16312e-41 1.14906e-43 0 1.79717e-41 0 7.3817e-40 0 1.37997e-38 0 1.52667e-37 0 1.14609e-36 0 6.50504e-36 0 2.9622e-35 0 1.13715e-34 0 3.83867e-34 0 1.15122e-33 0 3.17495e-33 0 7.8982e-33 0 1.8285e-32 0 4.052e-32 0 8.41645e-32 0 1.68247e-31 0 3.2429e-31 0
6.75157 1.62668e-13 1.6266e-13 8.15815e-18 5.0152e-05 0.000215726 0 5.60519e-45 0 2.12157e-42 5.60519e-45 1.49369e-39 8.59697e-42 0 1.04983e-39 0 3.59669e-38 0 5.8281e-37 0 5.73371e-36 0 3.90088e-35 0 2.03414e-34 0 8.60205e-34 0 3.09229e-33 0 9.83666e-33 0 2.79601e-32 0 7.33846e-32 0 1.74611e-31 0 3.88007e-31 0 8.27069e-31 0 1.65768e-30 0 3.20355e-30 0 5.98005e-30 0
7.09813 1.53655e-13 1.53648e-13 6.70397e-18 4.36301e-05 0.000196284 0 2.45227e-43 0 7.85232e-41 5.35296e-43 4.61619e-38 5.18929e-40 0 5.01153e-38 0 1.44484e-36 0 2.04355e-35 0 1.79811e-34 0 1.114e-33 0 5.35903e-33 0 2.11219e-32 0 7.13313e-32 0 2.14442e-31 0 5.7923e-31 0 1.4503e-30 0 3.30783e-30 0 7.06936e-30 0 1.45222e-29 0 2.81352e-29 0 5.26515e-29 0 9.53341e-29 0
7.46248 1.48235e-13 1.48229e-13 5.52528e-18 3.72738e-05 0.000178208 0 9.1715e-42 0 2.53269e-39 3.72199e-41 1.24749e-36 2.57957e-38 0 1.99297e-36 0 4.8761e-35 0 6.05987e-34 0 4.79495e-33 0 2.71758e-32 0 1.21081e-31 0 4.46312e-31 0 1.4203e-30 0 4.04643e-30 0 1.04122e-29 0 2.4928e-29 0 5.46122e-29 0 1.12466e-28 0 2.23055e-28 0 4.18413e-28 0 7.59412e-28 0 1.33575e-27 0
7.84553 1.38251e-13 1.38247e-13 4.62939e-18 3.34853e-05 0.000166056 0 2.83841e-40 1.54143e-44 6.77858e-38 2.00599e-39 2.80745e-35 1.01019e-36 0 6.3122e-35 0 1.32117e-33 0 1.45183e-32 0 1.03843e-31 0 5.40742e-31 0 2.23976e-30 0 7.74648e-30 0 2.3297e-29 0 6.30654e-29 0 1.54961e-28 0 3.55512e-28 0 7.49596e-28 0 1.49019e-27 0 2.85832e-27 0 5.19957e-27 0 9.16643e-27 0 1.56847e-26 0
8.24824 1.23144e-13 1.23141e-13 3.7816e-18 3.07087e-05 0.000152384 0 7.22069e-39 1.11964e-42 1.49609e-36 8.36726e-38 5.22831e-34 3.10981e-35 0 1.58793e-33 0 2.865e-32 0 2.80065e-31 0 1.8197e-30 0 8.74232e-30 0 3.37834e-29 0 1.09975e-28 0 3.13432e-28 0 8.08198e-28 0 1.90058e-27 0 4.18707e-27 0 8.51268e-27 0 1.63649e-26 0 3.04067e-26 0 5.37203e-26 0 9.2119e-26 0 1.53545e-25 0
8.67162 1.15764e-13 1.15761e-13 3.12328e-18 2.69796e-05 0.000139647 0 1.67835e-37 6.97763e-41 3.02625e-35 3.01568e-36 8.954e-33 8.3956e-34 0 3.53797e-32 0 5.54253e-31 0 4.8473e-30 0 2.87449e-29 0 1.27911e-28 0 4.62722e-28 0 1.42195e-27 0 3.85057e-27 0 9.48016e-27 0 2.13821e-26 0 4.5324e-26 0 8.901e-26 0 1.6574e-25 0 2.98777e-25 0 5.13391e-25 0 8.5748e-25 0 1.39404e-24 0
9.11674 1.0589e-13 1.05887e-13 2.55738e-18 2.41514e-05 0.000127533 3.22299e-44 3.30456e-36 3.40671e-39 5.20079e-34 8.74337e-35 1.30717e-31 1.84921e-32 0 6.49178e-31 0 8.89152e-30 0 6.99497e-29 0 3.80279e-28 0 1.57324e-27 0 5.34494e-27 0 1.5549e-26 0 4.0107e-26 0 9.44944e-26 0 2.04831e-25 0 4.18546e-25 0 7.9532e-25 0 1.43664e-24 0 2.51637e-24 0 4.2111e-24 0 6.85954e-24 0 1.08904e-23 0
9.5847 9.90199e-14 9.90178e-14 2.10027e-18 2.12106e-05 0.000116269 2.2715e-42 5.82212e-35 1.38328e-37 8.02082e-33 2.16258e-33 1.71808e-30 3.52166e-31 0 1.03914e-29 0 1.25254e-28 0 8.90973e-28 0 4.45944e-27 0 1.72132e-26 0 5.50907e-26 0 1.52123e-25 0 3.74646e-25 0 8.46516e-25 0 1.76693e-24 0 3.4867e-24 0 6.42099e-24 0 1.12686e-23 0 1.92048e-23 0 3.13411e-23 0 4.98503e-23 0 7.73774e-23 0
10.0767 9.2649e-14 9.26472e-14 1.72653e-18 1.86352e-05 0.000106105 1.29867e-40 9.02989e-34 4.61813e-36 1.09198e-31 4.50563e-32 1.99976e-29 5.72196e-30 0 1.43121e-28 0 1.52769e-27 0 9.87432e-27 0 4.56851e-26 0 1.65089e-25 0 4.99191e-25 0 1.31174e-24 0 3.09144e-24 0 6.7126e-24 0 1.35168e-23 0 2.58021e-23 0 4.61206e-23 0 7.87473e-23 0 1.30759e-22 0 2.08349e-22 0 3.23969e-22 0 4.92184e-22 0
