# 0.000659502 1 94 : grain size, compostion index, size index
# Heating and cooling timescale: 7.64063e-06 5.83923e+13
# Ratio of heating to cooling to determine stochastic cutoff: 100
# Equilibrium emission is recorded even for those grains in the stochastic regime.
# Emission spectrum was computed for: 
# Type: IRSF
# Scales: 0.25 0.5 1 1.5 2 2.5 3 3.5 4 4.5 5 5.5 6 6.5 7 7.5 8 8.5 9 9.5 10
# StochasticallyHeated: 0 0 0 0 0 0 0 0 0 0 0 0 0 0 0 0 0 0 0 0 0
# Temperature: -1
# Wavelength  CExt  CAbs  CSca  Albedo G EqEm1 StEm1 EqEm2 StEm2 EqEm3 StEm3 EqEm4 StEm4 EqEm5 StEm5 EqEm6 StEm6 EqEm7 StEm7 EqEm8 StEm8 EqEm9 StEm9 EqEm10 StEm10 EqEm11 StEm11 EqEm12 StEm12 EqEm13 StEm13 EqEm14 StEm14 EqEm15 StEm15 EqEm16 StEm16 EqEm17 StEm17 EqEm18 StEm18 EqEm19 StEm19 EqEm20 StEm20 EqEm21 StEm21
0.05 2.75991e-06 9.71188e-07 1.78872e-06 0.648109 0.855267 0 0 0 0 0 0 0 0 0 0 0 0 0 0 0 0 0 0 0 0 0 0 0 0 0 0 0 0 0 0 0 0 0 0 0 0 0 0 0 0 0 0
0.0525665 2.76133e-06 9.55901e-07 1.80542e-06 0.653825 0.842917 0 0 0 0 0 0 0 0 0 0 0 0 0 0 0 0 0 0 0 0 0 0 0 0 0 0 0 0 0 0 0 0 0 0 0 0 0 0 0 0 0 0
0.0552647 2.7628e-06 9.44506e-07 1.8183e-06 0.658135 0.83267 0 0 0 0 0 0 0 0 0 0 0 0 0 0 0 0 0 0 0 0 0 0 0 0 0 0 0 0 0 0 0 0 0 0 0 0 0 0 0 0 0 0
0.0581015 2.76424e-06 9.39638e-07 1.8246e-06 0.660073 0.826397 0 0 0 0 0 0 0 0 0 0 0 0 0 0 0 0 0 0 0 0 0 0 0 0 0 0 0 0 0 0 0 0 0 0 0 0 0 0 0 0 0 0
0.0610839 2.76568e-06 9.26731e-07 1.83895e-06 0.664918 0.817758 0 0 0 0 0 0 0 0 0 0 0 0 0 0 0 0 0 0 0 0 0 0 0 0 0 0 0 0 0 0 0 0 0 0 0 0 0 0 0 0 0 0
0.0642193 2.76746e-06 8.93987e-07 1.87347e-06 0.676965 0.799711 0 0 0 0 0 0 0 0 0 0 0 0 0 0 0 0 0 0 0 0 0 0 0 0 0 0 0 0 0 0 0 0 0 0 0 0 0 0 0 0 0 0
0.0675157 2.76968e-06 8.61795e-07 1.90788e-06 0.688846 0.779998 0 0 0 0 0 0 0 0 0 0 0 0 0 0 0 0 0 0 0 0 0 0 0 0 0 0 0 0 0 0 0 0 0 0 0 0 0 0 0 0 0 0
0.0709813 2.77206e-06 8.59617e-07 1.91244e-06 0.689899 0.773005 0 0 0 0 0 0 0 0 0 0 0 0 0 0 0 0 0 0 0 0 0 0 0 0 0 0 0 0 0 0 0 0 0 0 0 0 0 0 0 0 0 0
0.0746248 2.77435e-06 8.73887e-07 1.90047e-06 0.685012 0.774394 0 0 0 0 0 0 0 0 0 0 0 0 0 0 0 0 0 0 0 0 0 0 0 0 0 0 0 0 0 0 0 0 0 0 0 0 0 0 0 0 0 0
0.0784553 2.77651e-06 8.93293e-07 1.88322e-06 0.678268 0.77929 0 0 0 0 0 0 0 0 0 0 0 0 0 0 0 0 0 0 0 0 0 0 0 0 0 0 0 0 0 0 0 0 0 0 0 0 0 0 0 0 0 0
0.0824824 2.77867e-06 9.1538e-07 1.86329e-06 0.670569 0.785144 0 0 0 0 0 0 0 0 0 0 0 0 0 0 0 0 0 0 0 0 0 0 0 0 0 0 0 0 0 0 0 0 0 0 0 0 0 0 0 0 0 0
0.0867162 2.78086e-06 9.21499e-07 1.85936e-06 0.668628 0.784072 0 0 0 0 0 0 0 0 0 0 0 0 0 0 0 0 0 0 0 0 0 0 0 0 0 0 0 0 0 0 0 0 0 0 0 0 0 0 0 0 0 0
0.0911674 2.78333e-06 9.18744e-07 1.86458e-06 0.669912 0.779014 0 0 0 0 0 0 0 0 0 0 0 0 0 0 0 0 0 0 0 0 0 0 0 0 0 0 0 0 0 0 0 0 0 0 0 0 0 0 0 0 0 0
0.095847 2.78584e-06 9.24415e-07 1.86142e-06 0.668173 0.77729 0 0 0 0 0 0 0 0 0 0 0 0 0 0 0 0 0 0 0 0 0 0 0 0 0 0 0 0 0 0 0 0 0 0 0 0 0 0 0 0 0 0
0.100767 2.78754e-06 9.58273e-07 1.82927e-06 0.65623 0.788582 0 0 0 0 0 0 0 0 0 0 0 0 0 0 0 0 0 0 0 0 0 0 0 0 0 0 0 0 0 0 0 0 0 0 0 0 0 0 0 0 0 0
0.105939 2.78873e-06 9.9182e-07 1.79691e-06 0.644347 0.803027 0 0 0 0 0 0 0 0 0 0 0 0 0 0 0 0 0 0 0 0 0 0 0 0 0 0 0 0 0 0 0 0 0 0 0 0 0 0 0 0 0 0
0.111377 2.78865e-06 1.05152e-06 1.73713e-06 0.62293 0.8306 0 0 0 0 0 0 0 0 0 0 0 0 0 0 0 0 0 0 0 0 0 0 0 0 0 0 0 0 0 0 0 0 0 0 0 0 0 0 0 0 0 0
0.117094 2.78851e-06 1.11215e-06 1.67636e-06 0.601166 0.862547 0 0 0 0 0 0 0 0 0 0 0 0 0 0 0 0 0 0 0 0 0 0 0 0 0 0 0 0 0 0 0 0 0 0 0 0 0 0 0 0 0 0
0.123105 2.78938e-06 1.15171e-06 1.63767e-06 0.58711 0.884916 0 0 0 0 0 0 0 0 0 0 0 0 0 0 0 0 0 0 0 0 0 0 0 0 0 0 0 0 0 0 0 0 0 0 0 0 0 0 0 0 0 0
0.129424 2.79062e-06 1.18561e-06 1.60501e-06 0.575145 0.904647 0 0 0 0 0 0 0 0 0 0 0 0 0 0 0 0 0 0 0 0 0 0 0 0 0 0 0 0 0 0 0 0 0 0 0 0 0 0 0 0 0 0
0.136067 2.79191e-06 1.21301e-06 1.57889e-06 0.565525 0.920642 0 0 0 0 0 0 0 0 0 0 0 0 0 0 0 0 0 0 0 0 0 0 0 0 0 0 0 0 0 0 0 0 0 0 0 0 0 0 0 0 0 0
0.143051 2.79275e-06 1.23439e-06 1.55836e-06 0.558002 0.933115 0 0 0 0 0 0 0 0 0 0 0 0 0 0 0 0 0 0 0 0 0 0 0 0 0 0 0 0 0 0 0 0 0 0 0 0 0 0 0 0 0 0
0.150394 2.79274e-06 1.24623e-06 1.54651e-06 0.553761 0.941151 0 0 0 0 0 0 0 0 0 0 0 0 0 0 0 0 0 0 0 0 0 0 0 0 0 0 0 0 0 0 0 0 0 0 0 0 0 0 0 0 0 0
0.158114 2.7926e-06 1.24126e-06 1.55134e-06 0.555518 0.942023 0 0 0 0 0 0 0 0 0 0 0 0 0 0 0 0 0 0 0 0 0 0 0 0 0 0 0 0 0 0 0 0 0 0 0 0 0 0 0 0 0 0
0.16623 2.79392e-06 1.21099e-06 1.58292e-06 0.566561 0.931406 0 0 0 0 0 0 0 0 0 0 0 0 0 0 0 0 0 0 0 0 0 0 0 0 0 0 0 0 0 0 0 0 0 0 0 0 0 0 0 0 0 0
0.174762 2.79757e-06 1.15321e-06 1.64437e-06 0.587784 0.905412 0 0 0 0 0 0 0 0 0 0 0 0 0 0 0 0 0 0 0 0 0 0 0 0 0 0 0 0 0 0 0 0 0 0 0 0 0 0 0 0 0 0
0.183733 2.80223e-06 1.08142e-06 1.72081e-06 0.614086 0.870347 0 0 0 0 0 0 0 0 0 0 0 0 0 0 0 0 0 0 0 0 0 0 0 0 0 0 0 0 0 0 0 0 0 0 0 0 0 0 0 0 0 0
0.193164 2.80746e-06 1.00748e-06 1.79998e-06 0.641141 0.834285 0 0 0 0 0 0 0 0 0 0 0 0 0 0 0 0 0 0 0 0 0 0 0 0 0 0 0 0 0 0 0 0 0 0 0 0 0 0 0 0 0 0
0.203079 2.81311e-06 9.43842e-07 1.86927e-06 0.664484 0.80452 0 0 0 0 0 0 0 0 0 0 0 0 0 0 0 0 0 0 0 0 0 0 0 0 0 0 0 0 0 0 0 0 0 0 0 0 0 0 0 0 0 0
0.213503 2.8193e-06 8.89766e-07 1.92953e-06 0.684401 0.78036 0 0 0 0 0 0 0 0 0 0 0 0 0 0 0 0 0 0 0 0 0 0 0 0 0 0 0 0 0 0 0 0 0 0 0 0 0 0 0 0 0 0
0.224463 2.82661e-06 8.55389e-07 1.97123e-06 0.69738 0.763738 0 0 0 0 0 0 0 0 0 0 0 0 0 0 0 0 0 0 0 0 0 0 0 0 0 0 0 0 0 0 0 0 0 0 0 0 0 0 0 0 0 0
0.235984 2.83489e-06 8.38295e-07 1.99659e-06 0.704293 0.752616 0 0 0 0 0 0 0 0 0 0 0 0 0 0 0 0 0 0 0 0 0 0 0 0 0 0 0 0 0 0 0 0 0 0 0 0 0 0 0 0 0 0
0.248097 2.84336e-06 8.47552e-07 1.99581e-06 0.701919 0.749031 0 0 0 0 0 0 0 0 0 0 0 0 0 0 0 0 0 0 0 0 0 0 0 0 0 0 0 0 0 0 0 0 0 0 0 0 0 0 0 0 0 0
0.260832 2.84933e-06 8.72227e-07 1.97711e-06 0.693884 0.751051 0 0 0 0 0 0 0 0 0 0 0 0 0 0 0 0 0 0 0 0 0 0 0 0 0 0 0 0 0 0 0 0 0 0 0 0 0 0 0 0 0 0
0.274221 2.85244e-06 8.99576e-07 1.95286e-06 0.684629 0.754965 0 0 0 0 0 0 0 0 0 0 0 0 0 0 0 0 0 0 0 0 0 0 0 0 0 0 0 0 0 0 0 0 0 0 0 0 0 0 0 0 0 0
0.288297 2.85304e-06 9.32855e-07 1.92018e-06 0.673031 0.764018 0 0 0 0 0 0 0 0 0 0 0 0 0 0 0 0 0 0 0 0 0 0 0 0 0 0 0 0 0 0 0 0 0 0 0 0 0 0 0 0 0 0
0.303095 2.85438e-06 9.55932e-07 1.89845e-06 0.6651 0.770964 0 0 0 0 0 0 0 0 0 0 0 0 0 0 0 0 0 0 0 0 0 0 0 0 0 0 0 0 0 0 0 0 0 0 0 0 0 0 0 0 0 0
0.318653 2.85609e-06 9.74954e-07 1.88113e-06 0.65864 0.777089 0 0 0 0 0 0 0 0 0 0 0 0 0 0 0 0 0 0 0 0 0 0 0 0 0 0 0 0 0 0 0 0 0 0 0 0 0 0 0 0 0 0
0.335009 2.85839e-06 9.90391e-07 1.868e-06 0.653515 0.782376 0 0 0 0 0 0 0 0 0 0 0 0 0 0 0 0 0 0 0 0 0 0 0 0 0 0 0 0 0 0 0 0 0 0 0 0 0 0 0 0 0 0
0.352205 2.86133e-06 1.00162e-06 1.85971e-06 0.649945 0.786114 0 0 0 0 0 0 0 0 0 0 0 0 0 0 0 0 0 0 0 0 0 0 0 0 0 0 0 0 0 0 0 0 0 0 0 0 0 0 0 0 0 0
0.370284 2.86473e-06 1.00959e-06 1.85514e-06 0.64758 0.788417 0 0 0 0 0 0 0 0 0 0 0 0 0 0 0 0 0 0 0 0 0 0 0 0 0 0 0 0 0 0 0 0 0 0 0 0 0 0 0 0 0 0
0.389291 2.86843e-06 1.01469e-06 1.85374e-06 0.646255 0.789288 0 0 0 0 0 0 0 0 0 0 0 0 0 0 0 0 0 0 0 0 0 0 0 0 0 0 0 0 0 0 0 0 0 0 0 0 0 0 0 0 0 0
0.409273 2.87229e-06 1.01899e-06 1.8533e-06 0.645235 0.789795 0 0 0 0 0 0 0 0 0 0 0 0 0 0 0 0 0 0 0 0 0 0 0 0 0 0 0 0 0 0 0 0 0 0 0 0 0 0 0 0 0 0
0.430281 2.87623e-06 1.02292e-06 1.85331e-06 0.644353 0.79014 0 0 0 0 0 0 0 0 0 0 0 0 0 0 0 0 0 0 0 0 0 0 0 0 0 0 0 0 0 0 0 0 0 0 0 0 0 0 0 0 0 0
0.452368 2.88042e-06 1.02698e-06 1.85344e-06 0.643462 0.790671 0 0 0 0 0 0 0 0 0 0 0 0 0 0 0 0 0 0 0 0 0 0 0 0 0 0 0 0 0 0 0 0 0 0 0 0 0 0 0 0 0 0
0.475588 2.88478e-06 1.03089e-06 1.85389e-06 0.642645 0.791144 0 0 0 0 0 0 0 0 0 0 0 0 0 0 0 0 0 0 0 0 0 0 0 0 0 0 0 0 0 0 0 0 0 0 0 0 0 0 0 0 0 0
0.5 2.88944e-06 1.03428e-06 1.85516e-06 0.642049 0.79136 0 0 0 0 0 0 0 0 0 0 0 0 0 0 0 0 0 0 0 0 0 0 0 0 0 0 0 0 0 0 0 0 0 0 0 0 0 0 0 0 0 0
0.525665 2.89437e-06 1.03737e-06 1.857e-06 0.641591 0.791417 0 0 0 0 0 0 0 0 0 0 0 0 0 0 0 0 0 0 0 0 0 0 0 0 0 0 0 0 0 0 0 0 0 0 0 0 0 0 0 0 0 0
0.552648 2.89946e-06 1.04031e-06 1.85915e-06 0.641206 0.791351 0 0 0 0 0 0 0 0 0 0 0 0 0 0 0 0 0 0 0 0 0 0 0 0 0 0 0 0 0 0 0 0 0 0 0 0 0 0 0 0 0 0
0.581015 2.90496e-06 1.04174e-06 1.86322e-06 0.641394 0.790504 0 0 0 0 0 0 0 0 0 0 0 0 0 0 0 0 0 0 0 0 0 0 0 0 0 0 0 0 0 0 0 0 0 0 0 0 0 0 0 0 0 0
0.610839 2.91061e-06 1.04316e-06 1.86745e-06 0.641601 0.789614 0 0 0 0 0 0 0 0 0 0 0 0 0 0 0 0 0 0 0 0 0 0 0 0 0 0 0 0 0 0 0 0 0 0 0 0 0 0 0 0 0 0
0.642193 2.91644e-06 1.04458e-06 1.87186e-06 0.64183 0.788678 0 0 0 0 0 0 0 0 0 0 0 0 0 0 0 0 0 0 0 0 0 0 0 0 0 0 0 0 0 0 0 0 0 0 0 0 0 0 0 0 0 0
0.675157 2.92247e-06 1.04544e-06 1.87704e-06 0.642277 0.787426 0 0 0 0 0 0 0 0 0 0 0 0 0 0 0 0 0 0 0 0 0 0 0 0 0 0 0 0 0 0 0 0 0 0 0 0 0 0 0 0 0 0
0.709813 2.9287e-06 1.04577e-06 1.88293e-06 0.642923 0.785878 0 0 0 0 0 0 0 0 0 0 0 0 0 0 0 0 0 0 0 0 0 0 0 0 0 0 0 0 0 0 0 0 0 0 0 0 0 0 0 0 0 0
0.746248 2.93508e-06 1.04587e-06 1.88921e-06 0.643665 0.784171 0 0 0 0 0 0 0 0 0 0 0 0 0 0 0 0 0 0 0 0 0 0 0 0 0 0 0 0 0 0 0 0 0 0 0 0 0 0 0 0 0 0
0.784553 2.94159e-06 1.04592e-06 1.89567e-06 0.644438 0.782416 0 0 0 0 0 0 0 0 0 0 0 0 0 0 0 0 0 0 0 0 0 0 0 0 0 0 0 0 0 0 0 0 0 0 0 0 0 0 0 0 0 0
0.824824 2.94822e-06 1.04593e-06 1.9023e-06 0.645235 0.780602 0 0 0 0 0 0 0 0 0 0 0 0 0 0 0 0 0 0 0 0 0 0 0 0 0 0 0 0 0 0 0 0 0 0 0 0 0 0 0 0 0 0
0.867162 2.95497e-06 1.04588e-06 1.90909e-06 0.646061 0.778733 0 0 0 0 0 0 0 0 0 0 0 0 0 0 0 0 0 0 0 0 0 0 0 0 0 0 0 0 0 0 0 0 0 0 0 0 0 0 0 0 0 0
0.911674 2.9618e-06 1.04584e-06 1.91596e-06 0.64689 0.776845 0 0 0 0 0 0 0 0 0 0 0 0 0 0 0 0 0 0 0 0 0 0 0 0 0 0 0 0 0 0 0 0 0 0 0 0 0 0 0 0 0 0
0.95847 2.96868e-06 1.04598e-06 1.9227e-06 0.647662 0.774989 0 0 0 0 0 0 0 0 0 0 0 0 0 0 0 0 0 0 0 0 0 0 0 0 0 0 0 0 0 0 0 0 0 0 0 0 0 0 0 0 0 0
1.00767 2.9756e-06 1.0461e-06 1.9295e-06 0.64844 0.773105 0 0 0 0 0 0 0 0 0 0 0 0 0 0 0 0 0 0 0 0 0 0 0 0 0 0 0 0 0 0 0 0 0 0 0 0 0 0 0 0 0 0
1.05939 2.98256e-06 1.04652e-06 1.93604e-06 0.649119 0.771304 0 0 0 0 0 0 0 0 0 0 0 0 0 0 0 0 0 0 0 0 0 0 0 0 0 0 0 0 0 0 0 0 0 0 0 0 0 0 0 0 0 0
1.11377 2.98988e-06 1.04681e-06 1.94307e-06 0.649881 0.769456 0 0 0 0 0 0 0 0 0 0 0 0 0 0 0 0 0 0 0 0 0 0 0 0 0 0 0 0 0 0 0 0 0 0 0 0 0 0 0 0 0 0
1.17094 2.99813e-06 1.04733e-06 1.9508e-06 0.650673 0.767725 0 0 0 0 0 0 0 0 0 0 0 0 0 0 0 0 0 0 0 0 0 0 0 0 0 0 0 0 0 0 0 0 0 0 0 0 0 0 0 0 0 0
1.23105 3.00479e-06 1.04769e-06 1.9571e-06 0.651326 0.765799 0 0 0 0 0 0 0 0 0 0 0 0 0 0 0 0 0 0 0 0 0 0 0 0 0 0 0 0 0 0 0 0 0 0 0 0 0 0 0 0 0 0
1.29424 3.01064e-06 1.04744e-06 1.9632e-06 0.652087 0.763564 0 0 0 0 0 0 0 0 0 0 0 0 0 0 0 0 0 0 0 0 0 0 0 0 0 0 0 0 0 0 0 0 0 0 0 0 0 0 0 0 0 0
1.36067 3.02305e-06 1.04688e-06 1.97617e-06 0.653701 0.761745 0 0 0 0 0 0 0 0 0 0 0 0 0 0 0 0 0 0 0 0 0 0 0 0 0 0 0 0 0 0 0 0 0 0 0 0 0 0 0 0 0 0
1.43051 3.02582e-06 1.04594e-06 1.97988e-06 0.654327 0.759061 0 0 0 0 0 0 0 0 0 0 0 0 0 0 0 0 0 0 0 0 0 0 0 0 0 0 0 0 0 0 0 0 0 0 0 0 0 0 0 0 0 0
1.50394 3.0364e-06 1.04428e-06 1.99212e-06 0.656079 0.756754 0 0 0 0 0 0 0 0 0 0 0 0 0 0 0 0 0 0 0 0 0 0 0 0 0 0 0 0 0 0 0 0 0 0 0 0 0 0 0 0 0 0
1.58114 3.0454e-06 1.04195e-06 2.00346e-06 0.657862 0.754116 0 0 0 0 0 0 0 0 0 0 0 0 0 0 0 0 0 0 0 0 0 0 0 0 0 0 0 0 0 0 0 0 0 0 0 0 0 0 0 0 0 0
1.6623 3.05083e-06 1.03827e-06 2.01255e-06 0.659675 0.750728 0 0 0 0 0 0 0 0 0 0 0 0 0 0 0 0 0 0 0 0 0 0 0 0 0 0 0 0 0 0 0 0 0 0 0 0 0 0 0 0 0 0
1.74763 3.06238e-06 1.03312e-06 2.02925e-06 0.66264 0.747545 0 0 0 0 0 0 0 0 0 0 0 0 0 0 0 0 0 0 0 0 0 0 0 0 0 0 0 0 0 0 0 0 0 0 0 0 0 0 0 0 0 0
1.83733 3.07276e-06 1.02766e-06 2.0451e-06 0.665557 0.744031 0 0 0 0 0 0 0 0 0 0 0 0 0 0 0 0 0 0 0 0 0 0 0 0 0 0 0 0 0 0 0 0 0 0 0 0 0 0 0 0 0 0
1.93164 3.06812e-06 1.02092e-06 2.0472e-06 0.667249 0.738994 0 0 0 0 0 0 0 0 0 0 0 0 0 0 0 0 0 0 0 0 0 0 0 0 0 0 0 0 0 0 0 0 0 0 0 0 0 0 0 0 0 0
2.03079 3.10763e-06 1.01209e-06 2.09554e-06 0.674321 0.737234 0 0 0 0 0 0 0 0 0 0 0 0 0 0 0 0 0 0 0 0 0 0 0 0 0 0 0 0 0 0 0 0 0 0 0 0 0 0 0 0 0 0
2.13503 3.07368e-06 1.00638e-06 2.0673e-06 0.672581 0.729625 0 0 0 0 0 0 0 0 0 0 0 0 0 0 0 0 0 0 0 0 0 0 0 0 0 0 0 0 0 0 0 0 0 0 0 0 0 0 0 0 0 0
2.24463 3.11765e-06 9.9669e-07 2.12096e-06 0.680307 0.728233 0 0 0 0 0 0 0 0 0 0 0 0 0 0 0 0 0 0 0 0 0 0 0 0 0 0 0 0 0 0 0 0 0 0 0 0 0 0 0 0 0 0
2.35984 3.13475e-06 9.85556e-07 2.14919e-06 0.685603 0.723208 0 0 0 0 0 0 0 0 0 0 0 0 0 0 0 0 0 0 0 0 0 0 0 0 0 0 0 0 0 0 0 0 0 0 0 0 0 0 0 0 0 0
2.48097 3.08527e-06 9.7905e-07 2.10622e-06 0.68267 0.712245 0 0 0 0 0 0 0 0 0 0 0 0 0 0 0 0 0 0 0 0 0 0 0 0 0 0 0 0 0 0 0 0 0 0 0 0 0 0 0 0 0 0
2.60832 3.15155e-06 9.6733e-07 2.18422e-06 0.693062 0.715326 0 0 0 0 0 0 0 0 0 0 0 0 0 0 0 0 0 0 0 0 0 0 0 0 0 0 0 0 0 0 0 0 0 0 0 0 0 0 0 0 0 0
2.74221 3.17882e-06 9.60369e-07 2.21845e-06 0.697885 0.711559 0 0 0 0 0 0 0 0 0 0 0 0 0 0 0 0 0 0 0 0 0 0 0 0 0 0 0 0 0 0 0 0 0 0 0 0 0 0 0 0 0 0
2.88297 3.12101e-06 9.46431e-07 2.17458e-06 0.696755 0.699338 0 0 0 0 0 0 0 0 0 0 0 0 0 0 0 0 0 0 0 0 0 0 0 0 0 0 0 0 0 0 0 0 0 0 0 0 0 0 0 0 0 0
3.03095 3.14479e-06 9.4103e-07 2.20376e-06 0.700765 0.695 0 0 0 0 0 0 0 0 0 0 0 0 0 0 0 0 0 0 0 0 0 0 0 0 0 0 0 0 0 0 0 0 0 0 0 0 0 0 0 0 0 0
3.18653 3.23132e-06 9.35385e-07 2.29594e-06 0.710526 0.697536 0 0 0 0 0 0 0 0 0 0 0 0 0 0 0 0 0 0 0 0 0 0 0 0 0 0 0 0 0 0 0 0 0 0 0 0 0 0 0 0 0 0
3.35009 3.21731e-06 9.25142e-07 2.29217e-06 0.712449 0.689606 0 0 0 0 0 0 0 0 0 0 0 0 0 0 0 0 0 0 0 0 0 0 0 0 0 0 0 0 0 0 0 0 0 0 0 0 0 0 0 0 0 0
3.52205 3.13915e-06 9.16326e-07 2.22282e-06 0.708098 0.670314 0 0 0 0 0 0 0 0 0 0 0 0 0 0 0 0 0 0 0 0 0 0 0 0 0 0 0 0 0 0 0 0 0 0 0 0 0 0 0 0 0 0
3.70284 3.14992e-06 9.00433e-07 2.24949e-06 0.714141 0.666402 0 0 0 0 0 0 0 0 0 0 0 0 0 0 0 0 0 0 0 0 0 0 0 0 0 0 0 0 0 0 0 0 0 0 0 0 0 0 0 0 0 0
3.89291 3.24999e-06 8.88879e-07 2.36111e-06 0.726498 0.675629 0 0 0 0 0 0 0 0 0 0 0 0 0 0 0 0 0 0 0 0 0 0 0 0 0 0 0 0 0 0 0 0 0 0 0 0 0 0 0 0 0 0
4.09273 3.30029e-06 8.79354e-07 2.42094e-06 0.733553 0.674277 0 0 0 0 0 0 0 0 0 0 0 0 0 0 0 0 0 0 0 0 0 0 0 0 0 0 0 0 0 0 0 0 0 0 0 0 0 0 0 0 0 0
4.30281 3.24368e-06 8.79748e-07 2.36393e-06 0.728781 0.654146 0 0 0 0 0 0 0 0 0 0 0 0 0 0 0 0 0 0 0 0 0 0 0 0 0 0 0 0 0 0 0 0 0 0 0 0 0 0 0 0 0 0
4.52368 3.17662e-06 8.84425e-07 2.29219e-06 0.721583 0.641531 0 0 0 0 0 0 0 0 0 0 0 0 0 0 0 0 0 0 0 0 0 0 0 0 0 0 0 0 0 0 0 0 0 0 0 0 0 0 0 0 0 0
4.75588 3.18289e-06 8.61251e-07 2.32164e-06 0.729412 0.64506 0 0 0 0 0 0 0 0 0 0 0 0 0 0 0 0 0 0 0 0 0 0 0 0 0 0 0 0 0 0 0 0 0 0 0 0 0 0 0 0 0 0
5 3.2573e-06 8.24986e-07 2.43231e-06 0.746727 0.651659 0 0 0 0 0 0 0 0 0 0 0 0 0 0 0 0 0 0 0 0 0 0 0 0 0 0 0 0 0 0 0 0 0 0 0 0 0 0 0 0 0 0
5.25665 3.38956e-06 8.4832e-07 2.54124e-06 0.749726 0.655495 0 0 0 0 0 0 0 0 0 0 0 0 0 0 0 0 0 0 0 0 0 0 0 0 0 0 0 0 0 0 0 0 0 0 0 0 0 0 0 0 0 0
5.52648 3.42834e-06 8.3925e-07 2.58909e-06 0.755203 0.643192 0 0 0 0 0 0 0 0 0 0 0 0 0 0 0 0 0 0 0 0 0 0 0 0 0 0 0 0 0 0 0 0 0 0 0 0 0 0 0 0 0 0
5.81015 3.40564e-06 8.31432e-07 2.5742e-06 0.755866 0.641999 0 0 0 0 0 0 0 0 0 0 0 0 0 0 0 0 0 0 0 0 0 0 0 0 0 0 0 0 0 0 0 0 0 0 0 0 0 0 0 0 0 0
6.10839 3.26606e-06 8.0049e-07 2.46557e-06 0.754907 0.598926 0 0 0 0 0 0 0 0 0 0 0 0 0 0 0 0 0 0 0 0 0 0 0 0 0 0 0 0 0 0 0 0 0 0 0 0 0 0 0 0 0 0
6.42193 3.17321e-06 8.30453e-07 2.34275e-06 0.738292 0.57536 0 0 0 0 0 0 0 0 0 0 0 0 0 0 0 0 0 0 0 0 0 0 0 0 0 0 0 0 0 0 0 0 0 0 0 0 0 0 0 0 0 0
6.75157 3.21531e-06 7.7384e-07 2.44147e-06 0.759326 0.576398 0 0 0 0 0 0 0 0 0 0 0 0 0 0 0 0 0 0 0 0 0 0 0 0 0 0 0 0 0 0 0 0 0 0 0 0 0 0 0 0 0 0
7.09813 3.26215e-06 8.19313e-07 2.44284e-06 0.748843 0.582081 0 0 0 0 0 0 0 0 0 0 0 0 0 0 0 0 0 0 0 0 0 0 0 0 0 0 0 0 0 0 0 0 0 0 0 0 0 0 0 0 0 0
7.46248 3.48869e-06 7.66562e-07 2.72213e-06 0.780272 0.614539 0 0 0 0 0 0 0 0 0 0 0 0 0 0 0 0 0 0 0 0 0 0 0 0 0 0 0 0 0 0 0 0 0 0 0 0 0 0 0 0 0 0
7.84553 3.57411e-06 8.2307e-07 2.75104e-06 0.769713 0.611558 0 0 0 0 0 0 0 0 0 0 0 0 0 0 0 0 0 0 0 0 0 0 0 0 0 0 0 0 0 0 0 0 0 0 0 0 0 0 0 0 0 0
8.24824 3.66122e-06 7.74299e-07 2.88692e-06 0.788513 0.635719 0 0 0 0 0 0 0 0 0 0 0 0 0 0 0 0 0 0 0 0 0 0 0 0 0 0 0 0 0 0 0 0 0 0 0 0 0 0 0 0 0 0
8.67162 3.67153e-06 8.60743e-07 2.81078e-06 0.765563 0.60385 0 0 0 0 0 0 0 0 0 0 0 0 0 0 0 0 0 0 0 0 0 0 0 0 0 0 0 0 0 0 0 0 0 0 0 0 0 0 0 0 0 0
9.11674 3.45468e-06 7.70438e-07 2.68424e-06 0.776987 0.613206 0 0 0 0 0 0 0 0 0 0 0 0 0 0 0 0 0 0 0 0 0 0 0 0 0 0 0 0 0 0 0 0 0 0 0 0 0 0 0 0 0 0
9.5847 3.40266e-06 8.61067e-07 2.54159e-06 0.746943 0.576694 0 0 0 0 0 0 0 0 0 0 0 0 0 0 0 0 0 0 0 0 0 0 0 0 0 0 0 0 0 0 0 0 0 0 0 0 0 0 0 0 0 0
10.0767 3.21862e-06 8.12836e-07 2.40578e-06 0.747458 0.520185 0 0 0 0 0 0 0 0 0 0 0 0 0 0 0 0 0 0 0 0 0 0 0 0 0 0 0 0 0 0 0 0 0 0 0 0 0 0 0 0 0 0
10.5939 3.27088e-06 9.06948e-07 2.36393e-06 0.722721 0.498255 0 0 0 0 0 0 0 0 0 0 0 0 0 0 0 0 0 0 0 0 0 0 0 0 0 0 0 0 0 0 0 0 0 0 0 0 0 0 0 0 0 0
11.1377 3.26801e-06 8.77054e-07 2.39095e-06 0.731624 0.48151 0 0 0 0 0 0 0 0 0 0 0 0 0 0 0 0 0 0 0 0 0 0 0 0 0 0 0 0 0 0 0 0 0 0 0 0 0 0 0 0 0 0
11.7094 3.29971e-06 8.84566e-07 2.41514e-06 0.731926 0.473251 0 0 0 0 0 0 0 0 0 0 0 0 0 0 0 0 0 0 0 0 0 0 0 0 0 0 0 0 0 0 0 0 1.4013e-45 0 2.8026e-45 0 9.80909e-45 0 2.94273e-44 0 7.70714e-44 0
12.3105 3.52874e-06 9.41342e-07 2.5874e-06 0.733236 0.478989 0 0 0 0 0 0 0 0 0 0 0 0 0 0 0 0 0 0 0 0 0 0 0 0 0 0 2.8026e-45 0 1.4013e-44 0 5.1848e-44 0 1.86373e-43 0 5.91348e-43 0 1.78525e-42 0 4.87231e-42 0 1.23917e-41 0
12.9424 3.61074e-06 8.85898e-07 2.72485e-06 0.754649 0.500593 0 0 0 0 0 0 0 0 0 0 0 0 0 0 0 0 0 0 0 0 2.8026e-45 0 1.96182e-44 0 1.079e-43 0 5.00264e-43 0 2.0487e-42 0 7.4507e-42 0 2.48885e-41 0 7.48055e-41 0 2.14082e-40 0 5.5636e-40 0 1.3521e-39 0
13.6067 3.8724e-06 9.10991e-07 2.96141e-06 0.764748 0.529063 0 0 0 0 0 0 0 0 0 0 0 0 0 0 0 0 5.60519e-45 0 6.16571e-44 0 4.9606e-43 0 3.06744e-42 0 1.59524e-41 0 6.87659e-41 0 2.62741e-40 0 8.96872e-40 0 2.82477e-39 0 8.04585e-39 0 2.18739e-38 0 5.42562e-38 0 1.26262e-37 0
14.3051 4.05927e-06 9.70491e-07 3.08878e-06 0.76092 0.53304 0 0 0 0 0 0 0 0 0 0 0 0 2.8026e-45 0 7.28675e-44 0 1.00473e-42 0 9.7096e-42 0 6.98225e-41 0 3.95211e-40 0 1.89604e-39 0 7.61081e-39 0 2.72372e-38 0 8.75652e-38 0 2.6077e-37 0 7.05751e-37 0 1.82725e-36 0 4.33571e-36 0 9.68219e-36 0
15.0394 4.00073e-06 9.42064e-07 3.05867e-06 0.764527 0.522701 0 0 0 0 0 0 0 0 0 0 1.26117e-44 0 5.0727e-43 0 1.01076e-41 0 1.23419e-40 0 1.06754e-39 0 6.97224e-39 0 3.62619e-38 0 1.61146e-37 0 6.04412e-37 0 2.03249e-36 0 6.17215e-36 0 1.7427e-35 0 4.49269e-35 0 1.11041e-34 0 2.52593e-34 0 5.42375e-34 0
15.8114 3.95143e-06 9.09575e-07 3.04186e-06 0.769811 0.518196 0 0 0 0 0 0 0 0 2.10195e-44 0 1.88054e-42 0 6.327e-41 0 1.08825e-39 0 1.17603e-38 0 9.15521e-38 0 5.45591e-37 0 2.61808e-36 0 1.08175e-35 0 3.80372e-35 0 1.20556e-34 0 3.46772e-34 0 9.30726e-34 0 2.29099e-33 0 5.41767e-33 0 1.18393e-32 0 2.44906e-32 0
16.623 3.94255e-06 9.30764e-07 3.01179e-06 0.763918 0.514482 0 0 0 0 0 0 9.80909e-45 0 3.19216e-42 0 2.2974e-40 0 6.51022e-39 0 9.74538e-38 0 9.37604e-37 0 6.60321e-36 0 3.60666e-35 0 1.60312e-34 0 6.18054e-34 0 2.04385e-33 0 6.12306e-33 0 1.67271e-32 0 4.27822e-32 0 1.00778e-31 0 2.28509e-31 0 4.80663e-31 0 9.59627e-31 0
17.4762 3.86189e-06 9.52412e-07 2.90948e-06 0.753382 0.50474 0 0 0 0 0 0 1.43773e-42 0 3.75806e-40 0 2.19509e-38 0 5.28324e-37 0 6.92987e-36 0 5.96954e-35 0 3.82197e-34 0 1.92149e-33 0 7.94085e-33 0 2.86624e-32 0 8.94076e-32 0 2.5388e-31 0 6.60346e-31 0 1.61325e-30 0 3.64449e-30 0 7.93993e-30 0 1.61059e-29 0 3.10876e-29 0
18.3733 3.71231e-06 9.45231e-07 2.76708e-06 0.74538 0.489429 0 0 0 0 5.04467e-44 0 1.68796e-40 0 3.36251e-38 0 1.61029e-36 0 3.31821e-35 0 3.83842e-34 0 2.97651e-33 0 1.74054e-32 0 8.08706e-32 0 3.11841e-31 0 1.05721e-30 0 3.11962e-30 0 8.41834e-30 0 2.08978e-29 0 4.88754e-29 0 1.06107e-28 0 2.22542e-28 0 4.36099e-28 0 8.15159e-28 0
19.3164 3.56865e-06 9.33537e-07 2.63512e-06 0.738406 0.474676 0 0 0 0 6.91541e-42 0 1.54325e-38 0 2.37397e-36 0 9.41195e-35 0 1.67311e-33 0 1.71736e-32 0 1.20499e-31 0 6.46419e-31 0 2.78644e-30 0 1.00595e-29 0 3.21304e-29 0 8.99314e-29 0 2.31199e-28 0 5.49011e-28 0 1.23184e-27 0 2.57497e-27 0 5.20878e-27 0 9.87741e-27 0 1.79076e-26 0
