# 0.00014125 0 144 : grain size, compostion index, size index
# Heating and cooling timescale: 0.000118667 6.97217e+07
# Ratio of heating to cooling to determine stochastic cutoff: 100
# Equilibrium emission is recorded even for those grains in the stochastic regime.
# Emission spectrum was computed for: 
# Type: IRSF
# Scales: 0.25 0.5 1 1.5 2 2.5 3 3.5 4 4.5 5 5.5 6 6.5 7 7.5 8 8.5 9 9.5 10
# StochasticallyHeated: 0 0 0 0 0 0 0 0 0 0 0 0 0 0 0 0 0 0 0 0 0
# Temperature: -1
# Wavelength  CExt  CAbs  CSca  Albedo G EqEm1 StEm1 EqEm2 StEm2 EqEm3 StEm3 EqEm4 StEm4 EqEm5 StEm5 EqEm6 StEm6 EqEm7 StEm7 EqEm8 StEm8 EqEm9 StEm9 EqEm10 StEm10 EqEm11 StEm11 EqEm12 StEm12 EqEm13 StEm13 EqEm14 StEm14 EqEm15 StEm15 EqEm16 StEm16 EqEm17 StEm17 EqEm18 StEm18 EqEm19 StEm19 EqEm20 StEm20 EqEm21 StEm21
0.05 3.3092e-08 1.22372e-08 2.08548e-08 0.630206 0.00576547 0 0 0 0 0 0 0 0 0 0 0 0 0 0 0 0 0 0 0 0 0 0 0 0 0 0 0 0 0 0 0 0 0 0 0 0 0 0 0 0 0 0
0.0525665 3.65765e-08 1.35258e-08 2.30507e-08 0.630206 0.00637255 0 0 0 0 0 0 0 0 0 0 0 0 0 0 0 0 0 0 0 0 0 0 0 0 0 0 0 0 0 0 0 0 0 0 0 0 0 0 0 0 0 0
0.0552647 4.04278e-08 1.495e-08 2.54778e-08 0.630206 0.00704355 0 0 0 0 0 0 0 0 0 0 0 0 0 0 0 0 0 0 0 0 0 0 0 0 0 0 0 0 0 0 0 0 0 0 0 0 0 0 0 0 0 0
0.0581015 4.46846e-08 1.65241e-08 2.81605e-08 0.630206 0.0077852 0 0 0 0 0 0 0 0 0 0 0 0 0 0 0 0 0 0 0 0 0 0 0 0 0 0 0 0 0 0 0 0 0 0 0 0 0 0 0 0 0 0
0.0610839 4.93897e-08 1.8264e-08 3.11257e-08 0.630206 0.00860494 0 0 0 0 0 0 0 0 0 0 0 0 0 0 0 0 0 0 0 0 0 0 0 0 0 0 0 0 0 0 0 0 0 0 0 0 0 0 0 0 0 0
0.0642193 5.45902e-08 2.01872e-08 3.4403e-08 0.630206 0.009511 0 0 0 0 0 0 0 0 0 0 0 0 0 0 0 0 0 0 0 0 0 0 0 0 0 0 0 0 0 0 0 0 0 0 0 0 0 0 0 0 0 0
0.0675157 6.03383e-08 2.23128e-08 3.80255e-08 0.630206 0.0105125 0 0 0 0 0 0 0 0 0 0 0 0 0 0 0 0 0 0 0 0 0 0 0 0 0 0 0 0 0 0 0 0 0 0 0 0 0 0 0 0 0 0
0.0709813 6.66916e-08 2.46622e-08 4.20294e-08 0.630206 0.0116194 0 0 0 0 0 0 0 0 0 0 0 0 0 0 0 0 0 0 0 0 0 0 0 0 0 0 0 0 0 0 0 0 0 0 0 0 0 0 0 0 0 0
0.0746248 7.37139e-08 2.7259e-08 4.64549e-08 0.630206 0.0128428 0 0 0 0 0 0 0 0 0 0 0 0 0 0 0 0 0 0 0 0 0 0 0 0 0 0 0 0 0 0 0 0 0 0 0 0 0 0 0 0 0 0
0.0784553 8.14756e-08 3.01292e-08 5.13464e-08 0.630206 0.0141951 0 0 0 0 0 0 0 0 0 0 0 0 0 0 0 0 0 0 0 0 0 0 0 0 0 0 0 0 0 0 0 0 0 0 0 0 0 0 0 0 0 0
0.0824824 9.00546e-08 3.33017e-08 5.67529e-08 0.630206 0.0156898 0 0 0 0 0 0 0 0 0 0 0 0 0 0 0 0 0 0 0 0 0 0 0 0 0 0 0 0 0 0 0 0 0 0 0 0 0 0 0 0 0 0
0.0867162 9.9537e-08 3.68082e-08 6.27288e-08 0.630206 0.0173419 0 0 0 0 0 0 0 0 0 0 0 0 0 0 0 0 0 0 0 0 0 0 0 0 0 0 0 0 0 0 0 0 0 0 0 0 0 0 0 0 0 0
0.0911674 1.10018e-07 4.0684e-08 6.93338e-08 0.630206 0.0191679 0 0 0 0 0 0 0 0 0 0 0 0 0 0 0 0 0 0 0 0 0 0 0 0 0 0 0 0 0 0 0 0 0 0 0 0 0 0 0 0 0 0
0.095847 1.21602e-07 4.49678e-08 7.66343e-08 0.630206 0.0211862 0 0 0 0 0 0 0 0 0 0 0 0 0 0 0 0 0 0 0 0 0 0 0 0 0 0 0 0 0 0 0 0 0 0 0 0 0 0 0 0 0 0
0.100767 1.32352e-07 4.93288e-08 8.30236e-08 0.627292 0.0235692 0 0 0 0 0 0 0 0 0 0 0 0 0 0 0 0 0 0 0 0 0 0 0 0 0 0 0 0 0 0 0 0 0 0 0 0 0 0 0 0 0 0
0.105939 1.32316e-07 5.14706e-08 8.08459e-08 0.611004 0.0256046 0 0 0 0 0 0 0 0 0 0 0 0 0 0 0 0 0 0 0 0 0 0 0 0 0 0 0 0 0 0 0 0 0 0 0 0 0 0 0 0 0 0
0.111377 1.32458e-07 5.19999e-08 8.04586e-08 0.607425 0.0289403 0 0 0 0 0 0 0 0 0 0 0 0 0 0 0 0 0 0 0 0 0 0 0 0 0 0 0 0 0 0 0 0 0 0 0 0 0 0 0 0 0 0
0.117094 1.3242e-07 5.38007e-08 7.86191e-08 0.593711 0.0274507 0 0 0 0 0 0 0 0 0 0 0 0 0 0 0 0 0 0 0 0 0 0 0 0 0 0 0 0 0 0 0 0 0 0 0 0 0 0 0 0 0 0
0.123105 1.32496e-07 5.59034e-08 7.65921e-08 0.578073 0.0236555 0 0 0 0 0 0 0 0 0 0 0 0 0 0 0 0 0 0 0 0 0 0 0 0 0 0 0 0 0 0 0 0 0 0 0 0 0 0 0 0 0 0
0.129424 1.32656e-07 5.75381e-08 7.51175e-08 0.566259 0.0199126 0 0 0 0 0 0 0 0 0 0 0 0 0 0 0 0 0 0 0 0 0 0 0 0 0 0 0 0 0 0 0 0 0 0 0 0 0 0 0 0 0 0
0.136067 1.32834e-07 5.88518e-08 7.39821e-08 0.556952 0.0168557 0 0 0 0 0 0 0 0 0 0 0 0 0 0 0 0 0 0 0 0 0 0 0 0 0 0 0 0 0 0 0 0 0 0 0 0 0 0 0 0 0 0
0.143051 1.32989e-07 5.99628e-08 7.3026e-08 0.549114 0.0143876 0 0 0 0 0 0 0 0 0 0 0 0 0 0 0 0 0 0 0 0 0 0 0 0 0 0 0 0 0 0 0 0 0 0 0 0 0 0 0 0 0 0
0.150394 1.33077e-07 6.08724e-08 7.22043e-08 0.542576 0.0122986 0 0 0 0 0 0 0 0 0 0 0 0 0 0 0 0 0 0 0 0 0 0 0 0 0 0 0 0 0 0 0 0 0 0 0 0 0 0 0 0 0 0
0.158114 1.33035e-07 6.14479e-08 7.15866e-08 0.538105 0.01055 0 0 0 0 0 0 0 0 0 0 0 0 0 0 0 0 0 0 0 0 0 0 0 0 0 0 0 0 0 0 0 0 0 0 0 0 0 0 0 0 0 0
0.16623 1.32857e-07 6.1393e-08 7.14644e-08 0.537903 0.00908216 0 0 0 0 0 0 0 0 0 0 0 0 0 0 0 0 0 0 0 0 0 0 0 0 0 0 0 0 0 0 0 0 0 0 0 0 0 0 0 0 0 0
0.174762 1.32726e-07 6.04606e-08 7.22651e-08 0.544469 0.00782097 0 0 0 0 0 0 0 0 0 0 0 0 0 0 0 0 0 0 0 0 0 0 0 0 0 0 0 0 0 0 0 0 0 0 0 0 0 0 0 0 0 0
0.183733 1.32901e-07 5.84267e-08 7.44743e-08 0.560374 0.00667218 0 0 0 0 0 0 0 0 0 0 0 0 0 0 0 0 0 0 0 0 0 0 0 0 0 0 0 0 0 0 0 0 0 0 0 0 0 0 0 0 0 0
0.193164 1.33637e-07 5.5097e-08 7.85396e-08 0.58771 0.00556038 0 0 0 0 0 0 0 0 0 0 0 0 0 0 0 0 0 0 0 0 0 0 0 0 0 0 0 0 0 0 0 0 0 0 0 0 0 0 0 0 0 0
0.203079 1.34844e-07 5.11403e-08 8.37037e-08 0.620745 0.00446034 0 0 0 0 0 0 0 0 0 0 0 0 0 0 0 0 0 0 0 0 0 0 0 0 0 0 0 0 0 0 0 0 0 0 0 0 0 0 0 0 0 0
0.213503 1.36329e-07 4.76941e-08 8.86348e-08 0.650154 0.00342932 0 0 0 0 0 0 0 0 0 0 0 0 0 0 0 0 0 0 0 0 0 0 0 0 0 0 0 0 0 0 0 0 0 0 0 0 0 0 0 0 0 0
0.224463 1.3793e-07 4.55166e-08 9.24134e-08 0.670002 0.00254317 0 0 0 0 0 0 0 0 0 0 0 0 0 0 0 0 0 0 0 0 0 0 0 0 0 0 0 0 0 0 0 0 0 0 0 0 0 0 0 0 0 0
0.235984 1.3945e-07 4.46594e-08 9.47905e-08 0.679746 0.00182186 0 0 0 0 0 0 0 0 0 0 0 0 0 0 0 0 0 0 0 0 0 0 0 0 0 0 0 0 0 0 0 0 0 0 0 0 0 0 0 0 0 0
0.248097 1.40556e-07 4.47528e-08 9.5803e-08 0.681601 0.00138916 0 0 0 0 0 0 0 0 0 0 0 0 0 0 0 0 0 0 0 0 0 0 0 0 0 0 0 0 0 0 0 0 0 0 0 0 0 0 0 0 0 0
0.260832 1.40914e-07 4.55282e-08 9.53854e-08 0.676907 0.00141961 0 0 0 0 0 0 0 0 0 0 0 0 0 0 0 0 0 0 0 0 0 0 0 0 0 0 0 0 0 0 0 0 0 0 0 0 0 0 0 0 0 0
0.274221 1.40514e-07 4.69391e-08 9.35748e-08 0.665947 0.00187131 0 0 0 0 0 0 0 0 0 0 0 0 0 0 0 0 0 0 0 0 0 0 0 0 0 0 0 0 0 0 0 0 0 0 0 0 0 0 0 0 0 0
0.288297 1.39891e-07 4.88858e-08 9.10051e-08 0.650543 0.00251556 0 0 0 0 0 0 0 0 0 0 0 0 0 0 0 0 0 0 0 0 0 0 0 0 0 0 0 0 0 0 0 0 0 0 0 0 0 0 0 0 0 0
0.303095 1.39561e-07 5.09511e-08 8.86099e-08 0.634919 0.0028362 0 0 0 0 0 0 0 0 0 0 0 0 0 0 0 0 0 0 0 0 0 0 0 0 0 0 0 0 0 0 0 0 0 0 0 0 0 0 0 0 0 0
0.318653 1.39573e-07 5.27583e-08 8.68144e-08 0.622001 0.00297223 0 0 0 0 0 0 0 0 0 0 0 0 0 0 0 0 0 0 0 0 0 0 0 0 0 0 0 0 0 0 0 0 0 0 0 0 0 0 0 0 0 0
0.335009 1.39821e-07 5.41731e-08 8.56481e-08 0.612555 0.00293231 0 0 0 0 0 0 0 0 0 0 0 0 0 0 0 0 0 0 0 0 0 0 0 0 0 0 0 0 0 0 0 0 0 0 0 0 0 0 0 0 0 0
0.352205 1.40205e-07 5.52128e-08 8.49924e-08 0.6062 0.00278811 0 0 0 0 0 0 0 0 0 0 0 0 0 0 0 0 0 0 0 0 0 0 0 0 0 0 0 0 0 0 0 0 0 0 0 0 0 0 0 0 0 0
0.370284 1.40664e-07 5.59442e-08 8.47202e-08 0.602286 0.00261033 0 0 0 0 0 0 0 0 0 0 0 0 0 0 0 0 0 0 0 0 0 0 0 0 0 0 0 0 0 0 0 0 0 0 0 0 0 0 0 0 0 0
0.389291 1.4117e-07 5.64457e-08 8.4724e-08 0.600157 0.00243645 0 0 0 0 0 0 0 0 0 0 0 0 0 0 0 0 0 0 0 0 0 0 0 0 0 0 0 0 0 0 0 0 0 0 0 0 0 0 0 0 0 0
0.409273 1.41693e-07 5.68061e-08 8.48873e-08 0.599091 0.00226652 0 0 0 0 0 0 0 0 0 0 0 0 0 0 0 0 0 0 0 0 0 0 0 0 0 0 0 0 0 0 0 0 0 0 0 0 0 0 0 0 0 0
0.430281 1.42226e-07 5.70984e-08 8.51275e-08 0.598537 0.00210471 0 0 0 0 0 0 0 0 0 0 0 0 0 0 0 0 0 0 0 0 0 0 0 0 0 0 0 0 0 0 0 0 0 0 0 0 0 0 0 0 0 0
0.452368 1.42757e-07 5.7374e-08 8.53834e-08 0.598101 0.00193723 0 0 0 0 0 0 0 0 0 0 0 0 0 0 0 0 0 0 0 0 0 0 0 0 0 0 0 0 0 0 0 0 0 0 0 0 0 0 0 0 0 0
0.475588 1.43291e-07 5.76637e-08 8.56273e-08 0.597576 0.00177642 0 0 0 0 0 0 0 0 0 0 0 0 0 0 0 0 0 0 0 0 0 0 0 0 0 0 0 0 0 0 0 0 0 0 0 0 0 0 0 0 0 0
0.5 1.43831e-07 5.7979e-08 8.58517e-08 0.596894 0.00162159 0 0 0 0 0 0 0 0 0 0 0 0 0 0 0 0 0 0 0 0 0 0 0 0 0 0 0 0 0 0 0 0 0 0 0 0 0 0 0 0 0 0
0.525665 1.44388e-07 5.83178e-08 8.60697e-08 0.596102 0.0014751 0 0 0 0 0 0 0 0 0 0 0 0 0 0 0 0 0 0 0 0 0 0 0 0 0 0 0 0 0 0 0 0 0 0 0 0 0 0 0 0 0 0
0.552648 1.44963e-07 5.8674e-08 8.62893e-08 0.595249 0.00134175 0 0 0 0 0 0 0 0 0 0 0 0 0 0 0 0 0 0 0 0 0 0 0 0 0 0 0 0 0 0 0 0 0 0 0 0 0 0 0 0 0 0
0.581015 1.45565e-07 5.90368e-08 8.65279e-08 0.594429 0.00121775 0 0 0 0 0 0 0 0 0 0 0 0 0 0 0 0 0 0 0 0 0 0 0 0 0 0 0 0 0 0 0 0 0 0 0 0 0 0 0 0 0 0
0.610839 1.46193e-07 5.9397e-08 8.67959e-08 0.593708 0.00110516 0 0 0 0 0 0 0 0 0 0 0 0 0 0 0 0 0 0 0 0 0 0 0 0 0 0 0 0 0 0 0 0 0 0 0 0 0 0 0 0 0 0
0.642193 1.46848e-07 5.97469e-08 8.71011e-08 0.593138 0.00100302 0 0 0 0 0 0 0 0 0 0 0 0 0 0 0 0 0 0 0 0 0 0 0 0 0 0 0 0 0 0 0 0 0 0 0 0 0 0 0 0 0 0
0.675157 1.47532e-07 6.00785e-08 8.7453e-08 0.592775 0.000910957 0 0 0 0 0 0 0 0 0 0 0 0 0 0 0 0 0 0 0 0 0 0 0 0 0 0 0 0 0 0 0 0 0 0 0 0 0 0 0 0 0 0
0.709813 1.48243e-07 6.03902e-08 8.78533e-08 0.592628 0.00082817 0 0 0 0 0 0 0 0 0 0 0 0 0 0 0 0 0 0 0 0 0 0 0 0 0 0 0 0 0 0 0 0 0 0 0 0 0 0 0 0 0 0
0.746248 1.48978e-07 6.06782e-08 8.83e-08 0.592704 0.000754183 0 0 0 0 0 0 0 0 0 0 0 0 0 0 0 0 0 0 0 0 0 0 0 0 0 0 0 0 0 0 0 0 0 0 0 0 0 0 0 0 0 0
0.784553 1.49733e-07 6.094e-08 8.87934e-08 0.59301 0.000686995 0 0 0 0 0 0 0 0 0 0 0 0 0 0 0 0 0 0 0 0 0 0 0 0 0 0 0 0 0 0 0 0 0 0 0 0 0 0 0 0 0 0
0.824824 1.5051e-07 6.11788e-08 8.93317e-08 0.593525 0.000626788 0 0 0 0 0 0 0 0 0 0 0 0 0 0 0 0 0 0 0 0 0 0 0 0 0 0 0 0 0 0 0 0 0 0 0 0 0 0 0 0 0 0
0.867162 1.51302e-07 6.13933e-08 8.99085e-08 0.594233 0.000572518 0 0 0 0 0 0 0 0 0 0 0 0 0 0 0 0 0 0 0 0 0 0 0 0 0 0 0 0 0 0 0 0 0 0 0 0 0 0 0 0 0 0
0.911674 1.52101e-07 6.15851e-08 9.05161e-08 0.595104 0.000523427 0 0 0 0 0 0 0 0 0 0 0 0 0 0 0 0 0 0 0 0 0 0 0 0 0 0 0 0 0 0 0 0 0 0 0 0 0 0 0 0 0 0
0.95847 1.52913e-07 6.17594e-08 9.11538e-08 0.596115 0.00047944 0 0 0 0 0 0 0 0 0 0 0 0 0 0 0 0 0 0 0 0 0 0 0 0 0 0 0 0 0 0 0 0 0 0 0 0 0 0 0 0 0 0
1.00767 1.53723e-07 6.19129e-08 9.18103e-08 0.597244 0.0004395 0 0 0 0 0 0 0 0 0 0 0 0 0 0 0 0 0 0 0 0 0 0 0 0 0 0 0 0 0 0 0 0 0 0 0 0 0 0 0 0 0 0
1.05939 1.54536e-07 6.20537e-08 9.24824e-08 0.598452 0.000403275 0 0 0 0 0 0 0 0 0 0 0 0 0 0 0 0 0 0 0 0 0 0 0 0 0 0 0 0 0 0 0 0 0 0 0 0 0 0 0 0 0 0
1.11377 1.55346e-07 6.218e-08 9.31663e-08 0.599733 0.000370298 0 0 0 0 0 0 0 0 0 0 0 0 0 0 0 0 0 0 0 0 0 0 0 0 0 0 0 0 0 0 0 0 0 0 0 0 0 0 0 0 0 0
1.17094 1.56151e-07 6.22948e-08 9.38564e-08 0.601061 0.000339515 0 0 0 0 0 0 0 0 0 0 0 0 0 0 0 0 0 0 0 0 0 0 0 0 0 0 0 0 0 0 0 0 0 0 0 0 0 0 0 0 0 0
1.23105 1.5695e-07 6.24082e-08 9.45421e-08 0.602369 0.000311294 0 0 0 0 0 0 0 0 0 0 0 0 0 0 0 0 0 0 0 0 0 0 0 0 0 0 0 0 0 0 0 0 0 0 0 0 0 0 0 0 0 0
1.29424 1.5773e-07 6.25028e-08 9.52275e-08 0.603736 0.000285362 0 0 0 0 0 0 0 0 0 0 0 0 0 0 0 0 0 0 0 0 0 0 0 0 0 0 0 0 0 0 0 0 0 0 0 0 0 0 0 0 0 0
1.36067 1.58523e-07 6.26126e-08 9.59105e-08 0.605025 0.000261742 0 0 0 0 0 0 0 0 0 0 0 0 0 0 0 0 0 0 0 0 0 0 0 0 0 0 0 0 0 0 0 0 0 0 0 0 0 0 0 0 0 0
1.43051 1.59281e-07 6.27129e-08 9.65682e-08 0.606275 0.000240209 0 0 0 0 0 0 0 0 0 0 0 0 0 0 0 0 0 0 0 0 0 0 0 0 0 0 0 0 0 0 0 0 0 0 0 0 0 0 0 0 0 0
1.50394 1.60033e-07 6.2804e-08 9.72285e-08 0.607555 0.000220279 0 0 0 0 0 0 0 0 0 0 0 0 0 0 0 0 0 0 0 0 0 0 0 0 0 0 0 0 0 0 0 0 0 0 0 0 0 0 0 0 0 0
1.58114 1.60806e-07 6.29336e-08 9.78723e-08 0.608636 0.000201732 0 0 0 0 0 0 0 0 0 0 0 0 0 0 0 0 0 0 0 0 0 0 0 0 0 0 0 0 0 0 0 0 0 0 0 0 0 0 0 0 0 0
1.6623 1.61531e-07 6.30557e-08 9.84753e-08 0.609637 0.000184534 0 0 0 0 0 0 0 0 0 0 0 0 0 0 0 0 0 0 0 0 0 0 0 0 0 0 0 0 0 0 0 0 0 0 0 0 0 0 0 0 0 0
1.74763 1.6223e-07 6.3149e-08 9.90809e-08 0.610744 0.000169005 0 0 0 0 0 0 0 0 0 0 0 0 0 0 0 0 0 0 0 0 0 0 0 0 0 0 0 0 0 0 0 0 0 0 0 0 0 0 0 0 0 0
1.83733 1.63004e-07 6.33095e-08 9.96944e-08 0.611607 0.000154804 0 0 0 0 0 0 0 0 0 0 0 0 0 0 0 0 0 0 0 0 0 0 0 0 0 0 0 0 0 0 0 0 0 0 0 0 0 0 0 0 0 0
1.93164 1.63759e-07 6.35176e-08 1.00241e-07 0.612126 0.000141793 0 0 0 0 0 0 0 0 0 0 0 0 0 0 0 0 0 0 0 0 0 0 0 0 0 0 0 0 0 0 0 0 0 0 0 0 0 0 0 0 0 0
2.03079 1.64399e-07 6.36678e-08 1.00731e-07 0.612724 0.000129725 0 0 0 0 0 0 0 0 0 0 0 0 0 0 0 0 0 0 0 0 0 0 0 0 0 0 0 0 0 0 0 0 0 0 0 0 0 0 0 0 0 0
2.13503 1.6507e-07 6.38039e-08 1.01267e-07 0.613475 0.000118657 0 0 0 0 0 0 0 0 0 0 0 0 0 0 0 0 0 0 0 0 0 0 0 0 0 0 0 0 0 0 0 0 0 0 0 0 0 0 0 0 0 0
2.24463 1.65895e-07 6.40632e-08 1.01832e-07 0.613833 0.000108569 0 0 0 0 0 0 0 0 0 0 0 0 0 0 0 0 0 0 0 0 0 0 0 0 0 0 0 0 0 0 0 0 0 0 0 0 0 0 0 0 0 0
2.35984 1.66718e-07 6.44177e-08 1.02301e-07 0.613614 9.92926e-05 0 0 0 0 0 0 0 0 0 0 0 0 0 0 0 0 0 0 0 0 0 0 0 0 0 0 0 0 0 0 0 0 0 0 0 0 0 0 0 0 0 0
2.48097 1.67346e-07 6.47099e-08 1.02636e-07 0.613316 9.07218e-05 0 0 0 0 0 0 0 0 0 0 0 0 0 0 0 0 0 0 0 0 0 0 0 0 0 0 0 0 0 0 0 0 0 0 0 0 0 0 0 0 0 0
2.60832 1.67858e-07 6.48943e-08 1.02964e-07 0.613397 8.27967e-05 0 0 0 0 0 0 0 0 0 0 0 0 0 0 0 0 0 0 0 0 0 0 0 0 0 0 0 0 0 0 0 0 0 0 0 0 0 0 0 0 0 0
2.74221 1.68574e-07 6.51316e-08 1.03442e-07 0.613631 7.55862e-05 0 0 0 0 0 0 0 0 0 0 0 0 0 0 0 0 0 0 0 0 0 0 0 0 0 0 0 0 0 0 0 0 0 0 0 0 0 0 0 0 0 0
2.88297 1.69575e-07 6.55797e-08 1.03995e-07 0.613269 6.90729e-05 0 0 0 0 0 0 0 0 0 0 0 0 0 0 0 0 0 0 0 0 0 0 0 0 0 0 0 0 0 0 0 0 0 0 0 0 0 0 0 0 0 0
3.03095 1.70622e-07 6.62055e-08 1.04416e-07 0.611975 6.31538e-05 0 0 0 0 0 0 0 0 0 0 0 0 0 0 0 0 0 0 0 0 0 0 0 0 0 0 0 0 0 0 0 0 0 0 0 0 0 0 0 0 0 0
3.18653 1.71367e-07 6.68072e-08 1.0456e-07 0.610151 5.76567e-05 0 0 0 0 0 0 0 0 0 0 0 0 0 0 0 0 0 0 0 0 0 0 0 0 0 0 0 0 0 0 0 0 0 0 0 0 0 0 0 0 0 0
3.35009 1.71742e-07 6.72237e-08 1.04519e-07 0.608578 5.2603e-05 0 0 0 0 0 0 0 0 0 0 0 0 0 0 0 0 0 0 0 0 0 0 0 0 0 0 0 0 0 0 0 0 0 0 0 0 0 0 0 0 0 0
3.52205 1.7201e-07 6.74746e-08 1.04535e-07 0.607728 4.80102e-05 0 0 0 0 0 0 0 0 0 0 0 0 0 0 0 0 0 0 0 0 0 0 0 0 0 0 0 0 0 0 0 0 0 0 0 0 0 0 0 0 0 0
3.70284 1.72576e-07 6.77649e-08 1.04811e-07 0.607333 4.38066e-05 0 0 0 0 0 0 0 0 0 0 0 0 0 0 0 0 0 0 0 0 0 0 0 0 0 0 0 0 0 0 0 0 0 0 0 0 0 0 0 0 0 0
3.89291 1.73679e-07 6.83193e-08 1.0536e-07 0.606634 3.9926e-05 0 0 0 0 0 0 0 0 0 0 0 0 0 0 0 0 0 0 0 0 0 0 0 0 0 0 0 0 0 0 0 0 0 0 0 0 0 0 0 0 0 0
4.09273 1.75197e-07 6.92236e-08 1.05973e-07 0.60488 3.62643e-05 0 0 0 0 0 0 0 0 0 0 0 0 0 0 0 0 0 0 0 0 0 0 0 0 0 0 0 0 0 0 0 0 0 0 0 0 0 0 0 0 0 0
4.30281 1.76717e-07 7.03778e-08 1.06339e-07 0.601748 3.29535e-05 0 0 0 0 0 0 0 0 0 0 0 0 0 0 0 0 0 0 0 0 0 0 0 0 0 0 0 0 0 0 0 0 0 0 0 0 0 0 0 0 0 0
4.52368 1.77814e-07 7.15706e-08 1.06243e-07 0.597497 2.99416e-05 0 0 0 0 0 0 0 0 0 0 0 0 0 0 0 0 0 0 0 0 0 0 0 0 0 0 0 0 0 0 0 0 0 0 0 0 0 0 0 0 0 0
4.75588 1.78175e-07 7.25584e-08 1.05617e-07 0.592769 2.71796e-05 0 0 0 0 0 0 0 0 0 0 0 0 0 0 0 0 0 0 0 0 0 0 0 0 0 0 0 0 0 0 0 0 0 0 0 0 0 0 0 0 0 0
5 1.77803e-07 7.31822e-08 1.04621e-07 0.588409 2.45398e-05 0 0 0 0 0 0 0 0 0 0 0 0 0 0 0 0 0 0 0 0 0 0 0 0 0 0 0 0 0 0 0 0 0 0 0 0 0 0 0 0 0 0
5.25665 1.77018e-07 7.34316e-08 1.03586e-07 0.585174 2.21678e-05 0 0 0 0 0 0 0 0 0 0 0 0 0 0 0 0 0 0 0 0 0 0 0 0 0 0 0 0 0 0 0 0 0 0 0 0 0 0 0 0 0 0
5.52648 1.76409e-07 7.34806e-08 1.02929e-07 0.583466 2.00489e-05 0 0 0 0 0 0 0 0 0 0 0 0 0 0 0 0 0 0 0 0 0 0 0 0 0 0 0 0 0 0 0 0 0 0 0 0 0 0 0 0 0 0
5.81015 1.76596e-07 7.35926e-08 1.03003e-07 0.583271 1.8115e-05 0 0 0 0 0 0 0 0 0 0 0 0 0 0 0 0 0 0 0 0 0 0 0 0 0 0 0 0 0 0 0 0 0 0 0 0 0 0 0 0 0 0
6.10839 1.77954e-07 7.39711e-08 1.03983e-07 0.584325 1.63023e-05 0 0 0 0 0 0 0 0 0 0 0 0 0 0 0 0 0 0 0 0 0 0 0 0 0 0 0 0 0 0 0 0 0 0 0 0 0 0 0 0 0 0
6.42193 1.80601e-07 7.51052e-08 1.05496e-07 0.584138 1.48144e-05 0 0 0 0 0 0 0 0 0 0 0 0 0 0 0 0 0 0 0 0 0 0 0 0 0 0 0 0 0 0 0 0 0 0 0 0 0 0 0 0 0 0
6.75157 1.83451e-07 7.63258e-08 1.07126e-07 0.583945 1.32279e-05 0 0 0 0 0 0 0 0 0 0 0 0 0 0 0 0 0 0 0 0 0 0 0 0 0 0 0 0 0 0 0 0 0 0 0 0 0 0 0 0 1.4013e-45 0
7.09813 1.85965e-07 7.80432e-08 1.07922e-07 0.580334 1.18448e-05 0 0 0 0 0 0 0 0 0 0 0 0 0 0 0 0 0 0 0 0 0 0 0 0 0 0 0 0 0 0 1.4013e-45 0 5.60519e-45 0 1.54143e-44 0 4.62428e-44 0 1.26117e-43 0 3.22299e-43 0
7.46248 1.8716e-07 7.99771e-08 1.07183e-07 0.57268 1.05694e-05 0 0 0 0 0 0 0 0 0 0 0 0 0 0 0 0 0 0 0 0 0 0 1.4013e-45 0 4.2039e-45 0 1.82169e-44 0 7.42688e-44 0 2.71852e-43 0 8.68805e-43 0 2.62043e-42 0 7.25312e-42 0 1.90871e-41 0 4.64236e-41 0
7.84553 1.86467e-07 8.19231e-08 1.04544e-07 0.560658 9.34187e-06 0 0 0 0 0 0 0 0 0 0 0 0 0 0 0 0 0 0 4.2039e-45 0 2.52234e-44 0 1.5134e-43 0 7.28675e-43 0 3.03942e-42 0 1.14304e-41 0 3.89939e-41 0 1.17682e-40 0 3.36347e-40 0 8.85877e-40 0 2.22353e-39 0 5.17834e-39 0
8.24824 1.84004e-07 8.38109e-08 1.00193e-07 0.544516 8.19911e-06 0 0 0 0 0 0 0 0 0 0 0 0 0 0 5.60519e-45 0 7.28675e-44 0 6.22177e-43 0 4.09179e-42 0 2.20074e-41 0 9.83754e-41 0 3.82625e-40 0 1.34854e-39 0 4.3332e-39 0 1.23907e-38 0 3.36438e-38 0 8.45193e-38 0 2.0282e-37 0 4.53246e-37 0
8.67162 1.80547e-07 8.58061e-08 9.47408e-08 0.524744 7.20916e-06 0 0 0 0 0 0 0 0 0 0 1.4013e-45 0 6.30584e-44 0 1.00613e-42 0 1.09175e-41 0 8.37332e-41 0 5.02367e-40 0 2.48884e-39 0 1.03411e-38 0 3.76406e-38 0 1.24748e-37 0 3.78643e-37 0 1.02858e-36 0 2.65991e-36 0 6.38832e-36 0 1.46886e-35 0 3.15612e-35 0
9.11674 1.77239e-07 8.82059e-08 8.90331e-08 0.502334 6.32492e-06 0 0 0 0 0 0 0 0 5.60519e-45 0 3.60134e-43 0 9.3845e-42 0 1.31383e-40 0 1.2688e-39 0 8.8095e-39 0 4.84264e-38 0 2.21885e-37 0 8.59998e-37 0 2.93894e-36 0 9.18676e-36 0 2.64128e-35 0 6.83336e-35 0 1.687e-34 0 3.88201e-34 0 8.57032e-34 0 1.77399e-33 0
9.5847 1.74991e-07 9.10822e-08 8.3909e-08 0.479504 5.52644e-06 0 0 0 0 0 0 5.60519e-45 0 1.01174e-42 0 4.90525e-41 0 1.09175e-39 0 1.34362e-38 0 1.16158e-37 0 7.33698e-37 0 3.71118e-36 0 1.57864e-35 0 5.72698e-35 0 1.84316e-34 0 5.44963e-34 0 1.48808e-33 0 3.67528e-33 0 8.68179e-33 0 1.91813e-32 0 4.07405e-32 0 8.13868e-32 0
10.0767 1.73877e-07 9.39647e-08 7.9912e-08 0.45959 4.78203e-06 0 0 0 0 0 0 8.98232e-43 0 1.29784e-40 0 5.20299e-39 0 9.95242e-38 0 1.08357e-36 0 8.43124e-36 0 4.8672e-35 0 2.27459e-34 0 9.01515e-34 0 3.07109e-33 0 9.33564e-33 0 2.61795e-32 0 6.80645e-32 0 1.60847e-31 0 3.64339e-31 0 7.74403e-31 0 1.58541e-30 0 3.06194e-30 0
10.5939 1.72696e-07 9.57623e-08 7.69341e-08 0.445488 4.06995e-06 0 0 0 0 9.52883e-44 0 1.13285e-40 0 1.28303e-38 0 4.29539e-37 0 7.1138e-36 0 6.89292e-35 0 4.85214e-34 0 2.57127e-33 0 1.11449e-32 0 4.12997e-32 0 1.32519e-31 0 3.81552e-31 0 1.01744e-30 0 2.52468e-30 0 5.72089e-30 0 1.24514e-29 0 2.55089e-29 0 5.04283e-29 0 9.43132e-29 0
11.1377 1.69602e-07 9.53596e-08 7.42428e-08 0.437746 3.40803e-06 0 0 0 0 1.29046e-41 0 1.08919e-38 0 9.79223e-37 0 2.76187e-35 0 3.98823e-34 0 3.45881e-33 0 2.21349e-32 0 1.08126e-31 0 4.36279e-31 0 1.51656e-30 0 4.59694e-30 0 1.25696e-29 0 3.19506e-29 0 7.58415e-29 0 1.65127e-28 0 3.46006e-28 0 6.84462e-28 0 1.30882e-27 0 2.37413e-27 0
11.7094 1.57692e-07 9.04221e-08 6.72699e-08 0.42659 2.82232e-06 0 0 8.40779e-45 0 1.29739e-39 0 7.88076e-37 0 5.68792e-35 0 1.3629e-33 0 1.72753e-32 0 1.34824e-31 0 7.88061e-31 0 3.56272e-30 0 1.34287e-29 0 4.3925e-29 0 1.26127e-28 0 3.28345e-28 0 7.97455e-28 0 1.8147e-27 0 3.80381e-27 0 7.68773e-27 0 1.47095e-26 0 2.72511e-26 0 4.80154e-26 0
12.3105 1.49254e-07 8.70265e-08 6.22272e-08 0.416922 2.20615e-06 0 0 1.20652e-42 0 1.04156e-37 0 4.62677e-35 0 2.70975e-33 0 5.56015e-32 0 6.22584e-31 0 4.39514e-30 0 2.35682e-29 0 9.89823e-29 0 3.49684e-28 0 1.0795e-27 0 2.9441e-27 0 7.31458e-27 0 1.70118e-26 0 3.71888e-26 0 7.51855e-26 0 1.46823e-25 0 2.72167e-25 0 4.89268e-25 0 8.38557e-25 0
12.9424 1.37785e-07 8.35197e-08 5.42654e-08 0.393841 1.60871e-06 1.4013e-45 0 1.33855e-40 0 6.63664e-36 0 2.18915e-33 0 1.05105e-31 0 1.86087e-30 0 1.85185e-29 0 1.18834e-28 0 5.8706e-28 0 2.29872e-27 0 7.63558e-27 0 2.23094e-26 0 5.79353e-26 0 1.37684e-25 0 3.07288e-25 0 6.46585e-25 0 1.26305e-24 0 2.3872e-24 0 4.29382e-24 0 7.501e-24 0 1.25222e-23 0
13.6067 1.28175e-07 8.2315e-08 4.58604e-08 0.357794 1.1081e-06 1.16308e-43 0 1.19515e-38 0 3.49536e-34 0 8.68691e-32 0 3.45241e-30 0 5.31224e-29 0 4.72549e-28 0 2.76926e-27 0 1.26542e-26 0 4.63548e-26 0 1.4521e-25 0 4.02633e-25 0 9.97994e-25 0 2.27359e-24 0 4.87925e-24 0 9.90052e-24 0 1.87178e-23 0 3.42946e-23 0 5.99422e-23 0 1.01901e-22 0 1.65911e-22 0
