# 2e-07 1 0 : grain size, compostion index, size index
# Heating and cooling timescale: 6621.12 8.71999
# Ratio of heating to cooling to determine stochastic cutoff: 100
# Equilibrium emission is recorded even for those grains in the stochastic regime.
# Emission spectrum was computed for: 
# Type: ISRF
# Scales: 0.25 0.5 1 1.5 2 2.5 3 3.5 4 4.5 5 5.5 6 6.5 7 7.5 8 8.5 9 9.5 10
# StochasticallyHeated: 1 1 1 1 1 1 1 1 1 1 1 1 1 1 1 1 1 1 1 1 1
# Temperature: -1
# Wavelength  CExt  CAbs  CSca  Albedo G EqEm1 StEm1 EqEm2 StEm2 EqEm3 StEm3 EqEm4 StEm4 EqEm5 StEm5 EqEm6 StEm6 EqEm7 StEm7 EqEm8 StEm8 EqEm9 StEm9 EqEm10 StEm10 EqEm11 StEm11 EqEm12 StEm12 EqEm13 StEm13 EqEm14 StEm14 EqEm15 StEm15 EqEm16 StEm16 EqEm17 StEm17 EqEm18 StEm18 EqEm19 StEm19 EqEm20 StEm20 EqEm21 StEm21
0.05 4.38835e-14 4.38475e-14 3.59719e-17 0.000819714 0.00611194 0 0 0 0 0 0 0 0 0 0 0 0 0 0 0 0 0 0 0 0 0 0 0 0 0 0 0 0 0 0 0 0 0 0 0 0 0 0 0 0 0 0
0.0525665 4.29884e-14 4.29533e-14 3.50941e-17 0.000816362 0.00600702 0 0 0 0 0 0 0 0 0 0 0 0 0 0 0 0 0 0 0 0 0 0 0 0 0 0 0 0 0 0 0 0 0 0 0 0 0 0 0 0 0 0
0.0552647 4.20469e-14 4.20128e-14 3.41705e-17 0.000812676 0.00589666 0 0 0 0 0 0 0 0 0 0 0 0 0 0 0 0 0 0 0 0 0 0 0 0 0 0 0 0 0 0 0 0 0 0 0 0 0 0 0 0 0 0
0.0581015 4.10572e-14 4.1024e-14 3.32009e-17 0.00080865 0.00578068 0 0 0 0 0 0 0 0 0 0 0 0 0 0 0 0 0 0 0 0 0 0 0 0 0 0 0 0 0 0 0 0 0 0 0 0 0 0 0 0 0 0
0.0610839 4.0017e-14 3.99848e-14 3.21798e-17 0.000804152 0.00565878 0 0 0 0 0 0 0 0 0 0 0 0 0 0 0 0 0 0 0 0 0 0 0 0 0 0 0 0 0 0 0 0 0 0 0 0 0 0 0 0 0 0
0.0642193 3.89231e-14 3.8892e-14 3.11075e-17 0.000799204 0.00553053 0 0 0 0 0 0 0 0 0 0 0 0 0 0 0 0 0 0 0 0 0 0 0 0 0 0 0 0 0 0 0 0 0 0 0 0 0 0 0 0 0 0
0.0675157 3.77733e-14 3.77433e-14 2.99806e-17 0.000793699 0.00539573 0 0 0 0 0 0 0 0 0 0 0 0 0 0 0 0 0 0 0 0 0 0 0 0 0 0 0 0 0 0 0 0 0 0 0 0 0 0 0 0 0 0
0.0709813 3.65641e-14 3.65353e-14 2.87949e-17 0.000787519 0.00525402 0 0 0 0 0 0 0 0 0 0 0 0 0 0 0 0 0 0 0 0 0 0 0 0 0 0 0 0 0 0 0 0 0 0 0 0 0 0 0 0 0 0
0.0746248 3.52929e-14 3.52653e-14 2.75482e-17 0.00078056 0.00510505 0 0 0 0 0 0 0 0 0 0 0 0 0 0 0 0 0 0 0 0 0 0 0 0 0 0 0 0 0 0 0 0 0 0 0 0 0 0 0 0 0 0
0.0784553 3.39566e-14 3.39303e-14 2.62377e-17 0.000772685 0.00494845 0 0 0 0 0 0 0 0 0 0 0 0 0 0 0 0 0 0 0 0 0 0 0 0 0 0 0 0 0 0 0 0 0 0 0 0 0 0 0 0 0 0
0.0824824 3.25513e-14 3.25265e-14 2.48609e-17 0.000763744 0.00478378 0 0 0 0 0 0 0 0 0 0 0 0 0 0 0 0 0 0 0 0 0 0 0 0 0 0 0 0 0 0 0 0 0 0 0 0 0 0 0 0 0 0
0.0867162 3.10736e-14 3.10502e-14 2.34122e-17 0.000753445 0.00461068 0 0 0 0 0 0 0 0 0 0 0 0 0 0 0 0 0 0 0 0 0 0 0 0 0 0 0 0 0 0 0 0 0 0 0 0 0 0 0 0 0 0
0.0911674 2.95213e-14 2.94994e-14 2.18892e-17 0.000741469 0.00442867 0 0 0 0 0 0 0 0 0 0 0 0 0 0 0 0 0 0 0 0 0 0 0 0 0 0 0 0 0 0 0 0 0 0 0 0 0 0 0 0 0 0
0.095847 2.78884e-14 2.78681e-14 2.02895e-17 0.000727522 0.00423726 0 0 0 0 0 0 0 0 0 0 0 0 0 0 0 0 0 0 0 0 0 0 0 0 0 0 0 0 0 0 0 0 0 0 0 0 0 0 0 0 0 0
0.100767 2.61717e-14 2.61531e-14 1.86062e-17 0.000710927 0.00403616 0 0 0 0 0 0 0 0 0 0 0 0 0 0 0 0 0 0 0 0 0 0 0 0 0 0 0 0 0 0 0 0 0 0 0 0 0 0 0 0 0 0
0.105939 2.43674e-14 2.43506e-14 1.68372e-17 0.00069097 0.00382466 0 0 0 0 0 0 0 0 0 0 0 0 0 0 0 0 0 0 0 0 0 0 0 0 0 0 0 0 0 0 0 0 0 0 0 0 0 0 0 0 0 0
0.111377 2.24709e-14 2.24559e-14 1.4976e-17 0.000666463 0.00360235 0 0 0 0 0 0 0 0 0 0 0 0 0 0 0 0 0 0 0 0 0 0 0 0 0 0 0 0 0 0 0 0 0 0 0 0 0 0 0 0 0 0
0.117094 2.04757e-14 2.04627e-14 1.30212e-17 0.000635935 0.00336856 0 0 0 0 0 0 0 0 0 0 0 0 0 0 0 0 0 0 0 0 0 0 0 0 0 0 0 0 0 0 0 0 0 0 0 0 0 0 0 0 0 0
0.123105 1.83786e-14 1.83676e-14 1.0965e-17 0.000596618 0.00312282 0 0 0 0 0 0 0 0 0 0 0 0 0 0 0 0 0 0 0 0 0 0 0 0 0 0 0 0 0 0 0 0 0 0 0 0 0 0 0 0 0 0
0.129424 1.61747e-14 1.61659e-14 8.80349e-18 0.000544276 0.00286442 0 0 0 0 0 0 0 0 0 0 0 0 0 0 0 0 0 0 0 0 0 0 0 0 0 0 0 0 0 0 0 0 0 0 0 0 0 0 0 0 0 0
0.136067 1.38561e-14 1.38496e-14 6.53103e-18 0.000471346 0.00259274 0 0 0 0 0 0 0 0 0 0 0 0 0 0 0 0 0 0 0 0 0 0 0 0 0 0 0 0 0 0 0 0 0 0 0 0 0 0 0 0 0 0
0.143051 1.14198e-14 1.14156e-14 4.14193e-18 0.000362698 0.0023072 0 0 0 0 0 0 0 0 0 0 0 0 0 0 0 0 0 0 0 0 0 0 0 0 0 0 0 0 0 0 0 0 0 0 0 0 0 0 0 0 0 0
0.150394 9.29291e-15 9.29089e-15 2.01895e-18 0.000217257 0.00203575 0 0 0 0 0 0 0 0 0 0 0 0 0 0 0 0 0 0 0 0 0 0 0 0 0 0 0 0 0 0 0 0 0 0 0 0 0 0 0 0 0 0
0.158114 9.30457e-15 9.30277e-15 1.79607e-18 0.000193031 0.00189917 0 0 0 0 0 0 0 0 0 0 0 0 0 0 0 0 0 0 0 0 0 0 0 0 0 0 0 0 0 0 0 0 0 0 0 0 0 0 0 0 0 0
0.16623 9.31685e-15 9.31528e-15 1.56181e-18 0.000167633 0.00175558 0 0 0 0 0 0 0 0 0 0 0 0 0 0 0 0 0 0 0 0 0 0 0 0 0 0 0 0 0 0 0 0 0 0 0 0 0 0 0 0 0 0
0.174762 9.32978e-15 9.32847e-15 1.31555e-18 0.000141005 0.00160462 0 0 0 0 0 0 0 0 0 0 0 0 0 0 0 0 0 0 0 0 0 0 0 0 0 0 0 0 0 0 0 0 0 0 0 0 0 0 0 0 0 0
0.183733 9.34344e-15 9.34238e-15 1.05658e-18 0.000113083 0.00144591 0 0 0 0 0 0 0 0 0 0 0 0 0 0 0 0 0 0 0 0 0 0 0 0 0 0 0 0 0 0 0 0 0 0 0 0 0 0 0 0 0 0
0.193164 9.35766e-15 9.35687e-15 7.84346e-19 8.38187e-05 0.00127905 0 0 0 0 0 0 0 0 0 0 0 0 0 0 0 0 0 0 0 0 0 0 0 0 0 0 0 0 0 0 0 0 0 0 0 0 0 0 0 0 0 0
0.203079 9.48589e-15 9.48526e-15 6.34823e-19 6.69228e-05 0.0011507 0 0 0 0 0 0 0 0 0 0 0 0 0 0 0 0 0 0 0 0 0 0 0 0 0 0 0 0 0 0 0 0 0 0 0 0 0 0 0 0 0 0
0.213503 9.7489e-15 9.74827e-15 6.32336e-19 6.48622e-05 0.00106901 0 0 0 0 0 0 0 0 0 0 0 0 0 0 0 0 0 0 0 0 0 0 0 0 0 0 0 0 0 0 0 0 0 0 0 0 0 0 0 0 0 0
0.224463 1.00255e-14 1.00248e-14 6.29716e-19 6.28117e-05 0.000983125 0 0 0 0 0 0 0 0 0 0 0 0 0 0 0 0 0 0 0 0 0 0 0 0 0 0 0 0 0 0 0 0 0 0 0 0 0 0 0 0 0 0
0.235984 1.03162e-14 1.03156e-14 6.26968e-19 6.07751e-05 0.000892847 0 0 0 0 0 0 0 0 0 0 0 0 0 0 0 0 0 0 0 0 0 0 0 0 0 0 0 0 0 0 0 0 0 0 0 0 0 0 0 0 0 0
0.248097 1.05756e-14 1.0575e-14 6.2114e-19 5.87331e-05 0.000800521 0 0 0 0 0 0 0 0 0 0 0 0 0 0 0 0 0 0 0 0 0 0 0 0 0 0 0 0 0 0 0 0 0 0 0 0 0 0 0 0 0 0
0.260832 9.9777e-15 9.97714e-15 5.59434e-19 5.60684e-05 0.000752298 0 0 0 0 0 0 0 0 0 0 0 0 0 0 0 0 0 0 0 0 0 0 0 0 0 0 0 0 0 0 0 0 0 0 0 0 0 0 0 0 0 0
0.274221 9.34902e-15 9.34853e-15 4.9456e-19 5.28996e-05 0.000701596 0 0 0 0 0 0 0 0 0 0 0 0 0 0 0 0 0 0 0 0 0 0 0 0 0 0 0 0 0 0 0 0 0 0 0 0 0 0 0 0 0 0
0.288297 8.68804e-15 8.68762e-15 4.26363e-19 4.90746e-05 0.000648292 0 0 0 0 0 0 0 0 0 0 0 0 0 0 0 0 0 0 0 0 0 0 0 0 0 0 0 0 0 0 0 0 0 0 0 0 0 0 0 0 0 0
0.303095 8.00659e-15 8.00622e-15 3.64185e-19 4.54857e-05 0.00060284 0 0 0 0 0 0 0 0 0 0 0 0 0 0 0 0 0 0 0 0 0 0 0 0 0 0 0 0 0 0 0 0 0 0 0 0 0 0 0 0 0 0
0.318653 7.30808e-15 7.30777e-15 3.11668e-19 4.2647e-05 0.000569317 0 0 0 0 0 0 0 0 0 0 0 0 0 0 0 0 0 0 0 0 0 0 0 0 0 0 0 0 0 0 0 0 0 0 0 0 0 0 0 0 0 0
0.335009 6.57369e-15 6.57344e-15 2.56449e-19 3.90114e-05 0.000534078 0 0 0 0 0 0 0 0 0 0 0 0 0 0 0 0 0 0 0 0 0 0 0 0 0 0 0 0 0 0 0 0 0 0 0 0 0 0 0 0 0 0
0.352205 5.91785e-15 5.91764e-15 2.0825e-19 3.51901e-05 0.000501125 0 0 0 0 0 0 0 0 0 0 0 0 0 0 0 0 0 0 0 0 0 0 0 0 0 0 0 0 0 0 0 0 0 0 0 0 0 0 0 0 0 0
0.370284 5.43235e-15 5.43218e-15 1.74848e-19 3.21864e-05 0.000473653 0 0 0 0 0 0 0 0 0 0 0 0 0 0 0 0 0 0 0 0 0 0 0 0 0 0 0 0 0 0 0 0 0 0 0 0 0 0 0 0 0 0
0.389291 4.92187e-15 4.92173e-15 1.39731e-19 2.83898e-05 0.000444773 0 0 0 0 0 0 0 0 0 0 0 0 0 0 0 0 0 0 0 0 0 0 0 0 0 0 0 0 0 0 0 0 0 0 0 0 0 0 0 0 0 0
0.409273 4.52801e-15 4.5279e-15 1.15547e-19 2.55182e-05 0.000420353 0 0 0 0 0 0 0 0 0 0 0 0 0 0 0 0 0 0 0 0 0 0 0 0 0 0 0 0 0 0 0 0 0 0 0 0 0 0 0 0 0 0
0.430281 4.17269e-15 4.1726e-15 9.53567e-20 2.28526e-05 0.000397122 0 0 0 0 0 0 0 0 0 0 0 0 0 0 0 0 0 0 0 0 0 0 0 0 0 0 0 0 0 0 0 0 0 0 0 0 0 0 0 0 0 0
0.452368 3.83956e-15 3.83948e-15 7.75387e-20 2.01947e-05 0.000375109 0 0 0 0 0 0 0 0 0 0 0 0 0 0 0 0 0 0 0 0 0 0 0 0 0 0 0 0 0 0 0 0 0 0 0 0 0 0 0 0 0 0
0.475588 3.55995e-15 3.55988e-15 6.4757e-20 1.81904e-05 0.000356153 0 0 0 0 0 0 0 0 0 0 0 0 0 0 0 0 0 0 0 0 0 0 0 0 0 0 0 0 0 0 0 0 0 0 0 0 0 0 0 0 0 0
0.5 3.28571e-15 3.28566e-15 5.27615e-20 1.60579e-05 0.000337576 0 0 0 0 0 0 0 0 0 0 0 0 0 0 0 0 0 0 0 0 0 0 0 0 0 0 0 0 0 0 0 0 0 0 0 0 0 0 0 0 0 0
0.525665 3.05144e-15 3.0514e-15 4.40936e-20 1.44501e-05 0.000321724 0 0 0 0 0 0 0 0 0 0 0 0 0 0 0 0 0 0 0 0 0 0 0 0 0 0 0 0 0 0 0 0 0 0 0 0 0 0 0 0 0 0
0.552648 2.82504e-15 2.825e-15 3.62114e-20 1.2818e-05 0.0003124 0 0 0 0 0 0 0 0 0 0 0 0 0 0 0 0 0 0 0 0 0 0 0 0 0 0 0 0 0 0 0 0 0 0 0 0 0 0 0 0 0 0
0.581015 2.62132e-15 2.62129e-15 3.00308e-20 1.14564e-05 0.000315163 0 0 0 0 0 0 0 0 0 0 0 0 0 0 0 0 0 0 0 0 0 0 0 0 0 0 0 0 0 0 0 0 0 0 0 0 0 0 0 0 0 0
0.610839 2.43404e-15 2.43401e-15 2.49127e-20 1.02351e-05 0.000308856 0 0 0 0 0 0 0 0 0 0 0 0 0 0 0 0 0 0 0 0 0 0 0 0 0 0 0 0 0 0 0 0 0 0 0 0 0 0 0 0 0 0
0.642193 2.25562e-15 2.2556e-15 2.04603e-20 9.0708e-06 0.000297172 0 0 0 0 0 0 0 0 0 0 0 0 0 0 0 0 0 0 0 0 0 0 0 0 0 0 0 0 0 0 0 0 0 0 0 0 0 0 0 0 0 0
0.675157 2.09715e-15 2.09713e-15 1.70465e-20 8.12843e-06 0.00028697 0 0 0 0 0 0 0 0 0 0 0 0 0 0 0 0 0 0 0 0 0 0 0 0 0 0 0 0 0 0 0 0 0 0 0 0 0 0 0 0 0 0
0.709813 1.94801e-15 1.948e-15 1.41155e-20 7.24612e-06 0.000277479 0 0 0 0 0 0 0 0 0 0 0 0 0 0 0 0 0 0 0 1.4013e-45 0 1.4013e-45 0 1.4013e-45 0 1.4013e-45 0 1.4013e-45 0 1.4013e-45 0 2.8026e-45 0 2.8026e-45 0 2.8026e-45 0 4.2039e-45 0 4.2039e-45 0 4.2039e-45
0.746248 1.80793e-15 1.80792e-15 1.16271e-20 6.43119e-06 0.000268683 0 0 0 0 0 0 0 1.4013e-45 0 4.2039e-45 0 5.60519e-45 0 9.80909e-45 0 1.4013e-44 0 1.96182e-44 0 2.38221e-44 0 3.08286e-44 0 3.78351e-44 0 4.76441e-44 0 5.46506e-44 0 6.44597e-44 0 7.42688e-44 0 8.68805e-44 0 9.80909e-44 0 1.09301e-43 0 1.21913e-43 0 1.38729e-43
0.784553 1.67963e-15 1.67962e-15 9.61753e-21 5.72597e-06 0.000260746 0 0 0 1.4013e-45 0 1.54143e-44 0 4.62428e-44 0 9.94922e-44 0 1.66755e-43 0 2.56438e-43 0 3.69943e-43 0 5.08671e-43 0 6.43196e-43 0 8.28167e-43 0 1.00333e-42 0 1.23454e-42 0 1.44894e-42 0 1.68156e-42 0 1.93099e-42 0 2.25749e-42 0 2.55036e-42 0 2.86145e-42 0 3.19076e-42 0 3.60694e-42
0.824824 1.56241e-15 1.5624e-15 7.99055e-21 5.11425e-06 0.000253617 0 9.80909e-45 0 4.76441e-44 0 3.85357e-43 0 1.13225e-42 0 2.33456e-42 0 3.8872e-42 0 5.91628e-42 0 8.46384e-42 0 1.15173e-41 0 1.45707e-41 0 1.86331e-41 0 2.25469e-41 0 2.75902e-41 0 3.23882e-41 0 3.75758e-41 0 4.3153e-41 0 5.02099e-41 0 5.6712e-41 0 6.36133e-41 0 7.09183e-41 0 7.9874e-41
0.867162 1.4528e-15 1.4528e-15 6.62128e-21 4.55759e-06 0.000247054 0 3.64338e-43 0 1.38168e-42 0 8.70206e-42 0 2.39076e-41 0 4.76806e-41 0 7.81826e-41 0 1.17576e-40 0 1.66509e-40 0 2.24695e-40 0 2.83867e-40 0 3.60564e-40 0 4.35894e-40 0 5.30516e-40 0 6.22383e-40 0 7.2165e-40 0 8.28336e-40 0 9.59748e-40 0 1.08359e-39 0 1.21504e-39 0 1.35411e-39 0 1.52025e-39
0.911674 1.35091e-15 1.35091e-15 5.47984e-21 4.05639e-06 0.000241021 0 1.24561e-41 0 3.73754e-41 0 1.78528e-40 0 4.50223e-40 0 8.6116e-40 0 1.3835e-39 0 2.04899e-39 0 2.86638e-39 0 3.83067e-39 0 4.82575e-39 0 6.08434e-39 0 7.34183e-39 0 8.88484e-39 0 1.04097e-38 0 1.20563e-38 0 1.38249e-38 0 1.59512e-38 0 1.79955e-38 0 2.01645e-38 0 2.24584e-38 0 2.51374e-38
0.95847 1.25635e-15 1.25635e-15 4.53367e-21 3.6086e-06 0.000235518 0 3.63149e-40 0 9.30574e-40 0 3.42457e-39 0 7.7914e-39 0 1.41252e-38 0 2.20634e-38 0 3.20089e-38 0 4.40637e-38 0 5.81557e-38 0 7.28751e-38 0 9.10529e-38 0 1.09485e-37 0 1.3161e-37 0 1.53811e-37 0 1.77754e-37 0 2.03443e-37 0 2.33657e-37 0 2.63213e-37 0 2.94547e-37 0 3.27662e-37 0 3.65573e-37
1.00767 1.16864e-15 1.16864e-15 3.75093e-21 3.20964e-06 0.000230497 0 9.02302e-39 0 2.09407e-38 0 6.23557e-38 0 1.27241e-37 0 2.16469e-37 0 3.25947e-37 0 4.60123e-37 0 6.20032e-37 0 8.04802e-37 0 9.99523e-37 0 1.23419e-36 0 1.47501e-36 0 1.75792e-36 0 2.04537e-36 0 2.35469e-36 0 2.68589e-36 0 3.06758e-36 0 3.44645e-36 0 3.84756e-36 0 4.27095e-36 0 4.74705e-36
1.05939 1.08729e-15 1.08728e-15 3.10327e-21 2.85414e-06 0.000225923 0 1.91463e-37 0 4.18679e-37 0 1.07229e-36 0 1.98483e-36 0 3.16328e-36 0 4.56731e-36 0 6.23993e-36 0 8.19033e-36 0 1.04096e-35 0 1.27592e-35 0 1.55181e-35 0 1.83735e-35 0 2.16549e-35 0 2.50207e-35 0 2.86284e-35 0 3.24785e-35 0 3.68291e-35 0 4.11989e-35 0 4.58143e-35 0 5.06757e-35 0 5.60529e-35
1.11377 1.01174e-15 1.01173e-15 2.56663e-21 2.53686e-06 0.000221743 0 3.48459e-36 0 7.35724e-36 0 1.70945e-35 0 2.93655e-35 0 4.42192e-35 0 6.13057e-35 0 8.09917e-35 0 1.03349e-34 0 1.283e-34 0 1.54707e-34 0 1.8486e-34 0 2.16203e-34 0 2.51405e-34 0 2.87719e-34 0 3.26414e-34 0 3.67492e-34 0 4.13017e-34 0 4.59142e-34 0 5.07678e-34 0 5.58628e-34 0 6.14106e-34
1.17094 9.41564e-16 9.41562e-16 2.12215e-21 2.25386e-06 0.000217926 0 5.46973e-35 0 1.13125e-34 0 2.47703e-34 0 4.04434e-34 0 5.83629e-34 0 7.82593e-34 0 1.0041e-33 0 1.24864e-33 0 1.51566e-33 0 1.79681e-33 0 2.10881e-33 0 2.4331e-33 0 2.78887e-33 0 3.15654e-33 0 3.54515e-33 0 3.95473e-33 0 4.39999e-33 0 4.85351e-33 0 5.32819e-33 0 5.82407e-33 0 6.35589e-33
1.23105 8.764e-16 8.76398e-16 1.75436e-21 2.00178e-06 0.000214445 0 7.45051e-34 0 1.52212e-33 0 3.2176e-33 0 5.08743e-33 0 7.13343e-33 0 9.33706e-33 0 1.1717e-32 0 1.42763e-32 0 1.70117e-32 0 1.98678e-32 0 2.29544e-32 0 2.61505e-32 0 2.95796e-32 0 3.3117e-32 0 3.68204e-32 0 4.06898e-32 0 4.48197e-32 0 4.90341e-32 0 5.3416e-32 0 5.79655e-32 0 6.27747e-32
1.29424 8.16045e-16 8.16044e-16 1.45147e-21 1.77866e-06 0.000211274 0 8.86377e-33 0 1.79748e-32 0 3.72155e-32 0 5.77e-32 0 7.94394e-32 0 1.02318e-31 0 1.26449e-31 0 1.51849e-31 0 1.78503e-31 0 2.06079e-31 0 2.35225e-31 0 2.65231e-31 0 2.96813e-31 0 3.29256e-31 0 3.62891e-31 0 3.97719e-31 0 4.3429e-31 0 4.71577e-31 0 5.10065e-31 0 5.49755e-31 0 5.91167e-31
1.36067 7.59951e-16 7.5995e-16 1.20066e-21 1.57991e-06 0.000208376 0 9.26554e-32 0 1.87042e-31 0 3.82495e-31 0 5.86048e-31 0 7.97767e-31 0 1.01699e-30 0 1.24435e-30 0 1.47991e-30 0 1.72366e-30 0 1.97373e-30 0 2.23363e-30 0 2.49956e-30 0 2.77528e-30 0 3.0571e-30 0 3.34672e-30 0 3.64416e-30 0 3.95237e-30 0 4.26582e-30 0 4.58713e-30 0 4.91629e-30 0 5.25599e-30
1.43051 7.07787e-16 7.07786e-16 9.92735e-22 1.40259e-06 0.000205726 0 8.56176e-31 0 1.72341e-30 0 3.49806e-30 0 5.32113e-30 0 7.19309e-30 0 9.11044e-30 0 1.10763e-29 0 1.30909e-29 0 1.51548e-29 0 1.72579e-29 0 1.9418e-29 0 2.16161e-29 0 2.38707e-29 0 2.6164e-29 0 2.85042e-29 0 3.08914e-29 0 3.33405e-29 0 3.58234e-29 0 3.83535e-29 0 4.09307e-29 0 4.35679e-29
1.50394 6.59309e-16 6.59308e-16 8.20798e-22 1.24494e-06 0.000203313 0 7.03517e-30 0 1.41353e-29 0 2.85585e-29 0 4.32492e-29 0 5.82105e-29 0 7.3425e-29 0 8.89072e-29 0 1.04657e-28 0 1.20681e-28 0 1.36928e-28 0 1.53482e-28 0 1.70255e-28 0 1.8733e-28 0 2.04629e-28 0 2.22188e-28 0 2.40008e-28 0 2.5816e-28 0 2.76508e-28 0 2.95118e-28 0 3.13988e-28 0 3.33177e-28
1.58114 6.14246e-16 6.14246e-16 6.7852e-22 1.10464e-06 0.000201106 0 5.16948e-29 0 1.03742e-28 0 2.08985e-28 0 3.15601e-28 0 4.23609e-28 0 5.32925e-28 0 6.43615e-28 0 7.55668e-28 0 8.69143e-28 0 9.83782e-28 0 1.09997e-27 0 1.21731e-27 0 1.33616e-27 0 1.45619e-27 0 1.57757e-27 0 1.70029e-27 0 1.82468e-27 0 1.95011e-27 0 2.07687e-27 0 2.20498e-27 0 2.33467e-27
1.6623 5.72263e-16 5.72262e-16 5.60429e-22 9.79321e-07 0.000199092 0 3.41469e-28 0 6.84712e-28 0 1.37672e-27 0 2.07529e-27 0 2.78055e-27 0 3.49211e-27 0 4.21023e-27 0 4.93483e-27 0 5.66632e-27 0 6.40342e-27 0 7.14783e-27 0 7.89785e-27 0 8.65494e-27 0 9.41787e-27 0 1.01872e-26 0 1.0963e-26 0 1.17466e-26 0 1.25353e-26 0 1.33304e-26 0 1.41319e-26 0 1.49408e-26
1.74763 5.33348e-16 5.33347e-16 4.63414e-22 8.68879e-07 0.000197256 0 2.03884e-27 0 4.08601e-27 0 8.20519e-27 0 1.23538e-26 0 1.65325e-26 0 2.07394e-26 0 2.49758e-26 0 2.9241e-26 0 3.35373e-26 0 3.78589e-26 0 4.2213e-26 0 4.65923e-26 0 5.10029e-26 0 5.54399e-26 0 5.99057e-26 0 6.44001e-26 0 6.89301e-26 0 7.34822e-26 0 7.8063e-26 0 8.26723e-26 0 8.73147e-26
1.83733 4.97123e-16 4.97122e-16 3.82951e-22 7.70335e-07 0.000195578 0 1.10547e-26 0 2.21458e-26 0 4.44331e-26 0 6.68441e-26 0 8.93818e-26 0 1.12039e-25 0 1.34819e-25 0 1.5772e-25 0 1.80753e-25 0 2.03892e-25 0 2.27166e-25 0 2.50547e-25 0 2.74058e-25 0 2.9768e-25 0 3.21423e-25 0 3.45286e-25 0 3.693e-25 0 3.93404e-25 0 4.17629e-25 0 4.41973e-25 0 4.66455e-25
1.93164 4.63372e-16 4.63372e-16 3.16272e-22 6.82543e-07 0.00019404 0 5.4681e-26 0 1.09511e-25 0 2.1959e-25 0 3.30158e-25 0 4.41227e-25 0 5.52767e-25 0 6.64795e-25 0 7.77294e-25 0 8.90322e-25 0 1.00376e-24 0 1.11774e-24 0 1.23213e-24 0 1.34704e-24 0 1.46238e-24 0 1.5782e-24 0 1.6945e-24 0 1.81139e-24 0 1.92863e-24 0 2.04634e-24 0 2.16452e-24 0 2.28325e-24
2.03079 4.32e-16 4.32e-16 2.61262e-22 6.04774e-07 0.000192638 0 2.47888e-25 0 4.9635e-25 0 9.94839e-25 0 1.49514e-24 0 1.99732e-24 0 2.50124e-24 0 3.00698e-24 0 3.51446e-24 0 4.02391e-24 0 4.53489e-24 0 5.04786e-24 0 5.56237e-24 0 6.07876e-24 0 6.59678e-24 0 7.11656e-24 0 7.63809e-24 0 8.16186e-24 0 8.6869e-24 0 9.21367e-24 0 9.74218e-24 0 1.02727e-23
2.13503 4.02826e-16 4.02826e-16 2.15852e-22 5.35845e-07 0.000191352 0 1.03425e-24 0 2.07057e-24 0 4.14873e-24 0 6.23324e-24 0 8.32431e-24 0 1.04215e-23 0 1.2525e-23 0 1.46346e-23 0 1.67512e-23 0 1.8873e-23 0 2.10018e-23 0 2.31359e-23 0 2.52766e-23 0 2.7423e-23 0 2.95755e-23 0 3.17341e-23 0 3.39006e-23 0 3.60714e-23 0 3.82483e-23 0 4.04311e-23 0 4.26212e-23
2.24463 3.75684e-16 3.75684e-16 1.7833e-22 4.74682e-07 0.00019019 0 3.9873e-24 0 7.98161e-24 0 1.59885e-23 0 2.40165e-23 0 3.20661e-23 0 4.01359e-23 0 4.82265e-23 0 5.6337e-23 0 6.44707e-23 0 7.26214e-23 0 8.07953e-23 0 8.89865e-23 0 9.71995e-23 0 1.05431e-22 0 1.13682e-22 0 1.21954e-22 0 1.30252e-22 0 1.38563e-22 0 1.46895e-22 0 1.55246e-22 0 1.63621e-22
2.35984 3.50394e-16 3.50394e-16 1.4725e-22 4.20241e-07 0.000189122 0 1.4257e-23 0 2.85363e-23 0 5.71523e-23 0 8.58336e-23 0 1.14582e-22 0 1.43394e-22 0 1.7227e-22 0 2.01208e-22 0 2.30219e-22 0 2.59281e-22 0 2.88417e-22 0 3.17605e-22 0 3.4686e-22 0 3.76173e-22 0 4.05548e-22 0 4.34985e-22 0 4.64505e-22 0 4.94065e-22 0 5.23687e-22 0 5.5337e-22 0 5.83128e-22
2.48097 3.26841e-16 3.26841e-16 1.21542e-22 3.7187e-07 0.000188148 0 4.74529e-23 0 9.49726e-23 0 1.90182e-22 0 2.85583e-22 0 3.81183e-22 0 4.76966e-22 0 5.7294e-22 0 6.69094e-22 0 7.65462e-22 0 8.6198e-22 0 9.58714e-22 0 1.0556e-21 0 1.15269e-21 0 1.24994e-21 0 1.34737e-21 0 1.44498e-21 0 1.54284e-21 0 1.64082e-21 0 1.73897e-21 0 1.8373e-21 0 1.93586e-21
2.60832 3.04948e-16 3.04948e-16 1.00393e-22 3.29214e-07 0.000187255 0 1.47551e-22 0 2.9529e-22 0 5.91243e-22 0 8.8773e-22 0 1.18477e-21 0 1.48232e-21 0 1.78039e-21 0 2.07897e-21 0 2.37814e-21 0 2.67772e-21 0 2.9779e-21 0 3.2785e-21 0 3.57966e-21 0 3.88127e-21 0 4.18338e-21 0 4.48599e-21 0 4.78929e-21 0 5.09291e-21 0 5.39701e-21 0 5.70161e-21 0 6.00683e-21
2.74221 2.84534e-16 2.84534e-16 8.28594e-23 2.91211e-07 0.000186439 0 4.2993e-22 0 8.60362e-22 0 1.72248e-21 0 2.586e-21 0 3.45097e-21 0 4.31729e-21 0 5.18499e-21 0 6.05399e-21 0 6.92455e-21 0 7.7962e-21 0 8.66943e-21 0 9.54374e-21 0 1.04195e-20 0 1.12965e-20 0 1.21747e-20 0 1.30543e-20 0 1.39357e-20 0 1.48179e-20 0 1.57014e-20 0 1.65861e-20 0 1.74726e-20
2.88297 2.65515e-16 2.65515e-16 6.83598e-23 2.57461e-07 0.000185692 0 1.17764e-21 0 2.35655e-21 0 4.71751e-21 0 7.08197e-21 0 9.45004e-21 0 1.18214e-20 0 1.41963e-20 0 1.65744e-20 0 1.89564e-20 0 2.1341e-20 0 2.37297e-20 0 2.61209e-20 0 2.85159e-20 0 3.09137e-20 0 3.33148e-20 0 3.57191e-20 0 3.8128e-20 0 4.05389e-20 0 4.29529e-20 0 4.53701e-20 0 4.77915e-20
3.03095 2.47839e-16 2.47839e-16 5.6402e-23 2.27575e-07 0.000185014 0 3.04198e-21 0 6.08698e-21 0 1.21845e-20 0 1.82902e-20 0 2.44045e-20 0 3.05267e-20 0 3.6657e-20 0 4.2795e-20 0 4.89422e-20 0 5.50957e-20 0 6.12585e-20 0 6.74276e-20 0 7.36054e-20 0 7.97899e-20 0 8.59821e-20 0 9.2182e-20 0 9.83927e-20 0 1.04608e-19 0 1.10831e-19 0 1.17061e-19 0 1.23301e-19
3.18653 2.31467e-16 2.31467e-16 4.65076e-23 2.00925e-07 0.000184387 0 7.43303e-21 0 1.48729e-20 0 2.97696e-20 0 4.4685e-20 0 5.96195e-20 0 7.45718e-20 0 8.95425e-20 0 1.0453e-19 0 1.19539e-19 0 1.34561e-19 0 1.49605e-19 0 1.64663e-19 0 1.7974e-19 0 1.94832e-19 0 2.09942e-19 0 2.25069e-19 0 2.4022e-19 0 2.55381e-19 0 2.70559e-19 0 2.85754e-19 0 3.00971e-19
