# 1.89175e-07 3 16 : grain size, compostion index, size index
# This grain was stochastically heated: Yes
# Heating and cooling timescale: 57645.8 24.915
# Ratio of heating to cooling to determine stochastic cutoff: 100
# Equilibrium emission is recorded even for those grains in the stochastic regime.
# Emission spectrum was computed for: 
# Type: IRSF
# Scales:  0.5 1 2 5 10
# Temperature: -1
# Wavelength  CExt  CAbs  CSca  Albedo G EqEm1 StEm1 EqEm2 StEm2 EqEm3 StEm3 EqEm4 StEm4 EqEm5 StEm5
0.05 2.82927e-14 2.82191e-14 7.35815e-17 0.00260073 0.00840892 0 0 0 0 0 0 0 0 0 0
0.0525665 2.92786e-14 2.92083e-14 7.02947e-17 0.00240089 0.00755477 0 0 0 0 0 0 0 0 0 0
0.0552647 3.07183e-14 3.06485e-14 6.97849e-17 0.00227177 0.00675908 0 0 0 0 0 0 0 0 0 0
0.0581015 3.36692e-14 3.3594e-14 7.51906e-17 0.00223321 0.00600693 0 0 0 0 0 0 0 0 0 0
0.0610839 3.81798e-14 3.80951e-14 8.46717e-17 0.00221771 0.00531914 0 0 0 0 0 0 0 0 0 0
0.0642193 4.25938e-14 4.25018e-14 9.20366e-17 0.0021608 0.00471879 0 0 0 0 0 0 0 0 0 0
0.0675157 4.53957e-14 4.53019e-14 9.38124e-17 0.00206655 0.00421101 0 0 0 0 0 0 0 0 0 0
0.0709813 4.57437e-14 4.56544e-14 8.92627e-17 0.00195137 0.00379781 0 0 0 0 0 0 0 0 0 0
0.0746248 4.3506e-14 4.34266e-14 7.94421e-17 0.001826 0.00348132 0 0 0 0 0 0 0 0 0 0
0.0784553 3.90697e-14 3.90037e-14 6.59931e-17 0.00168911 0.00326626 0 0 0 0 0 0 0 0 0 0
0.0824824 3.31829e-14 3.31323e-14 5.06523e-17 0.00152646 0.00314913 0 0 0 0 0 0 0 0 0 0
0.0867162 3.03835e-14 3.03436e-14 3.99383e-17 0.00131447 0.00290452 0 0 0 0 0 0 0 0 0 0
0.0911674 2.86883e-14 2.8653e-14 3.53113e-17 0.00123086 0.00265572 0 0 0 0 0 0 0 0 0 0
0.095847 2.48304e-14 2.48008e-14 2.96316e-17 0.00119336 0.00255211 0 0 0 0 0 0 0 0 0 0
0.100767 2.09973e-14 2.09734e-14 2.39515e-17 0.00114069 0.00248204 0 0 0 0 0 0 0 0 0 0
0.105939 1.70367e-14 1.70183e-14 1.84357e-17 0.00108212 0.00244977 0 0 0 0 0 0 0 0 0 0
0.111377 1.43094e-14 1.42953e-14 1.41327e-17 0.000987647 0.00234212 0 0 0 0 0 0 0 0 0 0
0.117094 1.22193e-14 1.22082e-14 1.10839e-17 0.00090708 0.0022109 0 0 0 0 0 0 0 0 0 0
0.123105 1.04963e-14 1.04875e-14 8.81113e-18 0.000839448 0.00207439 0 0 0 0 0 0 0 0 0 0
0.129424 9.01457e-15 9.00749e-15 7.08477e-18 0.000785924 0.00194156 0 0 0 0 0 0 0 0 0 0
0.136067 7.69021e-15 7.68444e-15 5.77493e-18 0.000750945 0.00181973 0 0 0 0 0 0 0 0 0 0
0.143051 6.33213e-15 6.32733e-15 4.801e-18 0.000758196 0.00172588 0 0 0 0 0 0 0 0 0 0
0.150394 4.50565e-15 4.50181e-15 3.84129e-18 0.00085255 0.00164331 0 0 0 0 0 0 0 0 0 0
0.158114 2.96884e-15 2.96591e-15 2.92526e-18 0.000985321 0.00150304 0 0 0 0 0 0 0 0 0 0
0.16623 1.94064e-15 1.93845e-15 2.19691e-18 0.00113205 0.00133718 0 0 0 0 0 0 0 0 0 0
0.174762 1.31794e-15 1.31629e-15 1.65576e-18 0.00125632 0.0011803 0 0 0 0 0 0 0 0 0 0
0.183733 8.813e-16 8.80048e-16 1.25236e-18 0.00142103 0.0010414 0 0 0 0 0 0 0 0 0 0
0.193164 6.00513e-16 5.99558e-16 9.54892e-19 0.00159013 0.000921197 0 0 0 0 0 0 0 0 0 0
0.203079 4.1768e-16 4.16947e-16 7.33574e-19 0.00175631 0.000817331 0 0 0 0 0 0 0 0 0 0
0.213503 3.08682e-16 3.08116e-16 5.65983e-19 0.00183355 0.000726674 0 0 0 0 0 0 0 0 0 0
0.224463 2.59893e-16 2.59453e-16 4.3996e-19 0.00169285 0.000647918 0 0 0 0 0 0 0 0 0 0
0.235984 2.46504e-16 2.46158e-16 3.45625e-19 0.00140211 0.00057967 0 0 0 0 0 0 0 0 0 0
0.248097 2.44652e-16 2.44378e-16 2.74014e-19 0.00112002 0.000520051 0 0 0 0 0 0 0 0 0 0
0.260832 2.38257e-16 2.38039e-16 2.18431e-19 0.000916786 0.000467332 0 0 0 0 0 0 0 0 0 0
0.274221 2.30308e-16 2.30134e-16 1.74779e-19 0.00075889 0.000420418 0 0 0 0 0 0 0 0 0 0
0.288297 2.2183e-16 2.2169e-16 1.40431e-19 0.000633058 0.000378648 0 0 0 0 0 0 0 0 0 0
0.303095 2.13357e-16 2.13244e-16 1.13132e-19 0.00053025 0.000341267 0 0 0 0 0 0 0 0 0 0
0.318653 2.04836e-16 2.04744e-16 9.12981e-20 0.000445714 0.000307716 0 0 0 0 0 0 0 0 0 0
0.335009 1.96393e-16 1.9632e-16 7.38469e-20 0.000376015 0.000277626 0 0 0 0 0 0 0 0 0 0
0.352205 1.8816e-16 1.881e-16 5.98274e-20 0.00031796 0.000250583 0 0 0 0 0 0 0 0 0 0
0.370284 1.80098e-16 1.80049e-16 4.85166e-20 0.00026939 0.000226227 0 0 0 0 0 0 0 0 0 0
0.389291 1.72278e-16 1.72238e-16 3.93974e-20 0.000228685 0.0002043 0 0 0 0 0 0 0 0 0 0
0.409273 1.64622e-16 1.6459e-16 3.20475e-20 0.000194673 0.000184579 0 0 0 0 0 0 0 0 0 0
0.430281 1.57184e-16 1.57158e-16 2.60757e-20 0.000165893 0.000166772 0 0 0 0 0 0 0 0 0 0
0.452368 1.50014e-16 1.49992e-16 2.12427e-20 0.000141605 0.000150724 0 0 0 0 0 0 0 0 0 0
0.475588 1.43108e-16 1.4309e-16 1.73119e-20 0.000120972 0.00013623 0 0 0 0 0 0 0 0 0 0
0.5 1.36517e-16 1.36503e-16 1.4124e-20 0.00010346 0.000123164 0 0 0 0 0 0 0 0 0 0
0.525665 1.30223e-16 1.30211e-16 1.15243e-20 8.84969e-05 0.000111353 0 0 0 0 0 0 0 0 0 0
0.552647 1.24224e-16 1.24215e-16 9.40067e-21 7.5675e-05 0.000100667 0 0 0 0 0 0 0 0 0 0
0.581015 1.18431e-16 1.18423e-16 7.68298e-21 6.48732e-05 9.10459e-05 0 0 0 0 0 0 0 0 0 0
0.610839 1.12923e-16 1.12917e-16 6.27996e-21 5.56125e-05 8.23483e-05 0 0 0 0 0 0 0 0 0 0
0.642193 1.07683e-16 1.07678e-16 5.1313e-21 4.76518e-05 7.44742e-05 0 0 0 0 0 0 0 0 0 0
0.675157 1.02703e-16 1.02699e-16 4.19357e-21 4.0832e-05 6.73544e-05 0 0 0 0 0 0 0 0 0 0
0.709813 9.7979e-17 9.79755e-17 3.43057e-21 3.50133e-05 6.09312e-05 0 0 0 0 0 0 0 0 0 0
0.746248 9.34917e-17 9.34889e-17 2.80614e-21 3.00148e-05 5.51188e-05 0 0 0 0 0 0 0 0 0 0
0.784553 8.92218e-17 8.92195e-17 2.29465e-21 2.57185e-05 4.98564e-05 0 0 0 0 0 0 0 0 0 0
0.824824 8.5117e-17 8.51151e-17 1.87712e-21 2.20534e-05 4.50999e-05 0 0 0 0 0 0 0 0 0 0
0.867162 8.11903e-17 8.11887e-17 1.53685e-21 1.8929e-05 4.08065e-05 0 0 0 0 0 0 0 0 0 0
0.911674 7.74429e-17 7.74416e-17 1.25797e-21 1.62439e-05 3.69191e-05 0 0 0 0 0 0 0 0 0 0
0.95847 7.38474e-17 7.38464e-17 1.02959e-21 1.39421e-05 3.34005e-05 0 0 0 0 0 0 0 0 0 0
1.00767 7.04335e-17 7.04326e-17 8.42874e-22 1.19669e-05 3.02195e-05 0 0 0 0 0 0 0 0 0 0
1.05939 6.72072e-17 6.72065e-17 6.90083e-22 1.0268e-05 2.73424e-05 0 0 0 0 0 0 0 0 0 0
1.11377 6.41369e-17 6.41363e-17 5.64833e-22 8.80669e-06 2.47371e-05 0 0 0 0 0 0 0 0 0 0
1.17094 6.12022e-17 6.12018e-17 4.62128e-22 7.55084e-06 2.23778e-05 0 0 0 0 0 0 0 0 0 0
1.23105 5.84096e-17 5.84093e-17 3.78287e-22 6.47645e-06 2.02464e-05 0 0 0 0 0 0 0 1.4013e-45 0 4.2039e-45
1.29424 5.58906e-17 5.58903e-17 3.0954e-22 5.53832e-06 1.83164e-05 0 0 0 1.4013e-45 0 4.2039e-45 0 2.66247e-44 0 1.079e-43
1.36067 5.35258e-17 5.35256e-17 2.53385e-22 4.73388e-06 1.65713e-05 0 4.2039e-45 0 2.10195e-44 0 9.24857e-44 0 5.94151e-43 0 2.40463e-42
1.43051 5.12745e-17 5.12743e-17 2.07261e-22 4.04219e-06 1.499e-05 0 8.54792e-44 0 4.06377e-43 0 1.77264e-42 0 1.13603e-41 0 4.58813e-41
1.50394 4.91314e-17 4.91313e-17 1.69654e-22 3.45307e-06 1.35622e-05 0 1.5134e-42 0 6.89018e-42 0 2.95296e-41 0 1.87855e-40 0 7.57356e-40
1.58114 4.7079e-17 4.70788e-17 1.3883e-22 2.94889e-06 1.22694e-05 0 2.36175e-41 0 1.0277e-40 0 4.30371e-40 0 2.71058e-39 0 1.08971e-38
1.6623 4.51114e-17 4.51113e-17 1.13512e-22 2.51626e-06 1.10975e-05 0 3.35866e-40 0 1.37079e-39 0 5.5565e-39 0 3.44384e-38 0 1.37756e-37
1.74762 4.32582e-17 4.32581e-17 9.2833e-23 2.14602e-06 1.00383e-05 0 4.49585e-39 0 1.67552e-38 0 6.46446e-38 0 3.89716e-37 0 1.54446e-36
1.83733 4.15656e-17 4.15655e-17 7.59041e-23 1.82613e-06 9.07986e-06 0 5.82568e-38 0 1.93175e-37 0 6.92866e-37 0 3.98546e-36 0 1.553e-35
1.93164 3.99836e-17 3.99836e-17 6.20357e-23 1.55153e-06 8.21193e-06 0 7.36512e-37 0 2.14975e-36 0 6.99937e-36 0 3.74054e-35 0 1.41594e-34
2.03079 3.84896e-17 3.84895e-17 5.06935e-23 1.31707e-06 7.42661e-06 0 8.96705e-36 0 2.3305e-35 0 6.80034e-35 0 3.28148e-34 0 1.18671e-33
2.13503 3.70738e-17 3.70738e-17 4.14266e-23 1.11741e-06 6.71671e-06 0 1.02701e-34 0 2.43953e-34 0 6.41268e-34 0 2.73909e-33 0 9.28628e-33
2.24463 3.57548e-17 3.57548e-17 3.38321e-23 9.46223e-07 6.07373e-06 0 1.08397e-33 0 2.41982e-33 0 5.84051e-33 0 2.20248e-32 0 6.8916e-32
2.35984 3.44947e-17 3.44947e-17 2.76159e-23 8.00585e-07 5.49161e-06 0 1.03917e-32 0 2.22888e-32 0 5.05519e-32 0 1.70722e-31 0 4.89791e-31
2.48097 3.33032e-17 3.33032e-17 2.25203e-23 6.76219e-07 4.9642e-06 0 8.99425e-32 0 1.88165e-31 0 4.0914e-31 0 1.26633e-30 0 3.34579e-30
2.60832 3.22012e-17 3.22012e-17 1.83704e-23 5.70487e-07 4.48799e-06 0 7.02294e-31 0 1.44677e-30 0 3.06033e-30 0 8.8872e-30 0 2.18936e-29
2.74221 3.11549e-17 3.11549e-17 1.49777e-23 4.80751e-07 4.05693e-06 0 4.9494e-30 0 1.00987e-29 0 2.09856e-29 0 5.8294e-29 0 1.35951e-28
2.88297 3.01837e-17 3.01837e-17 1.21909e-23 4.03889e-07 3.6658e-06 0 3.15969e-29 0 6.40803e-29 0 1.31642e-28 0 3.54771e-28 0 7.94453e-28
3.03095 2.92658e-17 2.92657e-17 9.92093e-24 3.38994e-07 3.31236e-06 0 1.83287e-28 0 3.70264e-28 0 7.54953e-28 0 1.99327e-27 0 4.33517e-27
3.18653 2.84644e-17 2.84644e-17 8.06966e-24 2.835e-07 2.99278e-06 0 9.722e-28 0 1.95891e-27 0 3.97424e-27 0 1.03474e-26 0 2.20432e-26
3.35009 2.77066e-17 2.77066e-17 6.5552e-24 2.36593e-07 2.70315e-06 0 4.72364e-27 0 9.50123e-27 0 1.92108e-26 0 4.9538e-26 0 1.03993e-25
3.52205 2.68841e-17 2.68841e-17 5.31552e-24 1.9772e-07 2.44065e-06 0 2.10251e-26 0 4.22392e-26 0 8.52036e-26 0 2.18233e-25 0 4.53346e-25
3.70284 2.60739e-17 2.60739e-17 4.30773e-24 1.65212e-07 2.20359e-06 0 8.6301e-26 0 1.7323e-25 0 3.4885e-25 0 8.89216e-25 0 1.83326e-24
3.89291 2.52908e-17 2.52908e-17 3.48403e-24 1.37759e-07 1.98878e-06 0 3.28102e-25 0 6.58181e-25 0 1.32384e-24 0 3.36262e-24 0 6.89411e-24
4.09273 2.45489e-17 2.45489e-17 2.8102e-24 1.14473e-07 1.79387e-06 0 1.16029e-24 0 2.3265e-24 0 4.6752e-24 0 1.18443e-23 0 2.41828e-23
4.30281 2.37721e-17 2.37721e-17 2.26027e-24 9.50808e-08 1.6172e-06 0 3.81816e-24 0 7.65309e-24 0 1.53687e-23 0 3.88586e-23 0 7.90883e-23
4.52368 2.3057e-17 2.3057e-17 1.81312e-24 7.86366e-08 1.45722e-06 0 1.17774e-23 0 2.36e-23 0 4.73676e-23 0 1.19582e-22 0 2.42789e-22
4.75588 2.24365e-17 2.24365e-17 1.4484e-24 6.45558e-08 1.31213e-06 0 3.42171e-23 0 6.85507e-23 0 1.3753e-22 0 3.46783e-22 0 7.02724e-22
5 2.19707e-17 2.19707e-17 1.14988e-24 5.2337e-08 1.18031e-06 0 9.42034e-23 0 1.88694e-22 0 3.78441e-22 0 9.53312e-22 0 1.92881e-21
5.25665 2.17176e-17 2.17176e-17 9.0703e-25 4.17648e-08 1.06049e-06 0 2.47233e-22 0 4.95149e-22 0 9.92782e-22 0 2.49888e-21 0 5.04956e-21
5.52648 2.16475e-17 2.16475e-17 7.10707e-25 3.28309e-08 9.5187e-07 0 6.19575e-22 0 1.2407e-21 0 2.48705e-21 0 6.25589e-21 0 1.26283e-20
5.81015 2.18682e-17 2.18682e-17 5.50227e-25 2.5161e-08 8.53147e-07 0 1.49397e-21 0 2.99138e-21 0 5.99517e-21 0 1.50717e-20 0 3.03974e-20
6.10839 2.22868e-17 2.22868e-17 4.20544e-25 1.88697e-08 7.63367e-07 0 3.45887e-21 0 6.92506e-21 0 1.38765e-20 0 3.48685e-20 0 7.02721e-20
6.42193 2.26176e-17 2.26176e-17 3.156e-25 1.39537e-08 6.81383e-07 0 7.60742e-21 0 1.52297e-20 0 3.0513e-20 0 7.66405e-20 1.4013e-44 1.54357e-19
6.75157 2.26766e-17 2.26766e-17 2.28076e-25 1.00578e-08 6.05628e-07 0 1.58044e-20 0 3.16375e-20 0 6.33778e-20 0 1.5913e-19 8.40779e-43 3.20315e-19
7.09813 2.30402e-17 2.30402e-17 1.52742e-25 6.62937e-09 5.35113e-07 0 3.18812e-20 0 6.38162e-20 0 1.27825e-19 2.8026e-45 3.20842e-19 3.96245e-41 6.45508e-19
7.46248 2.839e-17 2.839e-17 8.60666e-26 3.03159e-09 4.66069e-07 0 7.48809e-20 0 1.4988e-19 0 3.0018e-19 1.98984e-43 7.5324e-19 1.8557e-39 1.51479e-18
7.84553 5.51773e-17 5.51773e-17 4.30157e-26 7.79591e-10 3.99104e-07 0 2.66858e-19 0 5.34108e-19 0 1.06961e-18 1.90563e-41 2.68328e-18 1.13381e-37 5.39403e-18
8.24824 1.14783e-16 1.14783e-16 5.25653e-26 4.57953e-10 3.43405e-07 0 9.80978e-19 0 1.96331e-18 5.60519e-45 3.93141e-18 1.59012e-39 9.8602e-18 6.18955e-36 1.98143e-17
8.67162 1.75193e-16 1.75193e-16 9.4551e-26 5.39695e-10 2.98882e-07 0 2.55431e-18 0 5.11192e-18 5.63322e-43 1.02355e-17 8.03131e-38 2.56658e-17 2.08798e-34 5.15592e-17
9.11674 2.58286e-16 2.58286e-16 1.84375e-25 7.13841e-10 2.54586e-07 0 6.21251e-18 2.8026e-45 1.24325e-17 4.08044e-41 2.48917e-17 3.26262e-36 6.24042e-17 5.77798e-33 1.25325e-16
9.5847 2.9059e-16 2.9059e-16 2.62251e-25 9.02479e-10 2.28205e-07 0 1.11684e-17 1.7236e-43 2.23495e-17 1.84443e-39 4.47439e-17 8.49841e-35 1.12154e-16 1.04461e-31 2.25175e-16
10.0767 2.60356e-16 2.60356e-16 2.52169e-25 9.68556e-10 2.16846e-07 0 1.55101e-17 8.06447e-42 3.10367e-17 5.4762e-38 6.21318e-17 1.49371e-33 1.55712e-16 1.29729e-30 3.1255e-16
10.5939 2.18402e-16 2.18402e-16 2.28637e-25 1.04686e-09 2.13113e-07 2.38221e-44 1.95914e-17 2.87179e-40 3.92024e-17 1.2676e-36 7.84741e-17 2.09988e-32 1.96638e-16 1.31064e-29 3.94608e-16
11.1377 1.71694e-16 1.71694e-16 1.80958e-25 1.05395e-09 2.18002e-07 1.03696e-42 2.25609e-17 7.8843e-39 4.5143e-17 2.31013e-35 9.03607e-17 2.38149e-31 2.26391e-16 1.08557e-28 4.54218e-16
11.7094 1.37095e-16 1.37095e-16 1.42203e-25 1.03726e-09 2.20034e-07 3.7168e-41 2.5705e-17 1.82591e-37 5.14328e-17 3.62315e-34 1.02946e-16 2.37881e-30 2.57887e-16 8.04187e-28 5.17307e-16
12.3105 1.07053e-16 1.07053e-16 1.09011e-25 1.01829e-09 2.18131e-07 1.06841e-39 2.79357e-17 3.4659e-36 5.58946e-17 4.74701e-33 1.11871e-16 2.02917e-29 2.80211e-16 5.16224e-27 5.61984e-16
12.9424 8.35521e-17 8.35521e-17 8.12341e-26 9.72257e-10 2.09463e-07 2.54272e-38 2.96325e-17 5.55842e-35 5.92881e-17 5.35075e-32 1.18658e-16 1.52068e-28 2.97176e-16 2.95197e-26 5.95906e-16
13.6067 6.67714e-17 6.67714e-17 5.81731e-26 8.71228e-10 1.90439e-07 5.18053e-37 3.14669e-17 7.77986e-34 6.29568e-17 5.35512e-31 1.25995e-16 1.03222e-27 3.15518e-16 1.54929e-25 6.32584e-16
14.3051 6.13276e-17 6.13276e-17 3.99136e-26 6.50826e-10 1.62695e-07 1.02304e-35 3.75887e-17 1.07498e-32 7.52035e-17 5.37829e-30 1.50498e-16 7.16573e-27 3.76841e-16 8.42098e-25 7.5542e-16
15.0394 6.8252e-17 6.8252e-17 2.96961e-26 4.35095e-10 1.37403e-07 2.08189e-34 5.33104e-17 1.55754e-31 1.06656e-16 5.75302e-29 2.13433e-16 5.39455e-26 5.34377e-16 5.02327e-24 1.07107e-15
15.8114 7.87823e-17 7.87823e-17 2.46108e-26 3.1239e-10 1.18109e-07 3.76648e-33 7.69176e-17 2.03985e-30 1.53882e-16 5.64551e-28 3.0793e-16 3.79014e-25 7.70903e-16 2.82846e-23 1.54495e-15
16.623 9.05402e-17 9.05402e-17 2.25025e-26 2.48536e-10 1.02535e-07 5.85956e-32 1.08487e-16 2.33377e-29 2.17036e-16 4.90827e-27 4.34292e-16 2.39804e-24 1.08716e-15 1.44981e-22 2.17849e-15
17.4762 9.98429e-17 9.98429e-17 2.1987e-26 2.20216e-10 9.02864e-08 7.60842e-31 1.44292e-16 2.26223e-28 2.88663e-16 3.66434e-26 5.77601e-16 1.32325e-23 1.4458e-15 6.54811e-22 2.89681e-15
18.3733 1.0306e-16 1.0306e-16 2.16933e-26 2.10491e-10 7.98092e-08 8.09914e-30 1.7671e-16 1.82359e-27 3.53511e-16 2.30415e-25 7.0734e-16 6.24137e-23 1.77042e-15 2.55284e-21 3.54687e-15
19.3164 9.82692e-17 9.82692e-17 2.05096e-26 2.08708e-10 7.37084e-08 7.02004e-29 1.9682e-16 1.21331e-26 3.93735e-16 1.21045e-24 7.87805e-16 2.49425e-22 1.97169e-15 8.51122e-21 3.94972e-15
20.3079 8.78136e-17 8.78136e-17 1.80744e-26 2.05827e-10 6.92591e-08 5.05777e-28 2.02444e-16 6.79734e-26 4.04981e-16 5.41648e-24 8.10287e-16 8.6046e-22 2.02784e-15 2.47134e-20 4.06184e-15
21.3503 7.84356e-17 7.84356e-17 1.53331e-26 1.95487e-10 6.56736e-08 3.24949e-27 2.05265e-16 3.43779e-25 4.10618e-16 2.2122e-23 8.2155e-16 2.74395e-21 2.05591e-15 6.68934e-20 4.11774e-15
22.4463 7.01505e-17 7.01505e-17 1.29145e-26 1.84097e-10 6.36199e-08 1.87542e-26 2.05683e-16 1.58023e-24 4.11451e-16 8.29783e-23 8.23201e-16 8.13392e-21 2.05994e-15 1.69663e-19 4.12551e-15
23.5984 6.28893e-17 6.28893e-17 1.07434e-26 1.7083e-10 5.98519e-08 9.78495e-26 2.04057e-16 6.63994e-24 4.08194e-16 2.87356e-22 8.1667e-16 2.25181e-20 2.04351e-15 4.04955e-19 4.09232e-15
24.8097 5.65984e-17 5.65984e-17 8.94665e-27 1.58072e-10 5.69219e-08 4.64576e-25 2.00884e-16 2.56588e-23 4.01842e-16 9.23852e-22 8.03949e-16 5.85106e-20 2.01159e-15 9.1378e-19 4.02817e-15
26.0832 5.08375e-17 5.08375e-17 7.39054e-27 1.45376e-10 5.26875e-08 2.00506e-24 1.95231e-16 9.10431e-23 3.90533e-16 2.75186e-21 7.81311e-16 1.4233e-19 1.95488e-15 1.94369e-18 3.91438e-15
27.4221 4.5594e-17 4.5594e-17 6.10468e-27 1.33892e-10 5.15298e-08 7.90607e-24 1.87521e-16 2.9797e-22 3.75107e-16 7.62557e-21 7.50441e-16 3.25292e-19 1.87758e-15 3.90996e-18 3.75941e-15
28.8297 4.10516e-17 4.10516e-17 5.04152e-27 1.22809e-10 4.68234e-08 2.87593e-23 1.79094e-16 9.07889e-22 3.58246e-16 1.98328e-20 7.16701e-16 7.04374e-19 1.79311e-15 7.49855e-18 3.59011e-15
30.3095 3.69452e-17 3.69452e-17 4.16128e-27 1.12634e-10 4.32025e-08 9.64928e-23 1.69437e-16 2.57365e-21 3.38929e-16 4.83625e-20 6.78048e-16 1.44288e-18 1.69636e-15 1.36852e-17 3.39625e-15
31.8653 3.33255e-17 3.33255e-17 3.42094e-27 1.02652e-10 3.9262e-08 3.00603e-22 1.59321e-16 6.83002e-21 3.18692e-16 1.11219e-19 6.37557e-16 2.81125e-18 1.59501e-15 2.38902e-17 3.19323e-15
33.5009 3.00076e-17 3.00076e-17 2.81691e-27 9.38732e-11 3.95319e-08 8.69227e-22 1.48373e-16 1.69565e-20 2.9679e-16 2.40953e-19 5.93735e-16 5.20193e-18 1.48535e-15 3.9821e-17 2.97356e-15
35.2206 2.72591e-17 2.72591e-17 2.3144e-27 8.49038e-11 3.51811e-08 2.36624e-21 1.38376e-16 3.99272e-20 2.76793e-16 4.98414e-19 5.53727e-16 9.26146e-18 1.38523e-15 6.41903e-17 2.77303e-15
37.0284 2.47191e-17 2.47191e-17 1.90214e-27 7.69502e-11 3.29836e-08 6.02064e-21 1.27945e-16 8.84983e-20 2.55925e-16 9.7663e-19 5.11978e-16 1.57347e-17 1.28076e-15 9.92194e-17 2.56379e-15
38.9291 2.23655e-17 2.23655e-17 1.56499e-27 6.99731e-11 2.97648e-08 1.43572e-20 1.17277e-16 1.85085e-19 2.34586e-16 1.81657e-18 4.69284e-16 2.55531e-17 1.17393e-15 1.47277e-16 2.34985e-15
40.9273 2.01873e-17 2.01873e-17 1.28918e-27 6.38611e-11 2.43069e-08 3.21806e-20 1.06596e-16 3.66172e-19 2.13221e-16 3.21469e-18 4.2654e-16 3.97439e-17 1.06697e-15 2.10292e-16 2.13567e-15
43.0282 1.82102e-17 1.82102e-17 1.05938e-27 5.81749e-11 2.81394e-08 6.81182e-20 9.6285e-17 6.88322e-19 1.92595e-16 5.43478e-18 3.85275e-16 5.9428e-17 9.63724e-16 2.8988e-16 1.92891e-15
45.2368 1.63881e-17 1.63881e-17 8.70231e-28 5.31014e-11 2.08952e-08 1.36305e-19 8.63093e-17 1.23026e-18 1.7264e-16 8.78159e-18 3.45353e-16 8.54405e-17 8.63835e-16 3.85735e-16 1.72888e-15
47.5588 1.47736e-17 1.47736e-17 7.14027e-28 4.83312e-11 2.91907e-08 2.59574e-19 7.71166e-17 2.10423e-18 1.54251e-16 1.36457e-17 3.08564e-16 1.18807e-16 7.71786e-16 4.98319e-16 1.54455e-15
50 1.32739e-17 1.32739e-17 5.86248e-28 4.41655e-11 2.20857e-08 4.6924e-19 6.83544e-17 3.43443e-18 1.36724e-16 2.0329e-17 2.73498e-16 1.59249e-16 6.8405e-16 6.22793e-16 1.36887e-15
52.5665 1.19402e-17 1.19402e-17 4.80699e-28 4.02589e-11 1.75424e-08 8.10777e-19 6.03918e-17 5.38462e-18 1.20796e-16 2.92221e-17 2.41632e-16 2.07027e-16 6.04319e-16 7.57493e-16 1.20921e-15
55.2648 1.07328e-17 1.07328e-17 3.93895e-28 3.67e-11 2.2799e-08 1.33951e-18 5.3098e-17 8.11061e-18 1.06206e-16 4.05272e-17 2.12443e-16 2.60945e-16 5.31285e-16 8.96189e-16 1.06296e-15
58.1015 9.64296e-18 9.64296e-18 3.229e-28 3.34856e-11 1.06213e-08 2.12116e-18 4.64807e-17 1.17624e-17 9.29688e-17 5.43347e-17 1.85961e-16 3.19443e-16 4.65025e-16 1.03297e-15 9.30283e-16
61.0839 8.66436e-18 8.66436e-18 2.64498e-28 3.05271e-11 2.12564e-08 3.2278e-18 4.05401e-17 1.64629e-17 8.10855e-17 7.05734e-17 1.62187e-16 3.80541e-16 4.05541e-16 1.16204e-15 8.1117e-16
64.2193 7.77987e-18 7.77987e-18 2.16563e-28 2.78363e-11 1.02014e-08 4.72576e-18 3.5211e-17 2.226e-17 7.04254e-17 8.88786e-17 1.4086e-16 4.41404e-16 3.5218e-16 1.27645e-15 7.04321e-16
67.5157 6.98912e-18 6.98912e-18 1.77283e-28 2.53655e-11 8.15026e-09 6.67691e-18 3.04953e-17 2.91588e-17 6.09925e-17 1.08815e-16 1.21989e-16 4.99753e-16 3.04962e-16 1.37224e-15 6.09775e-16
70.9813 6.2791e-18 6.2791e-18 1.45152e-28 2.31167e-11 9.86827e-09 9.11587e-18 2.63288e-17 3.70455e-17 5.26581e-17 1.29639e-16 1.05315e-16 5.52707e-16 2.63244e-16 1.44472e-15 5.26242e-16
74.6248 5.64504e-18 5.64504e-18 1.18777e-28 2.1041e-11 -4.17712e-09 1.20541e-17 2.26782e-17 4.57449e-17 4.53556e-17 1.50587e-16 9.07052e-17 5.98171e-16 2.26691e-16 1.49206e-15 4.53055e-16
78.4553 5.07346e-18 5.07346e-18 9.71751e-29 1.91536e-11 2.34811e-08 1.54472e-17 1.94714e-17 5.49268e-17 3.8941e-17 1.70599e-16 7.78723e-17 6.33579e-16 1.94585e-16 1.51161e-15 3.88772e-16
