# 1.11922e-06 3 33 : grain size, compostion index, size index
# This grain was stochastically heated: Yes
# Heating and cooling timescale: 512.188 1132.15
# Ratio of heating to cooling to determine stochastic cutoff: 100
# Equilibrium emission is recorded even for those grains in the stochastic regime.
# Emission spectrum was computed for: 
# Type: IRSF
# Scale: 1
# Temperature: -1
# Wavelength  CExt  CAbs  CSca  Albedo G EqEmission StEmission
0.05 4.3388e-12 2.95443e-12 1.38437e-12 0.319068 0.34475 0 0
0.0525665 4.791e-12 3.29735e-12 1.49366e-12 0.311763 0.318161 0 0
0.0552647 5.28845e-12 3.68307e-12 1.60538e-12 0.303564 0.293023 0 0
0.0581015 5.96785e-12 4.27649e-12 1.69135e-12 0.283411 0.268403 0 0
0.0610839 6.96336e-12 5.16635e-12 1.79701e-12 0.258066 0.243578 0 0
0.0642193 7.94849e-12 5.92825e-12 2.02024e-12 0.254166 0.21986 0 0
0.0675157 9.39877e-12 6.98749e-12 2.41128e-12 0.256553 0.196947 0 0
0.0709813 1.08933e-11 8.1192e-12 2.77406e-12 0.254659 0.170788 0 0
0.0746248 1.15735e-11 8.59455e-12 2.97898e-12 0.257396 0.14336 0 0
0.0784553 1.14972e-11 8.48824e-12 3.009e-12 0.261715 0.120066 0 0
0.0824824 1.10542e-11 8.22089e-12 2.83328e-12 0.256309 0.103084 0 0
0.0867162 1.06349e-11 8.02356e-12 2.6113e-12 0.245542 0.0912357 0 0
0.0911674 1.03226e-11 7.82817e-12 2.49445e-12 0.241649 0.0811837 0 0
0.095847 9.60923e-12 7.27705e-12 2.33218e-12 0.242702 0.0764466 0 0
0.100767 7.95673e-12 6.0812e-12 1.87552e-12 0.235715 0.0827751 0 0
0.105939 6.0234e-12 4.58293e-12 1.44047e-12 0.239145 0.090403 0 0
0.111377 4.10461e-12 3.17688e-12 9.27727e-13 0.226021 0.0958756 0 0
0.117094 2.83318e-12 2.27246e-12 5.60716e-13 0.197911 0.096517 0 0
0.123105 2.01855e-12 1.66326e-12 3.55294e-13 0.176014 0.0838553 0 0
0.129424 1.53089e-12 1.30862e-12 2.22265e-13 0.145187 0.0701129 0 0
0.136067 1.30929e-12 1.16833e-12 1.40962e-13 0.107663 0.0591632 0 0
0.143051 1.21862e-12 1.12746e-12 9.11567e-14 0.0748034 0.0505054 0 0
0.150394 1.26339e-12 1.20232e-12 6.10717e-14 0.0483395 0.043235 0 0
0.158114 1.41017e-12 1.36498e-12 4.51851e-14 0.0320423 0.0371724 0 0
0.16623 1.65714e-12 1.6166e-12 4.05351e-14 0.0244609 0.0321184 0 0
0.174762 2.0561e-12 2.00914e-12 4.69594e-14 0.022839 0.0277746 0 0
0.183733 2.64644e-12 2.58191e-12 6.4526e-14 0.0243822 0.0238028 0 0
0.193164 3.58439e-12 3.48416e-12 1.00223e-13 0.027961 0.0199276 0 0
0.203079 4.83993e-12 4.68357e-12 1.56354e-13 0.032305 0.0160217 0 0
0.213503 5.69156e-12 5.48345e-12 2.08109e-13 0.0365644 0.0123183 0 0
0.224463 4.85627e-12 4.66659e-12 1.89682e-13 0.0390592 0.0091759 0 0
0.235984 3.43416e-12 3.30195e-12 1.32209e-13 0.0384982 0.00664824 0 0
0.248097 2.4393e-12 2.35449e-12 8.48067e-14 0.0347668 0.00504836 0 0
0.260832 1.9132e-12 1.85583e-12 5.73715e-14 0.0299871 0.00492416 0 0
0.274221 1.57861e-12 1.53775e-12 4.08616e-14 0.0258845 0.00621851 0 0
0.288297 1.36102e-12 1.33087e-12 3.01563e-14 0.0221571 0.0083796 0 0
0.303095 1.1931e-12 1.17002e-12 2.30774e-14 0.0193424 0.00954319 0 0
0.318653 1.04321e-12 1.02534e-12 1.78693e-14 0.0171291 0.0100963 0 0
0.335009 9.24517e-13 9.10507e-13 1.401e-14 0.0151539 0.0100317 0 0
0.352205 8.29923e-13 8.18794e-13 1.11286e-14 0.0134092 0.00958364 0 0
0.370284 7.5019e-13 7.41266e-13 8.92319e-15 0.0118946 0.00900166 0 0
0.389291 6.77227e-13 6.70014e-13 7.21325e-15 0.0106512 0.00842189 0 3.8406e-318
0.409273 6.09396e-13 6.03546e-13 5.8504e-15 0.00960033 0.00785059 0 2.30367e-303
0.430281 5.46126e-13 5.41375e-13 4.75091e-15 0.0086993 0.00730266 0 2.56955e-289
0.452368 4.91566e-13 4.87708e-13 3.85828e-15 0.00784895 0.00672937 0 5.85236e-276
0.475588 4.42818e-13 4.39682e-13 3.13602e-15 0.00708198 0.00617669 0 2.93155e-263
0.5 4.01467e-13 3.98911e-13 2.55617e-15 0.00636706 0.00564338 0 3.49756e-251
0.525665 3.65889e-13 3.63803e-13 2.08607e-15 0.00570138 0.00513711 0 1.06527e-239
0.552647 3.33209e-13 3.31505e-13 1.70329e-15 0.00511178 0.00467504 0 8.80319e-229
0.581015 3.06032e-13 3.04634e-13 1.39774e-15 0.00456732 0.00424415 0 2.12374e-218
0.610839 2.80889e-13 2.79742e-13 1.14746e-15 0.00408509 0.00385347 0 1.57475e-208
0.642193 2.57572e-13 2.5663e-13 9.41917e-16 0.0036569 0.00349874 0 3.80102e-199
0.675157 2.36475e-13 2.35701e-13 7.7415e-16 0.0032737 0.00317794 0 3.16219e-190
0.709813 2.17416e-13 2.16778e-13 6.37399e-16 0.00293171 0.00288994 0 9.55597e-182
0.746248 1.99921e-13 1.99396e-13 5.24928e-16 0.00262568 0.0026325 0 1.10121e-173
0.784553 1.83683e-13 1.8325e-13 4.32198e-16 0.00235296 0.00239858 0 5.06806e-166
0.824824 1.68788e-13 1.68432e-13 3.55786e-16 0.00210789 0.00218858 0 9.75465e-159
0.867162 1.55089e-13 1.54796e-13 2.93007e-16 0.00188928 0.00199957 0 8.19511e-152
0.911674 1.4243e-13 1.42189e-13 2.41189e-16 0.00169339 0.00182851 3.78058e-296 3.12911e-145
0.95847 1.30847e-13 1.30648e-13 1.98377e-16 0.0015161 0.0016752 9.42858e-282 5.65077e-139
1.00767 1.20106e-13 1.19943e-13 1.63183e-16 0.00135866 0.00153593 4.58073e-268 5.00274e-133
1.05939 1.10419e-13 1.10285e-13 1.34181e-16 0.00121519 0.00140959 4.70715e-255 2.25494e-127
1.11377 1.01506e-13 1.01396e-13 1.10303e-16 0.00108666 0.00129453 1.10192e-242 5.34338e-122
1.17094 9.36366e-14 9.3546e-14 9.06373e-17 0.000967969 0.00118707 6.33915e-231 6.89897e-117
1.23105 8.63988e-14 8.63243e-14 7.45148e-17 0.000862451 0.00108866 9.56889e-220 4.98892e-112
1.29424 7.97302e-14 7.96689e-14 6.12812e-17 0.000768607 0.000998072 4.04496e-209 2.08054e-107
1.36067 7.35943e-14 7.3544e-14 5.03696e-17 0.000684422 0.000915537 5.0962e-199 5.14723e-103
1.43051 6.79471e-14 6.79057e-14 4.13826e-17 0.000609043 0.000840328 2.03023e-189 7.76105e-99
1.50394 6.28284e-14 6.27944e-14 3.40122e-17 0.000541351 0.000770791 2.70887e-180 7.3285e-95
1.58114 5.81634e-14 5.81355e-14 2.79554e-17 0.000480636 0.000705931 1.2765e-171 4.44127e-91
1.6623 5.38587e-14 5.38357e-14 2.29799e-17 0.000426671 0.000645743 2.2334e-163 1.76774e-87
1.74762 4.98155e-14 4.97966e-14 1.88924e-17 0.000379247 0.000591498 1.52066e-155 4.72247e-84
1.83733 4.60891e-14 4.60736e-14 1.55304e-17 0.000336965 0.000541908 4.22471e-148 8.67041e-81
1.93164 4.26416e-14 4.26289e-14 1.2762e-17 0.000299285 0.000496369 5.0025e-141 1.11746e-77
2.03079 3.94865e-14 3.9476e-14 1.04848e-17 0.000265529 0.000454099 2.6342e-134 1.03287e-74
2.13503 3.6554e-14 3.65454e-14 8.62074e-18 0.000235836 0.000415424 6.4107e-128 6.97442e-72
2.24463 3.38212e-14 3.38141e-14 7.08492e-18 0.000209481 0.000380176 7.48428e-122 3.50394e-69
2.35984 3.1319e-14 3.13131e-14 5.82055e-18 0.000185848 0.000347679 4.35085e-116 1.33461e-66
2.48097 2.90128e-14 2.9008e-14 4.78103e-18 0.00016479 0.000317658 1.30254e-110 3.91471e-64
2.60832 2.68634e-14 2.68595e-14 3.93051e-18 0.000146315 0.000289952 2.07248e-105 8.96624e-62
2.74221 2.4843e-14 2.48397e-14 3.2302e-18 0.000130025 0.000264733 1.80616e-100 1.62395e-59
2.88297 2.29768e-14 2.29741e-14 2.65264e-18 0.000115449 0.000241913 8.88987e-96 2.35709e-57
3.03095 2.12321e-14 2.12299e-14 2.17873e-18 0.000102615 0.000221187 2.53861e-91 2.76878e-55
3.18653 1.96328e-14 1.9631e-14 1.78981e-18 9.11642e-05 0.000201954 4.32564e-87 2.66193e-53
3.35009 1.81857e-14 1.81842e-14 1.46983e-18 8.08233e-05 0.000184269 4.51556e-83 2.11552e-51
3.52205 1.67627e-14 1.67615e-14 1.20648e-18 7.19742e-05 0.000168175 2.9383e-79 1.39174e-49
3.70284 1.54886e-14 1.54877e-14 9.9076e-19 6.39669e-05 0.000153459 1.22832e-75 7.69248e-48
3.89291 1.43221e-14 1.43213e-14 8.13313e-19 5.67874e-05 0.000139876 3.36565e-72 3.59145e-46
4.09273 1.3247e-14 1.32463e-14 6.67557e-19 5.03932e-05 0.000127051 6.16781e-69 1.42516e-44
4.30281 1.2243e-14 1.22425e-14 5.47812e-19 4.47447e-05 0.000115456 7.7015e-66 4.83229e-43
4.52368 1.13137e-14 1.13133e-14 4.49685e-19 3.97469e-05 0.000104904 6.68049e-63 1.40954e-41
4.75588 1.04574e-14 1.0457e-14 3.68992e-19 3.52854e-05 9.52294e-05 4.09924e-60 3.55906e-40
5 9.68976e-15 9.68946e-15 3.02692e-19 3.12384e-05 8.5973e-05 1.81377e-57 7.8404e-39
5.25665 9.05048e-15 9.05023e-15 2.48362e-19 2.74418e-05 7.76723e-05 5.91334e-55 1.5234e-37
5.52648 8.32427e-15 8.32407e-15 2.03771e-19 2.44791e-05 7.02464e-05 1.40901e-52 2.56341e-36
5.81015 7.7852e-15 7.78503e-15 1.67079e-19 2.14611e-05 6.34667e-05 2.57114e-50 3.87651e-35
6.10839 7.78105e-15 7.78091e-15 1.36958e-19 1.76014e-05 5.71113e-05 3.82856e-48 5.56287e-34
6.42193 6.9462e-15 6.94608e-15 1.12267e-19 1.61623e-05 5.19091e-05 3.94004e-46 6.36026e-33
6.75157 6.36067e-15 6.36057e-15 9.20398e-20 1.44701e-05 4.63466e-05 3.25847e-44 6.68262e-32
7.09813 5.9765e-15 5.97643e-15 7.54145e-20 1.26185e-05 4.14972e-05 2.19254e-42 6.48221e-31
7.46248 6.3096e-15 6.30954e-15 6.17738e-20 9.79044e-06 3.70317e-05 1.32922e-40 6.38236e-30
7.84553 6.28389e-15 6.28384e-15 5.06192e-20 8.05539e-06 3.27324e-05 6.16228e-39 5.3769e-29
8.24824 5.03983e-15 5.03979e-15 4.14651e-20 8.22747e-06 2.8726e-05 1.88402e-37 3.32134e-28
8.67162 4.57157e-15 4.57154e-15 3.39437e-20 7.42495e-06 2.52546e-05 5.38772e-36 2.12061e-27
9.11674 3.85138e-15 3.85135e-15 2.77865e-20 7.21469e-06 2.21544e-05 1.19435e-34 1.1533e-26
9.5847 3.52008e-15 3.52006e-15 2.27369e-20 6.45921e-06 1.93619e-05 2.41889e-33 6.26253e-26
10.0767 3.26585e-15 3.26583e-15 1.85969e-20 5.69436e-06 1.67534e-05 4.22267e-32 3.18707e-25
10.5939 3.05889e-15 3.05888e-15 1.51993e-20 4.96889e-06 1.42538e-05 6.37037e-31 1.51654e-24
11.1377 3.02966e-15 3.02965e-15 1.2413e-20 4.09715e-06 1.19369e-05 8.76522e-30 7.08829e-24
11.7094 2.75454e-15 2.75453e-15 1.0232e-20 3.7146e-06 9.88449e-06 9.61777e-29 2.83287e-23
12.3105 2.63e-15 2.62999e-15 8.31962e-21 3.16336e-06 7.72767e-06 9.69465e-28 1.11048e-22
12.9424 2.50028e-15 2.50028e-15 6.79338e-21 2.71704e-06 5.62783e-06 8.56694e-27 4.05845e-22
13.6067 2.39221e-15 2.39221e-15 5.54728e-21 2.31889e-06 3.87543e-06 6.7503e-26 1.40121e-21
14.3051 2.31579e-15 2.31579e-15 4.52612e-21 1.95446e-06 2.35641e-06 4.79608e-25 4.60535e-21
15.0394 2.27487e-15 2.27486e-15 3.69077e-21 1.62241e-06 9.89853e-07 3.09914e-24 1.44847e-20
15.8114 2.28026e-15 2.28026e-15 3.00952e-21 1.31982e-06 -2.91726e-07 1.84125e-23 4.39354e-20
16.623 2.33628e-15 2.33628e-15 2.45356e-21 1.0502e-06 -1.58202e-06 1.01266e-22 1.29022e-19
17.4762 2.40723e-15 2.40722e-15 1.99927e-21 8.30527e-07 -2.82227e-06 5.09702e-22 3.61655e-19
18.3733 2.5206e-15 2.5206e-15 1.62821e-21 6.4596e-07 -3.99673e-06 2.38361e-21 9.79838e-19
19.3164 2.70048e-15 2.70048e-15 1.32772e-21 4.91661e-07 -5.19492e-06 1.04726e-20 2.58852e-18
20.3079 2.94468e-15 2.94468e-15 1.08338e-21 3.67912e-07 -6.5537e-06 4.31829e-20 6.64579e-18
21.3503 3.27359e-15 3.27359e-15 8.84952e-22 2.7033e-07 -7.54786e-06 1.68052e-19 1.6641e-17
22.4463 3.70691e-15 3.70691e-15 7.25205e-22 1.95636e-07 -8.34031e-06 6.1902e-19 4.06781e-17
23.5984 4.2604e-15 4.26039e-15 5.97848e-22 1.40327e-07 -9.06502e-06 2.15821e-18 9.68941e-17
24.8097 4.93892e-15 4.93892e-15 4.97115e-22 1.00653e-07 -1.00588e-05 7.10222e-18 2.23886e-16
26.0832 5.73575e-15 5.73575e-15 4.18703e-22 7.29988e-08 -1.07175e-05 2.19804e-17 4.9921e-16
27.4221 6.59325e-15 6.59325e-15 3.57536e-22 5.42275e-08 -1.12405e-05 6.34078e-17 1.06298e-15
28.8297 7.38228e-15 7.38228e-15 3.10449e-22 4.20532e-08 -1.14454e-05 1.68271e-16 2.13025e-15
30.3095 8.01193e-15 8.01193e-15 2.72888e-22 3.40603e-08 -1.15352e-05 4.09951e-16 4.00402e-15
31.8653 8.19488e-15 8.19488e-15 2.39764e-22 2.92578e-08 -1.13452e-05 8.93839e-16 6.87248e-15
33.5009 8.03269e-15 8.03269e-15 2.103e-22 2.61805e-08 -1.11376e-05 1.77804e-15 1.09673e-14
35.2206 7.37146e-15 7.37146e-15 1.80099e-22 2.44319e-08 -1.0506e-05 3.15999e-15 1.59165e-14
37.0284 6.52428e-15 6.52428e-15 1.52339e-22 2.33496e-08 -9.87808e-06 5.18074e-15 2.16661e-14
38.9291 5.59467e-15 5.59467e-15 1.26553e-22 2.26203e-08 -9.02544e-06 7.88833e-15 2.78199e-14
40.9273 4.71308e-15 4.71308e-15 1.04118e-22 2.20912e-08 -8.1145e-06 1.1334e-14 3.4202e-14
43.0282 3.94328e-15 3.94328e-15 8.49408e-23 2.15407e-08 -6.90382e-06 1.5566e-14 4.07419e-14
45.2368 3.28711e-15 3.28711e-15 6.90632e-23 2.10103e-08 -5.59475e-06 2.0538e-14 4.72186e-14
47.5588 2.75743e-15 2.75743e-15 5.6014e-23 2.03138e-08 -3.35274e-06 2.6341e-14 5.38261e-14
50 2.31305e-15 2.31305e-15 4.54381e-23 1.96442e-08 -1.20717e-06 3.26877e-14 6.00213e-14
52.5665 1.95524e-15 1.95524e-15 3.68369e-23 1.88401e-08 1.15963e-06 3.96154e-14 6.60323e-14
55.2648 1.66223e-15 1.66223e-15 2.98698e-23 1.79697e-08 3.29656e-06 4.68674e-14 7.15847e-14
58.1015 1.42179e-15 1.42179e-15 2.42539e-23 1.70587e-08 5.16075e-06 5.42278e-14 7.65606e-14
61.0839 1.2225e-15 1.2225e-15 1.97016e-23 1.61158e-08 6.66974e-06 6.13948e-14 8.07678e-14
64.2193 1.05598e-15 1.05598e-15 1.60104e-23 1.51616e-08 7.84535e-06 6.80605e-14 8.40503e-14
67.5157 9.16847e-16 9.16847e-16 1.30209e-23 1.42018e-08 8.62876e-06 7.40123e-14 8.63858e-14
70.9813 7.99509e-16 7.99509e-16 1.06e-23 1.32581e-08 9.09488e-06 7.89815e-14 8.76749e-14
74.6248 6.99855e-16 6.99855e-16 8.63153e-24 1.23333e-08 9.27485e-06 8.27617e-14 8.78779e-14
78.4553 6.14732e-16 6.14732e-16 7.03022e-24 1.14362e-08 9.20436e-06 8.52162e-14 8.70066e-14
82.4824 5.41868e-16 5.41868e-16 5.73111e-24 1.05766e-08 8.87722e-06 8.6316e-14 8.51494e-14
86.7162 4.79428e-16 4.79428e-16 4.67392e-24 9.74895e-09 8.24505e-06 8.61116e-14 8.24343e-14
91.1674 4.25468e-16 4.25468e-16 3.81211e-24 8.95981e-09 7.45237e-06 8.46316e-14 7.89332e-14
95.847 3.78639e-16 3.78639e-16 3.10954e-24 8.2124e-09 6.63407e-06 8.19975e-14 7.47777e-14
100.767 3.38057e-16 3.38057e-16 2.53875e-24 7.50983e-09 5.81051e-06 7.84209e-14 7.01559e-14
105.939 3.03647e-16 3.03647e-16 2.07254e-24 6.82551e-09 4.82857e-06 7.43012e-14 6.53982e-14
111.377 2.7399e-16 2.7399e-16 1.69173e-24 6.17441e-09 3.86786e-06 6.96964e-14 6.05155e-14
117.094 2.49551e-16 2.49551e-16 1.38147e-24 5.5358e-09 2.92732e-06 6.50845e-14 5.58792e-14
123.105 2.3017e-16 2.3017e-16 1.12903e-24 4.90522e-09 2.05104e-06 6.07461e-14 5.16805e-14
129.424 2.14504e-16 2.14504e-16 9.23536e-25 4.30546e-09 1.26504e-06 5.6581e-14 4.77895e-14
136.067 1.99658e-16 1.99658e-16 7.56046e-25 3.78672e-09 6.01698e-07 5.20229e-14 4.36951e-14
143.051 1.81104e-16 1.81104e-16 6.19831e-25 3.42251e-09 4.16388e-08 4.60992e-14 3.85608e-14
150.394 1.61016e-16 1.61016e-16 5.0801e-25 3.15502e-09 -4.57163e-07 3.96226e-14 3.30497e-14
158.114 1.41012e-16 1.41012e-16 4.15747e-25 2.94831e-09 -8.11247e-07 3.32158e-14 2.76583e-14
166.23 1.23315e-16 1.23315e-16 3.40024e-25 2.75737e-09 -1.1515e-06 2.75466e-14 2.29206e-14
174.763 1.07997e-16 1.07997e-16 2.78207e-25 2.57606e-09 -1.48357e-06 2.26786e-14 1.88716e-14
183.733 9.56503e-17 9.56503e-17 2.27518e-25 2.37865e-09 -1.69246e-06 1.8726e-14 1.55947e-14
193.164 8.48705e-17 8.48705e-17 1.86021e-25 2.19182e-09 -1.88851e-06 1.53706e-14 1.28178e-14
203.079 7.55934e-17 7.55934e-17 1.52124e-25 2.0124e-09 -2.04833e-06 1.25721e-14 1.05036e-14
213.503 6.77917e-17 6.77917e-17 1.24453e-25 1.83582e-09 -2.13315e-06 1.02825e-14 8.61015e-15
224.463 6.07618e-17 6.07618e-17 1.01795e-25 1.67531e-09 -2.21797e-06 8.35108e-15 7.01087e-15
235.984 5.44247e-17 5.44247e-17 8.32443e-26 1.52953e-09 -2.29302e-06 6.73687e-15 5.67171e-15
248.097 4.87241e-17 4.87241e-17 6.81116e-26 1.3979e-09 -2.37651e-06 5.40103e-15 4.5608e-15
260.832 4.38814e-17 4.38814e-17 5.57329e-26 1.27008e-09 -2.38025e-06 4.33271e-15 3.67021e-15
274.221 3.95232e-17 3.95232e-17 4.55934e-26 1.15359e-09 -2.37949e-06 3.45856e-15 2.93922e-15
288.297 3.55562e-17 3.55562e-17 3.72938e-26 1.04887e-09 -2.37356e-06 2.74457e-15 2.34014e-15
303.095 3.19967e-17 3.19967e-17 3.05254e-26 9.54017e-10 -2.36459e-06 2.16902e-15 1.85552e-15
318.653 2.8893e-17 2.8893e-17 2.49798e-26 8.6456e-10 -2.30201e-06 1.71297e-15 1.47023e-15
335.009 2.60559e-17 2.60559e-17 2.04365e-26 7.84335e-10 -2.25614e-06 1.34578e-15 1.15885e-15
352.206 2.34694e-17 2.34694e-17 1.6723e-26 7.12544e-10 -2.2129e-06 1.0522e-15 9.0897e-16
370.284 2.12091e-17 2.12091e-17 1.36886e-26 6.4541e-10 -2.13785e-06 8.22546e-16 7.12823e-16
389.291 1.91516e-17 1.91516e-17 1.12019e-26 5.84906e-10 -2.0593e-06 6.40467e-16 5.56741e-16
409.273 1.72706e-17 1.72706e-17 9.16472e-27 5.30654e-10 -1.99518e-06 4.9653e-16 4.32912e-16
430.282 1.56202e-17 1.56202e-17 7.50195e-27 4.80271e-10 -1.89079e-06 3.84987e-16 3.36634e-16
452.368 1.41234e-17 1.41234e-17 6.1406e-27 4.34782e-10 -1.81356e-06 2.97627e-16 2.60974e-16
475.588 1.27526e-17 1.27526e-17 5.02504e-27 3.94039e-10 -1.7283e-06 2.29207e-16 2.01523e-16
500 1.15005e-17 1.15005e-17 4.11156e-27 3.5751e-10 -1.62703e-06 1.75885e-16 1.55043e-16
525.665 1.04351e-17 1.04351e-17 3.36626e-27 3.22591e-10 -1.52269e-06 1.355e-16 1.19741e-16
552.648 9.45602e-18 9.45602e-18 2.7553e-27 2.9138e-10 -1.42485e-06 1.04038e-16 9.21574e-17
581.015 8.55714e-18 8.55714e-18 2.25465e-27 2.63481e-10 -1.34179e-06 7.96182e-17 7.06876e-17
610.838 7.73419e-18 7.73419e-18 1.84534e-27 2.38595e-10 -1.26493e-06 6.07453e-17 5.40494e-17
642.193 6.98193e-18 6.98193e-18 1.51072e-27 2.16375e-10 -1.18803e-06 4.62111e-17 4.12031e-17
675.157 6.29428e-18 6.29428e-18 1.23644e-27 1.96439e-10 -1.08963e-06 3.50503e-17 3.1314e-17
709.813 5.68115e-18 5.68115e-18 1.01171e-27 1.78083e-10 -1.02402e-06 2.65768e-17 2.37888e-17
746.247 5.15643e-18 5.15643e-18 8.28276e-28 1.6063e-10 -9.08013e-07 2.02358e-17 1.81457e-17
784.553 4.67416e-18 4.67416e-18 6.78042e-28 1.45062e-10 -8.87587e-07 1.53672e-17 1.38038e-17
824.824 4.23128e-18 4.23128e-18 5.5491e-28 1.31145e-10 -7.76922e-07 1.16397e-17 1.04726e-17
867.162 3.82535e-18 3.82535e-18 4.54088e-28 1.18705e-10 -7.8963e-07 8.79434e-18 7.92484e-18
911.674 3.45454e-18 3.45454e-18 3.71797e-28 1.07626e-10 -6.87675e-07 6.62979e-18 5.98314e-18
958.471 3.11547e-18 3.11547e-18 3.04334e-28 9.76847e-11 -6.90734e-07 4.98599e-18 4.50601e-18
1007.67 2.80892e-18 2.80892e-18 2.49045e-28 8.86622e-11 -5.60912e-07 3.74503e-18 3.38903e-18
1059.39 2.5445e-18 2.5445e-18 2.03853e-28 8.0115e-11 -5.30255e-07 2.82359e-18 2.55843e-18
1113.77 2.3022e-18 2.3022e-18 1.66897e-28 7.24947e-11 -4.57911e-07 2.12442e-18 1.92723e-18
1170.94 2.08015e-18 2.08015e-18 1.366e-28 6.56684e-11 -3.65973e-07 1.59487e-18 1.4485e-18
1231.05 1.87985e-18 1.87985e-18 1.11778e-28 5.94612e-11 -4.24861e-07 1.1966e-18 1.08796e-18
1294.24 1.70325e-18 1.70325e-18 9.15169e-29 5.37308e-11 -3.79242e-07 8.99447e-19 8.18631e-19
1360.67 1.54184e-18 1.54184e-18 7.4918e-29 4.859e-11 -3.69494e-07 6.75001e-19 6.14953e-19
1430.51 1.39388e-18 1.39388e-18 6.13141e-29 4.39882e-11 -2.10505e-07 5.05552e-19 4.61007e-19
1503.94 1.25898e-18 1.25898e-18 5.01762e-29 3.98547e-11 -2.18637e-07 3.78064e-19 3.45056e-19
1581.14 1.1423e-18 1.1423e-18 4.10846e-29 3.59666e-11 -4.35797e-07 2.83842e-19 2.59278e-19
1662.3 1.03512e-18 1.03512e-18 3.36306e-29 3.24895e-11 -2.38158e-07 2.12712e-19 1.94459e-19
1747.63 9.36745e-19 9.36745e-19 2.75213e-29 2.93797e-11 -3.39738e-07 1.5911e-19 1.45566e-19
1837.33 8.46717e-19 8.46717e-19 2.25276e-29 2.66058e-11 -8.66295e-08 1.18815e-19 1.08779e-19
1931.64 7.64431e-19 7.64431e-19 1.84439e-29 2.41277e-11 -7.10324e-08 8.85772e-20 8.11504e-20
2030.79 6.94464e-19 6.94464e-19 1.50962e-29 2.1738e-11 -2.4607e-07 6.64185e-20 6.0889e-20
2135.03 6.4126e-19 6.4126e-19 1.23529e-29 1.92635e-11 3.18234e-08 5.05991e-20 4.6415e-20
2244.63 5.91577e-19 5.91577e-19 1.01141e-29 1.70969e-11 -5.60869e-07 3.84961e-20 3.53334e-20
2359.84 5.45149e-19 5.45149e-19 8.27987e-30 1.51883e-11 -1.06182e-07 2.9245e-20 2.68572e-20
2480.97 5.01793e-19 5.01793e-19 6.77642e-30 1.35044e-11 -1.64891e-07 2.21836e-20 2.0383e-20
2608.32 4.61364e-19 4.61364e-19 5.54563e-30 1.20201e-11 -2.72018e-07 1.68026e-20 1.54465e-20
2742.21 4.23758e-19 4.23758e-19 4.54072e-30 1.07154e-11 -1.98998e-07 1.27097e-20 1.16895e-20
2882.96 3.88753e-19 3.88753e-19 3.71692e-30 9.56114e-12 -4.08675e-08 9.59937e-21 8.83275e-21
3030.95 3.56203e-19 3.56203e-19 3.04174e-30 8.53934e-12 -6.71623e-08 7.23917e-21 6.66388e-21
3186.53 3.26014e-19 3.26014e-19 2.48987e-30 7.63731e-12 -4.53478e-07 5.4517e-21 5.02049e-21
3350.09 2.98042e-19 2.98042e-19 2.0385e-30 6.83965e-12 -1.29897e-07 4.09981e-21 3.77699e-21
3522.05 2.72127e-19 2.72127e-19 1.66852e-30 6.1314e-12 -8.11357e-09 3.07851e-21 2.83714e-21
3702.84 2.48146e-19 2.48146e-19 1.36531e-30 5.50203e-12 -1.59983e-07 2.3081e-21 2.12787e-21
