# 0.00533964 1 114 : grain size, compostion index, size index
# Heating and cooling timescale: 1.28449e-07 inf
# Ratio of heating to cooling to determine stochastic cutoff: 100
# Equilibrium emission is recorded even for those grains in the stochastic regime.
# Emission spectrum was computed for: 
# Type: IRSF
# Scales: 0.5 1 2 5 10
StochasticallyHeated: 0 0 0 0 0
# Temperature: -1
# Wavelength  CExt  CAbs  CSca  Albedo G EqEm1 StEm1 EqEm2 StEm2 EqEm3 StEm3 EqEm4 StEm4 EqEm5 StEm5
0.05 0.000179616 6.35052e-05 0.000116111 0.64644 0.853861 0 0 0 0 0 0 0 0 0 0
0.0525665 0.000179636 6.24722e-05 0.000117164 0.65223 0.841362 0 0 0 0 0 0 0 0 0 0
0.0552647 0.000179657 6.16902e-05 0.000117967 0.656623 0.830984 0 0 0 0 0 0 0 0 0 0
0.0581015 0.000179678 6.13364e-05 0.000118342 0.658632 0.824615 0 0 0 0 0 0 0 0 0 0
0.0610839 0.000179699 6.04673e-05 0.000119232 0.663509 0.815841 0 0 0 0 0 0 0 0 0 0
0.0642193 0.000179724 5.8299e-05 0.000121425 0.675619 0.797538 0 0 0 0 0 0 0 0 0 0
0.0675157 0.000179751 5.61433e-05 0.000123608 0.687661 0.777546 0 0 0 0 0 0 0 0 0 0
0.0709813 0.000179781 5.59251e-05 0.000123856 0.688926 0.77042 0 0 0 0 0 0 0 0 0 0
0.0746248 0.00017981 5.67734e-05 0.000123036 0.684258 0.771774 0 0 0 0 0 0 0 0 0 0
0.0784553 0.000179839 5.79566e-05 0.000121882 0.67773 0.776683 0 0 0 0 0 0 0 0 0 0
0.0824824 0.000179867 5.93083e-05 0.000120559 0.670267 0.78257 0 0 0 0 0 0 0 0 0 0
0.0867162 0.000179898 5.96223e-05 0.000120276 0.668577 0.781444 0 0 0 0 0 0 0 0 0 0
0.0911674 0.00017993 5.9343e-05 0.000120587 0.670189 0.77629 0 0 0 0 0 0 0 0 0 0
0.095847 0.000179964 5.95912e-05 0.000120373 0.668872 0.774541 0 0 0 0 0 0 0 0 0 0
0.100767 0.000179993 6.16847e-05 0.000118308 0.657294 0.786022 0 0 0 0 0 0 0 0 0 0
0.105939 0.000180017 6.37918e-05 0.000116225 0.645635 0.800694 0 0 0 0 0 0 0 0 0 0
0.111377 0.000180033 6.76378e-05 0.000112395 0.624304 0.828745 0 0 0 0 0 0 0 0 0 0
0.117094 0.000180046 7.16098e-05 0.000108436 0.602269 0.86111 0 0 0 0 0 0 0 0 0 0
0.123105 0.000180067 7.41705e-05 0.000105896 0.588094 0.883766 0 0 0 0 0 0 0 0 0 0
0.129424 0.000180092 7.63423e-05 0.000103749 0.576092 0.903758 0 0 0 0 0 0 0 0 0 0
0.136067 0.000180117 7.80764e-05 0.000102041 0.566525 0.919976 0 0 0 0 0 0 0 0 0 0
0.143051 0.000180141 7.94215e-05 0.000100719 0.559114 0.932634 0 0 0 0 0 0 0 0 0 0
0.150394 0.000180158 8.01878e-05 9.997e-05 0.554902 0.940794 0 0 0 0 0 0 0 0 0 0
0.158114 0.000180175 7.99234e-05 0.000100251 0.556412 0.941679 0 0 0 0 0 0 0 0 0 0
0.16623 0.000180205 7.80411e-05 0.000102164 0.566931 0.930858 0 0 0 0 0 0 0 0 0 0
0.174762 0.000180253 7.43075e-05 0.000105946 0.58776 0.904306 0 0 0 0 0 0 0 0 0 0
0.183733 0.00018031 6.95937e-05 0.000110716 0.614033 0.868439 0 0 0 0 0 0 0 0 0 0
0.193164 0.000180372 6.46917e-05 0.00011568 0.641343 0.831523 0 0 0 0 0 0 0 0 0 0
0.203079 0.000180438 6.04296e-05 0.000120008 0.665094 0.80101 0 0 0 0 0 0 0 0 0 0
0.213503 0.000180508 5.67694e-05 0.000123738 0.685502 0.776173 0 0 0 0 0 0 0 0 0 0
0.224463 0.000180587 5.43248e-05 0.000126262 0.699176 0.758982 0 0 0 0 0 0 0 0 0 0
0.235984 0.000180672 5.29322e-05 0.000127739 0.707025 0.747392 0 0 0 0 0 0 0 0 0 0
0.248097 0.000180762 5.31551e-05 0.000127607 0.705939 0.743611 0 0 0 0 0 0 0 0 0 0
0.260832 0.000180845 5.44236e-05 0.000126421 0.699059 0.745757 0 0 0 0 0 0 0 0 0 0
0.274221 0.000180916 5.59698e-05 0.000124946 0.69063 0.749989 0 0 0 0 0 0 0 0 0 0
0.288297 0.000180963 5.80283e-05 0.000122934 0.679335 0.759487 0 0 0 0 0 0 0 0 0 0
0.303095 0.00018101 5.944e-05 0.00012157 0.67162 0.766717 0 0 0 0 0 0 0 0 0 0
0.318653 0.000181058 6.05898e-05 0.000120468 0.665357 0.773072 0 0 0 0 0 0 0 0 0 0
0.335009 0.00018111 6.14995e-05 0.00011961 0.660429 0.778528 0 0 0 0 0 0 0 0 0 0
0.352205 0.000181167 6.21223e-05 0.000119045 0.6571 0.782372 0 0 0 0 0 0 0 0 0 0
0.370284 0.00018123 6.25208e-05 0.000118709 0.65502 0.784738 0 0 0 0 0 0 0 0 0 0
0.389291 0.000181298 6.2724e-05 0.000118574 0.654028 0.785639 0 0 0 0 0 0 0 0 0 0
0.409273 0.000181367 6.28699e-05 0.000118497 0.653356 0.786172 0 0 0 0 0 0 0 0 0 0
0.430281 0.00018144 6.29896e-05 0.00011845 0.652834 0.786543 0 0 0 0 0 0 0 0 0 0
0.452368 0.000181514 6.31108e-05 0.000118404 0.65231 0.787101 0 0 0 0 0 0 0 0 0 0
0.475588 0.000181593 6.32167e-05 0.000118376 0.651877 0.787601 0 0 0 0 0 0 0 0 0 0
0.5 0.000181675 6.32803e-05 0.000118395 0.651685 0.787837 0 0 0 0 0 0 0 0 0 0
0.525665 0.000181762 6.33159e-05 0.000118446 0.651656 0.787908 0 0 0 0 0 0 0 0 0 0
0.552647 0.000181852 6.33363e-05 0.000118515 0.651714 0.787859 0 0 0 0 0 0 0 0 0 0
0.581015 0.000181949 6.32473e-05 0.000118701 0.652389 0.787004 0 0 0 0 0 0 0 0 0 0
0.610839 0.000182048 6.31534e-05 0.000118895 0.653095 0.786109 0 0 0 0 0 0 0 0 0 0
0.642193 0.000182152 6.30541e-05 0.000119098 0.653838 0.785173 0 0 0 0 0 0 0 0 0 0
0.675157 0.00018226 6.29127e-05 0.000119347 0.654819 0.783918 0 0 0 0 0 0 0 0 0 0
0.709813 0.000182374 6.27327e-05 0.000119641 0.656022 0.782365 0 0 0 0 0 0 0 0 0 0
0.746248 0.000182492 6.25342e-05 0.000119957 0.657331 0.780655 0 0 0 0 0 0 0 0 0 0
0.784553 0.000182613 6.23295e-05 0.000120284 0.658681 0.778905 0 0 0 0 0 0 0 0 0 0
0.824824 0.000182741 6.212e-05 0.00012062 0.660064 0.777106 0 0 0 0 0 0 0 0 0 0
0.867162 0.000182871 6.19055e-05 0.000120965 0.66148 0.775262 0 0 0 0 0 0 0 0 0 0
0.911674 0.000183006 6.16905e-05 0.000121315 0.662904 0.77341 0 0 0 0 0 0 0 0 0 0
0.95847 0.000183144 6.14863e-05 0.000121658 0.664275 0.771611 0 0 0 0 0 0 0 0 0 0
1.00767 0.000183287 6.12807e-05 0.000122007 0.665658 0.769804 0 0 0 0 0 0 0 0 0 0
1.05939 0.000183434 6.10939e-05 0.00012234 0.666943 0.768106 0 0 0 0 0 0 0 0 0 0
1.11377 0.000183585 6.09011e-05 0.000122684 0.668267 0.766371 0 0 0 0 0 0 0 0 0 0
1.17094 0.000183741 6.07243e-05 0.000123016 0.669511 0.76474 0 0 0 0 0 0 0 0 0 0
1.23105 0.000183901 6.05486e-05 0.000123352 0.670754 0.763117 0 0 0 0 0 0 0 0 0 0
1.29424 0.000184067 6.03533e-05 0.000123713 0.672112 0.761363 0 0 0 0 0 0 0 0 0 0
1.36067 0.000184237 6.01659e-05 0.000124071 0.673432 0.759657 0 0 0 0 0 0 0 0 0 0
1.43051 0.000184411 5.99915e-05 0.000124419 0.674686 0.758033 0 0 0 0 0 0 0 0 0 0
1.50394 0.00018459 5.98254e-05 0.000124765 0.675902 0.756457 0 0 0 0 0 0 0 0 0 0
1.58114 0.000184775 5.96518e-05 0.000125123 0.677166 0.754837 0 0 0 0 0 0 0 0 0 0
1.6623 0.000184967 5.94612e-05 0.000125506 0.678531 0.753116 0 0 0 0 0 0 0 0 0 0
1.74762 0.000185164 5.92678e-05 0.000125896 0.679916 0.751375 0 0 0 0 0 0 0 0 0 0
1.83733 0.000185364 5.90828e-05 0.000126281 0.68126 0.749688 0 0 0 0 0 0 0 0 0 0
1.93164 0.000185569 5.88986e-05 0.000126671 0.682606 0.748009 0 0 0 0 0 0 0 0 0 0
2.03079 0.000185781 5.87138e-05 0.000127067 0.683962 0.746334 0 0 0 0 0 0 0 0 0 0
2.13503 0.000185997 5.85172e-05 0.00012748 0.685386 0.744585 0 0 0 0 0 0 0 0 0 0
2.24463 0.000186217 5.83236e-05 0.000127894 0.686798 0.742869 0 0 0 0 0 0 0 0 0 0
2.35984 0.000186443 5.8137e-05 0.000128306 0.688179 0.741192 0 0 0 0 0 0 0 0 0 0
2.48097 0.000186674 5.79533e-05 0.000128721 0.689548 0.739548 0 0 0 0 0 0 0 0 0 0
2.60832 0.000186912 5.77443e-05 0.000129167 0.691061 0.737764 0 0 0 0 0 0 0 0 0 0
2.74221 0.000187151 5.75273e-05 0.000129624 0.692616 0.735948 0 0 0 0 0 0 0 0 0 0
2.88297 0.000187394 5.73288e-05 0.000130065 0.694073 0.734249 0 0 0 0 0 0 0 0 0 0
3.03095 0.00018764 5.71258e-05 0.000130514 0.695556 0.732542 0 0 0 0 0 0 0 0 0 0
3.18653 0.000187895 5.69163e-05 0.000130978 0.697084 0.730816 0 0 0 0 0 0 0 0 0 0
3.35009 0.000188144 5.67043e-05 0.000131439 0.698611 0.729078 0 0 0 0 0 0 0 0 0 0
3.52205 0.000188391 5.64955e-05 0.000131895 0.700115 0.72737 0 0 0 0 0 0 0 0 0 0
3.70284 0.000188659 5.62878e-05 0.000132371 0.701643 0.725707 0 0 0 0 0 0 0 0 0 0
3.89291 0.000188936 5.60863e-05 0.00013285 0.703147 0.724098 0 0 0 0 0 0 0 0 0 0
4.09273 0.000189183 5.58677e-05 0.000133315 0.70469 0.72239 0 0 0 0 0 0 0 0 0 0
4.30281 0.000189501 5.56456e-05 0.000133855 0.706357 0.720764 0 0 0 0 0 0 0 0 0 0
4.52368 0.000189734 5.54203e-05 0.000134313 0.707905 0.719043 0 0 0 0 0 0 0 0 0 0
4.75588 0.000190054 5.5193e-05 0.000134861 0.709594 0.717427 0 0 0 0 0 0 0 0 0 0
5 0.000190303 5.49614e-05 0.000135342 0.71119 0.715739 0 0 0 0 0 0 0 0 0 0
5.25665 0.000190539 5.47033e-05 0.000135836 0.712903 0.713945 0 0 0 0 0 0 0 0 0 0
5.52648 0.000190893 5.44384e-05 0.000136454 0.714822 0.71226 0 0 0 0 0 0 0 0 0 0
5.81015 0.000191235 5.41865e-05 0.000137049 0.71665 0.710676 0 0 0 0 0 0 0 0 0 0
6.10839 0.000191595 5.39309e-05 0.000137664 0.718516 0.709079 0 0 0 0 0 0 0 0 0 0
6.42193 0.00019183 5.36936e-05 0.000138137 0.720099 0.707456 0 0 0 0 0 0 0 0 0 0
6.75157 0.000192136 5.34375e-05 0.000138699 0.721877 0.705864 0 0 0 0 0 0 0 0 0 0
7.09813 0.000192491 5.3193e-05 0.000139298 0.723659 0.704401 0 0 0 0 0 0 0 0 0 0
7.46248 0.000192828 5.29661e-05 0.000139862 0.725319 0.702961 0 0 0 0 0 0 0 0 0 0
7.84553 0.000193076 5.27482e-05 0.000140328 0.726801 0.70153 0 0 0 0 0 0 0 0 0 0
8.24824 0.000193213 5.25125e-05 0.0001407 0.728214 0.699873 0 0 0 0 0 0 0 0 0 0
8.67162 0.000193313 5.22974e-05 0.000141015 0.729467 0.698338 0 0 0 0 0 0 0 0 0 0
9.11674 0.000193713 5.21053e-05 0.000141608 0.731018 0.697227 0 0 0 0 0 0 0 0 0 0
9.5847 0.000194294 5.19487e-05 0.000142346 0.732629 0.696461 0 0 0 0 0 0 0 0 0 0
10.0767 0.000194541 5.18054e-05 0.000142736 0.733705 0.695398 0 0 0 0 0 0 0 0 0 0
10.5939 0.000194583 5.16652e-05 0.000142918 0.734482 0.694211 0 0 0 0 0 0 0 0 0 0
11.1377 0.000195026 5.15649e-05 0.000143461 0.7356 0.693753 0 0 0 0 0 0 0 0 0 0
11.7094 0.00019536 5.11659e-05 0.000144194 0.738094 0.690855 0 0 0 0 0 0 0 0 0 0
12.3105 0.000195666 5.11497e-05 0.000144517 0.738587 0.691 0 0 0 0 0 0 0 0 0 0
12.9424 0.000196179 5.09486e-05 0.00014523 0.740295 0.690228 0 0 0 0 0 0 0 0 0 0
13.6067 0.000196346 5.07486e-05 0.000145597 0.741535 0.689091 0 0 0 0 0 0 0 0 0 0
14.3051 0.000196734 5.05742e-05 0.00014616 0.742931 0.688295 0 0 0 0 0 0 0 0 0 0
15.0394 0.000197035 5.04152e-05 0.00014662 0.744131 0.687442 0 0 0 0 0 0 0 0 0 0
15.8114 0.000197354 5.02768e-05 0.000147078 0.745246 0.686703 0 0 0 0 0 0 0 0 5.60519e-45 0
16.623 0.000197682 5.01232e-05 0.000147559 0.746446 0.685972 0 0 0 0 0 0 0 0 9.86514e-43 0
17.4762 0.000197969 4.99473e-05 0.000148021 0.747701 0.685166 0 0 0 0 0 0 0 0 1.45543e-40 0
18.3733 0.00019824 4.976e-05 0.00014848 0.748991 0.684388 0 0 0 0 0 0 4.2039e-45 0 1.6612e-38 0
19.3164 0.000198452 4.95048e-05 0.000148947 0.750545 0.683366 0 0 0 0 0 0 8.01543e-43 0 1.48386e-36 0
20.3079 0.000198553 4.90659e-05 0.000149487 0.752883 0.681778 0 0 0 0 0 0 1.14539e-40 0 1.04731e-34 0
21.3503 0.00019853 4.85411e-05 0.000149989 0.755497 0.679727 0 0 0 0 0 0 1.26507e-38 0 5.91819e-33 0
22.4463 0.000198425 4.78717e-05 0.000150553 0.758741 0.676855 0 0 0 0 5.60519e-45 0 1.09304e-36 0 2.70317e-31 0
23.5984 0.000198344 4.69889e-05 0.000151355 0.763094 0.672604 0 0 0 0 9.44475e-43 0 7.46332e-35 0 1.00659e-29 0
24.8097 0.000198444 4.58011e-05 0.000152643 0.7692 0.666275 0 0 0 0 1.25039e-40 0 4.06402e-33 0 3.07901e-28 0
26.0832 0.000198875 4.44868e-05 0.000154388 0.776307 0.65772 0 0 5.60519e-45 0 1.28137e-38 0 1.78989e-31 0 7.83517e-27 0
27.4221 0.000199591 4.31342e-05 0.000156457 0.783887 0.647949 0 0 1.02435e-42 0 1.03151e-36 0 6.45307e-30 0 1.67642e-25 0
28.8297 0.000200674 4.18923e-05 0.000158782 0.791243 0.637377 0 0 1.29184e-40 0 6.6215e-35 0 1.92944e-28 0 3.05148e-24 0
30.3095 0.000201933 4.07136e-05 0.000161219 0.79838 0.626667 8.40779e-45 0 1.26942e-38 0 3.42436e-33 0 4.82426e-27 0 4.75875e-23 0
31.8653 0.000203342 3.97752e-05 0.000163566 0.804392 0.616984 1.21913e-42 0 9.88741e-37 0 1.44841e-31 0 1.02219e-25 0 6.43555e-22 0
33.5009 0.000204844 3.88455e-05 0.000165998 0.810365 0.607567 1.47212e-40 0 6.14105e-35 0 5.03314e-30 0 1.84045e-24 0 7.55953e-21 0
35.2206 0.000206269 3.8207e-05 0.000168062 0.814771 0.599935 1.39715e-38 0 3.0984e-33 0 1.46161e-28 0 2.85958e-23 0 7.82426e-20 0
37.0284 0.000207656 3.7501e-05 0.000170155 0.819408 0.592492 1.04575e-36 0 1.2715e-31 0 3.54667e-27 0 3.82774e-22 0 7.11654e-19 0
38.9291 0.000208866 3.68883e-05 0.000171977 0.823388 0.586145 6.27139e-35 0 4.30512e-30 0 7.28521e-26 0 4.46504e-21 0 5.74818e-18 0
40.9273 0.000209856 3.61949e-05 0.000173661 0.827525 0.579879 3.03205e-33 0 1.20841e-28 0 1.27123e-24 0 4.5485e-20 0 4.12806e-17 0
43.0282 0.000210688 3.55725e-05 0.000175115 0.83116 0.574416 1.19918e-31 0 2.84937e-27 0 1.90715e-23 0 4.0898e-19 0 2.66173e-16 0
45.2368 0.000211222 3.48375e-05 0.000176385 0.835067 0.568671 3.89791e-30 0 5.66303e-26 0 2.46549e-22 0 3.249e-18 0 1.54115e-15 0
47.5588 0.000211759 3.43721e-05 0.000177387 0.837683 0.563737 1.0628e-28 0 9.67053e-25 0 2.79666e-21 0 2.31919e-17 0 8.14284e-15 0
50 0.000212031 3.37329e-05 0.000178298 0.840905 0.558583 2.42135e-27 0 1.41177e-23 0 2.76673e-20 0 1.47686e-16 0 3.89492e-14 0
52.5665 0.000212324 3.33299e-05 0.000178994 0.843023 0.553563 4.70569e-26 0 1.79669e-22 0 2.43184e-19 0 8.53729e-16 0 1.71502e-13 0
55.2648 0.000212596 3.29477e-05 0.000179648 0.845022 0.548617 7.81467e-25 0 1.99471e-21 0 1.89868e-18 0 4.47444e-15 0 6.93824e-13 0
58.1015 0.000212772 3.25686e-05 0.000180203 0.846932 0.543951 1.11702e-23 0 1.94397e-20 0 1.32384e-17 0 2.13536e-14 0 2.5884e-12 0
61.0839 0.000212966 3.23466e-05 0.000180619 0.848114 0.538776 1.39094e-22 0 1.68157e-19 0 8.32791e-17 0 9.36621e-14 0 8.9825e-12 0
64.2193 0.000213125 3.20846e-05 0.00018104 0.849456 0.533051 1.51034e-21 0 1.29118e-18 0 4.72319e-16 0 3.76963e-13 0 2.89315e-11 0
67.5157 0.000213413 3.18474e-05 0.000181566 0.850771 0.528105 1.44243e-20 0 8.86864e-18 0 2.43197e-15 0 1.40066e-12 0 8.69695e-11 0
70.9813 0.0002137 3.18006e-05 0.0001819 0.851191 0.523165 1.22572e-19 0 5.50801e-17 0 1.1483e-14 0 4.84906e-12 0 2.46122e-10 0
74.6248 0.000213781 3.17679e-05 0.000182013 0.8514 0.516509 9.27174e-19 0 3.09212e-16 0 4.96699e-14 0 1.56136e-11 0 6.54222e-10 0
78.4553 0.000214003 3.16612e-05 0.000182342 0.852053 0.509263 6.26169e-18 0 1.57253e-15 0 1.97123e-13 0 4.67963e-11 0 1.63392e-09 0
82.4824 0.000214657 3.17292e-05 0.000182928 0.852186 0.503677 3.82587e-17 0 7.33607e-15 0 7.26379e-13 0 1.32026e-10 0 3.87562e-09 0
86.7162 0.000215276 3.20409e-05 0.000183235 0.851163 0.498723 2.13033e-16 0 3.1603e-14 0 2.50028e-12 0 3.52506e-10 0 8.77387e-09 0
91.1674 0.000215414 3.23446e-05 0.000183069 0.849849 0.49142 1.07773e-15 0 1.2525e-13 0 8.00496e-12 0 8.86347e-10 0 1.88568e-08 0
95.847 0.000215449 3.25134e-05 0.000182935 0.84909 0.481243 4.9573e-15 0 4.56753e-13 0 2.3829e-11 0 2.09673e-09 0 3.84217e-08 0
100.767 0.000216139 3.27706e-05 0.000183369 0.848382 0.471179 2.09697e-14 0 1.54923e-12 0 6.6633e-11 0 4.71185e-09 0 7.49133e-08 0
105.939 0.000217601 3.34253e-05 0.000184176 0.846392 0.464035 8.26772e-14 0 4.95087e-12 0 1.77214e-10 0 1.01789e-08 0 1.41388e-07 0
111.377 0.000219072 3.44226e-05 0.00018465 0.842871 0.458919 3.04361e-13 0 1.49248e-11 0 4.48601e-10 0 2.11432e-08 0 2.58279e-07 0
117.094 0.000219873 3.54556e-05 0.000184418 0.838745 0.452362 1.04025e-12 0 4.21813e-11 0 1.07377e-09 0 4.193e-08 0 4.5329e-07 0
123.105 0.000220018 3.61929e-05 0.000183825 0.8355 0.441035 3.28279e-12 0 1.11101e-10 0 2.41476e-09 0 7.88456e-08 0 7.58845e-07 0
129.424 0.000220118 3.61355e-05 0.000183982 0.835836 0.423847 9.4729e-12 0 2.6995e-10 0 5.0484e-09 0 1.39041e-07 0 1.19814e-06 0
136.067 0.000220957 3.53952e-05 0.000185562 0.839809 0.403378 2.51548e-11 0 6.08681e-10 0 9.86647e-09 0 2.31124e-07 0 1.79283e-06 0
143.051 0.000222401 3.34733e-05 0.000188928 0.849492 0.382398 6.06788e-11 0 1.25674e-09 0 1.77808e-08 0 3.57077e-07 0 2.50622e-06 0
150.394 0.000224235 3.1375e-05 0.00019286 0.86008 0.365265 1.36907e-10 0 2.44552e-09 0 3.04015e-08 0 5.27348e-07 0 3.36541e-06 0
158.114 0.000225203 2.95697e-05 0.000195633 0.868697 0.352003 2.93939e-10 0 4.5612e-09 0 5.01377e-08 0 7.56596e-07 0 4.41069e-06 0
166.23 0.000224584 2.79346e-05 0.000196649 0.875616 0.339598 6.00293e-10 0 8.14786e-09 0 7.96707e-08 0 1.05305e-06 0 5.63265e-06 0
174.763 0.000222011 2.63569e-05 0.000195654 0.881281 0.323306 1.16484e-09 0 1.39201e-08 0 1.21773e-07 0 1.41894e-06 0 6.9932e-06 0
183.733 0.000218277 2.5195e-05 0.000193082 0.884573 0.299414 2.18393e-09 0 2.31215e-08 0 1.81943e-07 0 1.88055e-06 0 8.57403e-06 0
193.164 0.000214406 2.39918e-05 0.000190414 0.888101 0.265218 3.89897e-09 0 3.67869e-08 0 2.61741e-07 0 2.4138e-06 0 1.02198e-05 0
203.079 0.00021169 2.28996e-05 0.00018879 0.891825 0.221631 6.68422e-09 0 5.65201e-08 0 3.65405e-07 0 3.02344e-06 0 1.19306e-05 0
213.503 0.00021099 2.21108e-05 0.000188879 0.895204 0.172361 1.11284e-08 0 8.47848e-08 0 5.00399e-07 0 3.73462e-06 0 1.37825e-05 0
224.463 0.000212312 2.14948e-05 0.000190817 0.898758 0.121489 1.79435e-08 0 1.23805e-07 0 6.7003e-07 0 4.53335e-06 0 1.56983e-05 0
235.984 0.000215279 2.1091e-05 0.000194188 0.902029 0.0726755 2.81438e-08 0 1.76709e-07 0 8.80671e-07 0 5.42777e-06 0 1.76917e-05 0
248.097 0.000219144 2.08932e-05 0.000198251 0.90466 0.0282334 4.30281e-08 0 2.46986e-07 0 1.13809e-06 0 6.4188e-06 0 1.97523e-05 0
260.832 0.000223012 2.09874e-05 0.000202025 0.905891 -0.010857 6.45141e-08 0 3.40035e-07 0 1.45426e-06 0 7.5385e-06 0 2.19639e-05 0
274.221 0.000225765 2.11877e-05 0.000204577 0.906152 -0.0450061 9.41737e-08 0 4.57677e-07 0 1.82339e-06 0 8.72353e-06 0 2.41304e-05 0
288.297 0.000226361 2.13925e-05 0.000204969 0.905494 -0.0748021 1.33394e-07 0 6.00134e-07 0 2.235e-06 0 9.90799e-06 0 2.6088e-05 0
303.095 0.00022387 2.15384e-05 0.000202332 0.903791 -0.100824 1.83075e-07 0 7.65357e-07 0 2.67328e-06 0 1.10228e-05 0 2.7696e-05 0
318.653 0.000217797 2.16063e-05 0.00019619 0.900796 -0.123721 2.43594e-07 0 9.49696e-07 0 3.12094e-06 0 1.20127e-05 0 2.88722e-05 0
335.009 0.000207883 2.14539e-05 0.000186429 0.896798 -0.144181 3.12583e-07 0 1.1404e-06 0 3.53661e-06 0 1.27513e-05 0 2.93834e-05 0
352.206 0.000194397 2.10455e-05 0.000173352 0.89174 -0.162607 3.86597e-07 0 1.32414e-06 0 3.88638e-06 0 1.31693e-05 0 2.91589e-05 0
370.284 0.000178173 2.04459e-05 0.000157727 0.885247 -0.179216 4.62517e-07 0 1.49192e-06 0 4.15552e-06 0 1.3276e-05 0 2.83044e-05 0
389.291 0.000160201 1.96307e-05 0.00014057 0.877462 -0.194391 5.34777e-07 0 1.62936e-06 0 4.31825e-06 0 1.30464e-05 0 2.6837e-05 0
409.273 0.000141574 1.86477e-05 0.000122926 0.868283 -0.208331 5.98882e-07 0 1.72839e-06 0 4.36954e-06 0 1.25205e-05 0 2.48979e-05 0
430.282 0.000123371 1.76081e-05 0.000105763 0.857275 -0.221044 6.53338e-07 0 1.7909e-06 0 4.32921e-06 0 1.1798e-05 0 2.27222e-05 0
452.368 0.000106294 1.65355e-05 8.97587e-05 0.844437 -0.23274 6.95357e-07 0 1.81508e-06 0 4.20511e-06 0 1.09282e-05 0 2.04205e-05 0
475.588 9.07924e-05 1.54686e-05 7.53238e-05 0.829626 -0.243534 7.23913e-07 0 1.80387e-06 0 4.01409e-06 0 9.97339e-06 0 1.81121e-05 0
500 7.70984e-05 1.44447e-05 6.26537e-05 0.812646 -0.253487 7.39367e-07 0 1.76294e-06 0 3.77604e-06 0 8.99169e-06 0 1.58958e-05 0
525.665 6.53414e-05 1.35415e-05 5.17999e-05 0.792758 -0.262454 7.45751e-07 0 1.70535e-06 0 3.52299e-06 0 8.05903e-06 0 1.38903e-05 0
552.648 5.5312e-05 1.27066e-05 4.26054e-05 0.770274 -0.270692 7.41225e-07 0 1.62913e-06 0 3.25232e-06 0 7.1632e-06 0 1.2055e-05 0
581.015 4.68509e-05 1.19428e-05 3.49081e-05 0.745089 -0.278249 7.27096e-07 0 1.53917e-06 0 2.97492e-06 0 6.32211e-06 0 1.0403e-05 0
610.838 3.9783e-05 1.12494e-05 2.85336e-05 0.717231 -0.285155 7.04824e-07 0 1.4399e-06 0 2.69925e-06 0 5.54617e-06 0 8.93528e-06 0
642.193 3.39096e-05 1.06213e-05 2.32883e-05 0.686776 -0.291451 6.75806e-07 0 1.33495e-06 0 2.43127e-06 0 4.83945e-06 0 7.64328e-06 0
675.157 2.90317e-05 1.00513e-05 1.89804e-05 0.653781 -0.297187 6.41343e-07 0 1.2272e-06 0 2.17498e-06 0 4.20182e-06 0 6.51344e-06 0
709.813 2.49983e-05 9.54392e-06 1.54544e-05 0.618218 -0.302329 6.03453e-07 0 1.12051e-06 0 1.93553e-06 0 3.63554e-06 0 5.53766e-06 0
746.247 2.16946e-05 9.1093e-06 1.25853e-05 0.580112 -0.306789 5.64366e-07 0 1.01861e-06 0 1.71744e-06 0 3.14172e-06 0 4.70733e-06 0
784.553 1.89557e-05 8.70966e-06 1.0246e-05 0.540526 -0.310788 5.23135e-07 0 9.19251e-07 0 1.515e-06 0 2.70337e-06 0 3.98843e-06 0
