# 8.9125e-05 0 136 : grain size, compostion index, size index
# Heating and cooling timescale: 0.000269387 1.05941e+07
# Ratio of heating to cooling to determine stochastic cutoff: 100
# Equilibrium emission is recorded even for those grains in the stochastic regime.
# Emission spectrum was computed for: 
# Type: IRSF
# Scales: 0.25 0.5 1 1.5 2 2.5 3 3.5 4 4.5 5 5.5 6 6.5 7 7.5 8 8.5 9 9.5 10
# StochasticallyHeated: 0 0 0 0 0 0 0 0 0 0 0 0 0 0 0 0 0 0 0 0 0
# Temperature: -1
# Wavelength  CExt  CAbs  CSca  Albedo G EqEm1 StEm1 EqEm2 StEm2 EqEm3 StEm3 EqEm4 StEm4 EqEm5 StEm5 EqEm6 StEm6 EqEm7 StEm7 EqEm8 StEm8 EqEm9 StEm9 EqEm10 StEm10 EqEm11 StEm11 EqEm12 StEm12 EqEm13 StEm13 EqEm14 StEm14 EqEm15 StEm15 EqEm16 StEm16 EqEm17 StEm17 EqEm18 StEm18 EqEm19 StEm19 EqEm20 StEm20 EqEm21 StEm21
0.05 1.34238e-08 5.03475e-09 8.38902e-09 0.624938 0.00576547 0 0 0 0 0 0 0 0 0 0 0 0 0 0 0 0 0 0 0 0 0 0 0 0 0 0 0 0 0 0 0 0 0 0 0 0 0 0 0 0 0 0
0.0525665 1.48372e-08 5.56489e-09 9.27234e-09 0.624938 0.00637255 0 0 0 0 0 0 0 0 0 0 0 0 0 0 0 0 0 0 0 0 0 0 0 0 0 0 0 0 0 0 0 0 0 0 0 0 0 0 0 0 0 0
0.0552647 1.63995e-08 6.15084e-09 1.02487e-08 0.624938 0.00704355 0 0 0 0 0 0 0 0 0 0 0 0 0 0 0 0 0 0 0 0 0 0 0 0 0 0 0 0 0 0 0 0 0 0 0 0 0 0 0 0 0 0
0.0581015 1.81263e-08 6.7985e-09 1.13278e-08 0.624938 0.0077852 0 0 0 0 0 0 0 0 0 0 0 0 0 0 0 0 0 0 0 0 0 0 0 0 0 0 0 0 0 0 0 0 0 0 0 0 0 0 0 0 0 0
0.0610839 2.00349e-08 7.51434e-09 1.25206e-08 0.624938 0.00860494 0 0 0 0 0 0 0 0 0 0 0 0 0 0 0 0 0 0 0 0 0 0 0 0 0 0 0 0 0 0 0 0 0 0 0 0 0 0 0 0 0 0
0.0642193 2.21445e-08 8.30557e-09 1.38389e-08 0.624938 0.009511 0 0 0 0 0 0 0 0 0 0 0 0 0 0 0 0 0 0 0 0 0 0 0 0 0 0 0 0 0 0 0 0 0 0 0 0 0 0 0 0 0 0
0.0675157 2.44762e-08 9.1801e-09 1.52961e-08 0.624938 0.0105125 0 0 0 0 0 0 0 0 0 0 0 0 0 0 0 0 0 0 0 0 0 0 0 0 0 0 0 0 0 0 0 0 0 0 0 0 0 0 0 0 0 0
0.0709813 2.70534e-08 1.01467e-08 1.69067e-08 0.624938 0.0116194 0 0 0 0 0 0 0 0 0 0 0 0 0 0 0 0 0 0 0 0 0 0 0 0 0 0 0 0 0 0 0 0 0 0 0 0 0 0 0 0 0 0
0.0746248 2.9902e-08 1.12151e-08 1.86869e-08 0.624938 0.0128428 0 0 0 0 0 0 0 0 0 0 0 0 0 0 0 0 0 0 0 0 0 0 0 0 0 0 0 0 0 0 0 0 0 0 0 0 0 0 0 0 0 0
0.0784553 3.30506e-08 1.2396e-08 2.06545e-08 0.624938 0.0141951 0 0 0 0 0 0 0 0 0 0 0 0 0 0 0 0 0 0 0 0 0 0 0 0 0 0 0 0 0 0 0 0 0 0 0 0 0 0 0 0 0 0
0.0824824 3.65306e-08 1.37013e-08 2.28294e-08 0.624938 0.0156898 0 0 0 0 0 0 0 0 0 0 0 0 0 0 0 0 0 0 0 0 0 0 0 0 0 0 0 0 0 0 0 0 0 0 0 0 0 0 0 0 0 0
0.0867162 4.03771e-08 1.51439e-08 2.52332e-08 0.624938 0.0173419 0 0 0 0 0 0 0 0 0 0 0 0 0 0 0 0 0 0 0 0 0 0 0 0 0 0 0 0 0 0 0 0 0 0 0 0 0 0 0 0 0 0
0.0911674 4.46286e-08 1.67385e-08 2.78901e-08 0.624938 0.0191679 0 0 0 0 0 0 0 0 0 0 0 0 0 0 0 0 0 0 0 0 0 0 0 0 0 0 0 0 0 0 0 0 0 0 0 0 0 0 0 0 0 0
0.095847 4.93278e-08 1.8501e-08 3.08268e-08 0.624937 0.0211862 0 0 0 0 0 0 0 0 0 0 0 0 0 0 0 0 0 0 0 0 0 0 0 0 0 0 0 0 0 0 0 0 0 0 0 0 0 0 0 0 0 0
0.100767 5.36818e-08 2.02912e-08 3.33906e-08 0.62201 0.0235692 0 0 0 0 0 0 0 0 0 0 0 0 0 0 0 0 0 0 0 0 0 0 0 0 0 0 0 0 0 0 0 0 0 0 0 0 0 0 0 0 0 0
0.105939 5.36472e-08 2.11565e-08 3.24908e-08 0.605637 0.0256046 0 0 0 0 0 0 0 0 0 0 0 0 0 0 0 0 0 0 0 0 0 0 0 0 0 0 0 0 0 0 0 0 0 0 0 0 0 0 0 0 0 0
0.111377 5.37142e-08 2.13856e-08 3.23286e-08 0.601863 0.0289403 0 0 0 0 0 0 0 0 0 0 0 0 0 0 0 0 0 0 0 0 0 0 0 0 0 0 0 0 0 0 0 0 0 0 0 0 0 0 0 0 0 0
0.117094 5.36845e-08 2.21169e-08 3.15676e-08 0.588021 0.0274507 0 0 0 0 0 0 0 0 0 0 0 0 0 0 0 0 0 0 0 0 0 0 0 0 0 0 0 0 0 0 0 0 0 0 0 0 0 0 0 0 0 0
0.123105 5.37258e-08 2.2988e-08 3.07378e-08 0.572123 0.0236555 0 0 0 0 0 0 0 0 0 0 0 0 0 0 0 0 0 0 0 0 0 0 0 0 0 0 0 0 0 0 0 0 0 0 0 0 0 0 0 0 0 0
0.129424 5.38133e-08 2.36809e-08 3.01323e-08 0.559943 0.0199126 0 0 0 0 0 0 0 0 0 0 0 0 0 0 0 0 0 0 0 0 0 0 0 0 0 0 0 0 0 0 0 0 0 0 0 0 0 0 0 0 0 0
0.136067 5.39097e-08 2.42486e-08 2.96612e-08 0.550201 0.0168557 0 0 0 0 0 0 0 0 0 0 0 0 0 0 0 0 0 0 0 0 0 0 0 0 0 0 0 0 0 0 0 0 0 0 0 0 0 0 0 0 0 0
0.143051 5.39885e-08 2.47323e-08 2.92562e-08 0.541897 0.0143876 0 0 0 0 0 0 0 0 0 0 0 0 0 0 0 0 0 0 0 0 0 0 0 0 0 0 0 0 0 0 0 0 0 0 0 0 0 0 0 0 0 0
0.150394 5.4021e-08 2.51282e-08 2.88928e-08 0.534845 0.0122986 0 0 0 0 0 0 0 0 0 0 0 0 0 0 0 0 0 0 0 0 0 0 0 0 0 0 0 0 0 0 0 0 0 0 0 0 0 0 0 0 0 0
0.158114 5.39653e-08 2.53711e-08 2.85942e-08 0.529862 0.01055 0 0 0 0 0 0 0 0 0 0 0 0 0 0 0 0 0 0 0 0 0 0 0 0 0 0 0 0 0 0 0 0 0 0 0 0 0 0 0 0 0 0
0.16623 5.38143e-08 2.53314e-08 2.84829e-08 0.529282 0.00908216 0 0 0 0 0 0 0 0 0 0 0 0 0 0 0 0 0 0 0 0 0 0 0 0 0 0 0 0 0 0 0 0 0 0 0 0 0 0 0 0 0 0
0.174762 5.3685e-08 2.49225e-08 2.87625e-08 0.535764 0.00782097 0 0 0 0 0 0 0 0 0 0 0 0 0 0 0 0 0 0 0 0 0 0 0 0 0 0 0 0 0 0 0 0 0 0 0 0 0 0 0 0 0 0
0.183733 5.37557e-08 2.40817e-08 2.9674e-08 0.552017 0.00667218 0 0 0 0 0 0 0 0 0 0 0 0 0 0 0 0 0 0 0 0 0 0 0 0 0 0 0 0 0 0 0 0 0 0 0 0 0 0 0 0 0 0
0.193164 5.41868e-08 2.27671e-08 3.14197e-08 0.57984 0.00556038 0 0 0 0 0 0 0 0 0 0 0 0 0 0 0 0 0 0 0 0 0 0 0 0 0 0 0 0 0 0 0 0 0 0 0 0 0 0 0 0 0 0
0.203079 5.49221e-08 2.12658e-08 3.36562e-08 0.6128 0.00446034 0 0 0 0 0 0 0 0 0 0 0 0 0 0 0 0 0 0 0 0 0 0 0 0 0 0 0 0 0 0 0 0 0 0 0 0 0 0 0 0 0 0
0.213503 5.5826e-08 2.00225e-08 3.58035e-08 0.641341 0.00342932 0 0 0 0 0 0 0 0 0 0 0 0 0 0 0 0 0 0 0 0 0 0 0 0 0 0 0 0 0 0 0 0 0 0 0 0 0 0 0 0 0 0
0.224463 5.67819e-08 1.93106e-08 3.74712e-08 0.659915 0.00254317 0 0 0 0 0 0 0 0 0 0 0 0 0 0 0 0 0 0 0 0 0 0 0 0 0 0 0 0 0 0 0 0 0 0 0 0 0 0 0 0 0 0
0.235984 5.7628e-08 1.9096e-08 3.8532e-08 0.668633 0.00182186 0 0 0 0 0 0 0 0 0 0 0 0 0 0 0 0 0 0 0 0 0 0 0 0 0 0 0 0 0 0 0 0 0 0 0 0 0 0 0 0 0 0
0.248097 5.81548e-08 1.91771e-08 3.89777e-08 0.670241 0.00138916 0 0 0 0 0 0 0 0 0 0 0 0 0 0 0 0 0 0 0 0 0 0 0 0 0 0 0 0 0 0 0 0 0 0 0 0 0 0 0 0 0 0
0.260832 5.82198e-08 1.94499e-08 3.87699e-08 0.665923 0.00141961 0 0 0 0 0 0 0 0 0 0 0 0 0 0 0 0 0 0 0 0 0 0 0 0 0 0 0 0 0 0 0 0 0 0 0 0 0 0 0 0 0 0
0.274221 5.79085e-08 1.99576e-08 3.79508e-08 0.655359 0.00187131 0 0 0 0 0 0 0 0 0 0 0 0 0 0 0 0 0 0 0 0 0 0 0 0 0 0 0 0 0 0 0 0 0 0 0 0 0 0 0 0 0 0
0.288297 5.75438e-08 2.07171e-08 3.68267e-08 0.639976 0.00251556 0 0 0 0 0 0 0 0 0 0 0 0 0 0 0 0 0 0 0 0 0 0 0 0 0 0 0 0 0 0 0 0 0 0 0 0 0 0 0 0 0 0
0.303095 5.73653e-08 2.15711e-08 3.57943e-08 0.62397 0.0028362 0 0 0 0 0 0 0 0 0 0 0 0 0 0 0 0 0 0 0 0 0 0 0 0 0 0 0 0 0 0 0 0 0 0 0 0 0 0 0 0 0 0
0.318653 5.73809e-08 2.2348e-08 3.50329e-08 0.610533 0.00297223 0 0 0 0 0 0 0 0 0 0 0 0 0 0 0 0 0 0 0 0 0 0 0 0 0 0 0 0 0 0 0 0 0 0 0 0 0 0 0 0 0 0
0.335009 5.7518e-08 2.29779e-08 3.45401e-08 0.600509 0.00293231 0 0 0 0 0 0 0 0 0 0 0 0 0 0 0 0 0 0 0 0 0 0 0 0 0 0 0 0 0 0 0 0 0 0 0 0 0 0 0 0 0 0
0.352205 5.77235e-08 2.34594e-08 3.42641e-08 0.59359 0.00278811 0 0 0 0 0 0 0 0 0 0 0 0 0 0 0 0 0 0 0 0 0 0 0 0 0 0 0 0 0 0 0 0 0 0 0 0 0 0 0 0 0 0
0.370284 5.79652e-08 2.38146e-08 3.41506e-08 0.589157 0.00261033 0 0 0 0 0 0 0 0 0 0 0 0 0 0 0 0 0 0 0 0 0 0 0 0 0 0 0 0 0 0 0 0 0 0 0 0 0 0 0 0 0 0
0.389291 5.82263e-08 2.40747e-08 3.41516e-08 0.586532 0.00243645 0 0 0 0 0 0 0 0 0 0 0 0 0 0 0 0 0 0 0 0 0 0 0 0 0 0 0 0 0 0 0 0 0 0 0 0 0 0 0 0 0 0
0.409273 5.84963e-08 2.42748e-08 3.42214e-08 0.585019 0.00226652 0 0 0 0 0 0 0 0 0 0 0 0 0 0 0 0 0 0 0 0 0 0 0 0 0 0 0 0 0 0 0 0 0 0 0 0 0 0 0 0 0 0
0.430281 5.87687e-08 2.44453e-08 3.43235e-08 0.584043 0.00210471 0 0 0 0 0 0 0 0 0 0 0 0 0 0 0 0 0 0 0 0 0 0 0 0 0 0 0 0 0 0 0 0 0 0 0 0 0 0 0 0 0 0
0.452368 5.90384e-08 2.46088e-08 3.44296e-08 0.583173 0.00193723 0 0 0 0 0 0 0 0 0 0 0 0 0 0 0 0 0 0 0 0 0 0 0 0 0 0 0 0 0 0 0 0 0 0 0 0 0 0 0 0 0 0
0.475588 5.93111e-08 2.4779e-08 3.45321e-08 0.58222 0.00177642 0 0 0 0 0 0 0 0 0 0 0 0 0 0 0 0 0 0 0 0 0 0 0 0 0 0 0 0 0 0 0 0 0 0 0 0 0 0 0 0 0 0
0.5 5.95866e-08 2.49599e-08 3.46267e-08 0.581116 0.00162159 0 0 0 0 0 0 0 0 0 0 0 0 0 0 0 0 0 0 0 0 0 0 0 0 0 0 0 0 0 0 0 0 0 0 0 0 0 0 0 0 0 0
0.525665 5.98701e-08 2.51532e-08 3.47169e-08 0.579871 0.0014751 0 0 0 0 0 0 0 0 0 0 0 0 0 0 0 0 0 0 0 0 0 0 0 0 0 0 0 0 0 0 0 0 0 0 0 0 0 0 0 0 0 0
0.552648 6.01642e-08 2.53567e-08 3.48075e-08 0.578541 0.00134175 0 0 0 0 0 0 0 0 0 0 0 0 0 0 0 0 0 0 0 0 0 0 0 0 0 0 0 0 0 0 0 0 0 0 0 0 0 0 0 0 0 0
0.581015 6.04701e-08 2.55629e-08 3.49073e-08 0.577265 0.00121775 0 0 0 0 0 0 0 0 0 0 0 0 0 0 0 0 0 0 0 0 0 0 0 0 0 0 0 0 0 0 0 0 0 0 0 0 0 0 0 0 0 0
0.610839 6.07875e-08 2.57691e-08 3.50184e-08 0.576079 0.00110516 0 0 0 0 0 0 0 0 0 0 0 0 0 0 0 0 0 0 0 0 0 0 0 0 0 0 0 0 0 0 0 0 0 0 0 0 0 0 0 0 0 0
0.642193 6.11198e-08 2.59729e-08 3.51469e-08 0.575049 0.00100302 0 0 0 0 0 0 0 0 0 0 0 0 0 0 0 0 0 0 0 0 0 0 0 0 0 0 0 0 0 0 0 0 0 0 0 0 0 0 0 0 0 0
0.675157 6.14658e-08 2.61717e-08 3.52941e-08 0.574207 0.000910957 0 0 0 0 0 0 0 0 0 0 0 0 0 0 0 0 0 0 0 0 0 0 0 0 0 0 0 0 0 0 0 0 0 0 0 0 0 0 0 0 0 0
0.709813 6.18214e-08 2.63591e-08 3.54623e-08 0.573625 0.00082817 0 0 0 0 0 0 0 0 0 0 0 0 0 0 0 0 0 0 0 0 0 0 0 0 0 0 0 0 0 0 0 0 0 0 0 0 0 0 0 0 0 0
0.746248 6.21909e-08 2.65383e-08 3.56526e-08 0.573277 0.000754183 0 0 0 0 0 0 0 0 0 0 0 0 0 0 0 0 0 0 0 0 0 0 0 0 0 0 0 0 0 0 0 0 0 0 0 0 0 0 0 0 0 0
0.784553 6.25687e-08 2.67074e-08 3.58613e-08 0.573151 0.000686995 0 0 0 0 0 0 0 0 0 0 0 0 0 0 0 0 0 0 0 0 0 0 0 0 0 0 0 0 0 0 0 0 0 0 0 0 0 0 0 0 0 0
0.824824 6.29519e-08 2.68623e-08 3.60896e-08 0.573289 0.000626788 0 0 0 0 0 0 0 0 0 0 0 0 0 0 0 0 0 0 0 0 0 0 0 0 0 0 0 0 0 0 0 0 0 0 0 0 0 0 0 0 0 0
0.867162 6.33484e-08 2.70128e-08 3.63356e-08 0.573584 0.000572518 0 0 0 0 0 0 0 0 0 0 0 0 0 0 0 0 0 0 0 0 0 0 0 0 0 0 0 0 0 0 0 0 0 0 0 0 0 0 0 0 0 0
0.911674 6.37408e-08 2.71482e-08 3.65926e-08 0.574085 0.000523427 0 0 0 0 0 0 0 0 0 0 0 0 0 0 0 0 0 0 0 0 0 0 0 0 0 0 0 0 0 0 0 0 0 0 0 0 0 0 0 0 0 0
0.95847 6.41356e-08 2.72701e-08 3.68655e-08 0.574805 0.00047944 0 0 0 0 0 0 0 0 0 0 0 0 0 0 0 0 0 0 0 0 0 0 0 0 0 0 0 0 0 0 0 0 0 0 0 0 0 0 0 0 0 0
1.00767 6.45408e-08 2.7395e-08 3.71459e-08 0.57554 0.0004395 0 0 0 0 0 0 0 0 0 0 0 0 0 0 0 0 0 0 0 0 0 0 0 0 0 0 0 0 0 0 0 0 0 0 0 0 0 0 0 0 0 0
1.05939 6.49325e-08 2.75061e-08 3.74263e-08 0.576389 0.000403275 0 0 0 0 0 0 0 0 0 0 0 0 0 0 0 0 0 0 0 0 0 0 0 0 0 0 0 0 0 0 0 0 0 0 0 0 0 0 0 0 0 0
1.11377 6.53183e-08 2.75983e-08 3.772e-08 0.577479 0.000370298 0 0 0 0 0 0 0 0 0 0 0 0 0 0 0 0 0 0 0 0 0 0 0 0 0 0 0 0 0 0 0 0 0 0 0 0 0 0 0 0 0 0
1.17094 6.57248e-08 2.77039e-08 3.80209e-08 0.578486 0.000339515 0 0 0 0 0 0 0 0 0 0 0 0 0 0 0 0 0 0 0 0 0 0 0 0 0 0 0 0 0 0 0 0 0 0 0 0 0 0 0 0 0 0
1.23105 6.61218e-08 2.78164e-08 3.83053e-08 0.579315 0.000311294 0 0 0 0 0 0 0 0 0 0 0 0 0 0 0 0 0 0 0 0 0 0 0 0 0 0 0 0 0 0 0 0 0 0 0 0 0 0 0 0 0 0
1.29424 6.64747e-08 2.78959e-08 3.85788e-08 0.580353 0.000285362 0 0 0 0 0 0 0 0 0 0 0 0 0 0 0 0 0 0 0 0 0 0 0 0 0 0 0 0 0 0 0 0 0 0 0 0 0 0 0 0 0 0
1.36067 6.68319e-08 2.79612e-08 3.88707e-08 0.581619 0.000261742 0 0 0 0 0 0 0 0 0 0 0 0 0 0 0 0 0 0 0 0 0 0 0 0 0 0 0 0 0 0 0 0 0 0 0 0 0 0 0 0 0 0
1.43051 6.72387e-08 2.80655e-08 3.91732e-08 0.582599 0.000240209 0 0 0 0 0 0 0 0 0 0 0 0 0 0 0 0 0 0 0 0 0 0 0 0 0 0 0 0 0 0 0 0 0 0 0 0 0 0 0 0 0 0
1.50394 6.76436e-08 2.82018e-08 3.94418e-08 0.583082 0.000220279 0 0 0 0 0 0 0 0 0 0 0 0 0 0 0 0 0 0 0 0 0 0 0 0 0 0 0 0 0 0 0 0 0 0 0 0 0 0 0 0 0 0
1.58114 6.79641e-08 2.83016e-08 3.96626e-08 0.583581 0.000201732 0 0 0 0 0 0 0 0 0 0 0 0 0 0 0 0 0 0 0 0 0 0 0 0 0 0 0 0 0 0 0 0 0 0 0 0 0 0 0 0 0 0
1.6623 6.82327e-08 2.83469e-08 3.98857e-08 0.584555 0.000184534 0 0 0 0 0 0 0 0 0 0 0 0 0 0 0 0 0 0 0 0 0 0 0 0 0 0 0 0 0 0 0 0 0 0 0 0 0 0 0 0 0 0
1.74763 6.85606e-08 2.84031e-08 4.01575e-08 0.585723 0.000169005 0 0 0 0 0 0 0 0 0 0 0 0 0 0 0 0 0 0 0 0 0 0 0 0 0 0 0 0 0 0 0 0 0 0 0 0 0 0 0 0 0 0
1.83733 6.89978e-08 2.85436e-08 4.04543e-08 0.586312 0.000154804 0 0 0 0 0 0 0 0 0 0 0 0 0 0 0 0 0 0 0 0 0 0 0 0 0 0 0 0 0 0 0 0 0 0 0 0 0 0 0 0 0 0
1.93164 6.94532e-08 2.87545e-08 4.06988e-08 0.585988 0.000141793 0 0 0 0 0 0 0 0 0 0 0 0 0 0 0 0 0 0 0 0 0 0 0 0 0 0 0 0 0 0 0 0 0 0 0 0 0 0 0 0 0 0
2.03079 6.97882e-08 2.89509e-08 4.08373e-08 0.58516 0.000129725 0 0 0 0 0 0 0 0 0 0 0 0 0 0 0 0 0 0 0 0 0 0 0 0 0 0 0 0 0 0 0 0 0 0 0 0 0 0 0 0 0 0
2.13503 6.99523e-08 2.90542e-08 4.08981e-08 0.584657 0.000118657 0 0 0 0 0 0 0 0 0 0 0 0 0 0 0 0 0 0 0 0 0 0 0 0 0 0 0 0 0 0 0 0 0 0 0 0 0 0 0 0 0 0
2.24463 7.00579e-08 2.90783e-08 4.09796e-08 0.584939 0.000108569 0 0 0 0 0 0 0 0 0 0 0 0 0 0 0 0 0 0 0 0 0 0 0 0 0 0 0 0 0 0 0 0 0 0 0 0 0 0 0 0 0 0
2.35984 7.02817e-08 2.91126e-08 4.1169e-08 0.585772 9.92926e-05 0 0 0 0 0 0 0 0 0 0 0 0 0 0 0 0 0 0 0 0 0 0 0 0 0 0 0 0 0 0 0 0 0 0 0 0 0 0 0 0 0 0
2.48097 7.07284e-08 2.92616e-08 4.14669e-08 0.586283 9.07218e-05 0 0 0 0 0 0 0 0 0 0 0 0 0 0 0 0 0 0 0 0 0 0 0 0 0 0 0 0 0 0 0 0 0 0 0 0 0 0 0 0 0 0
2.60832 7.13536e-08 2.95606e-08 4.1793e-08 0.585717 8.27967e-05 0 0 0 0 0 0 0 0 0 0 0 0 0 0 0 0 0 0 0 0 0 0 0 0 0 0 0 0 0 0 0 0 0 0 0 0 0 0 0 0 0 0
2.74221 7.1981e-08 2.9966e-08 4.2015e-08 0.583695 7.55862e-05 0 0 0 0 0 0 0 0 0 0 0 0 0 0 0 0 0 0 0 0 0 0 0 0 0 0 0 0 0 0 0 0 0 0 0 0 0 0 0 0 0 0
2.88297 7.24084e-08 3.03748e-08 4.20336e-08 0.580507 6.90729e-05 0 0 0 0 0 0 0 0 0 0 0 0 0 0 0 0 0 0 0 0 0 0 0 0 0 0 0 0 0 0 0 0 0 0 0 0 0 0 0 0 0 0
3.03095 7.25024e-08 3.06785e-08 4.18239e-08 0.576862 6.31538e-05 0 0 0 0 0 0 0 0 0 0 0 0 0 0 0 0 0 0 0 0 0 0 0 0 0 0 0 0 0 0 0 0 0 0 0 0 0 0 0 0 0 0
3.18653 7.22721e-08 3.08172e-08 4.14549e-08 0.573595 5.76567e-05 0 0 0 0 0 0 0 0 0 0 0 0 0 0 0 0 0 0 0 0 0 0 0 0 0 0 0 0 0 0 0 0 0 0 0 0 0 0 0 0 0 0
3.35009 7.18813e-08 3.08075e-08 4.10738e-08 0.571411 5.2603e-05 0 0 0 0 0 0 0 0 0 0 0 0 0 0 0 0 0 0 0 0 0 0 0 0 0 0 0 0 0 0 0 0 0 0 0 0 0 0 0 0 0 0
3.52205 7.15686e-08 3.07369e-08 4.08316e-08 0.570525 4.80102e-05 0 0 0 0 0 0 0 0 0 0 0 0 0 0 0 0 0 0 0 0 0 0 0 0 0 0 0 0 0 0 0 0 0 0 0 0 0 0 0 0 0 0
3.70284 7.15397e-08 3.07165e-08 4.08232e-08 0.570637 4.38066e-05 0 0 0 0 0 0 0 0 0 0 0 0 0 0 0 0 0 0 0 0 0 0 0 0 0 0 0 0 0 0 0 0 0 0 0 0 0 0 0 0 0 0
3.89291 7.18834e-08 3.08427e-08 4.10408e-08 0.570935 3.9926e-05 0 0 0 0 0 0 0 0 0 0 0 0 0 0 0 0 0 0 0 0 0 0 0 0 0 0 0 0 0 0 0 0 0 0 0 0 0 0 0 0 0 0
4.09273 7.25618e-08 3.11717e-08 4.13902e-08 0.570412 3.62643e-05 0 0 0 0 0 0 0 0 0 0 0 0 0 0 0 0 0 0 0 0 0 0 0 0 0 0 0 0 0 0 0 0 0 0 0 0 0 0 0 0 0 0
4.30281 7.34105e-08 3.17043e-08 4.17062e-08 0.568123 3.29535e-05 0 0 0 0 0 0 0 0 0 0 0 0 0 0 0 0 0 0 0 0 0 0 0 0 0 0 0 0 0 0 0 0 0 0 0 0 0 0 0 0 0 0
4.52368 7.4233e-08 3.24149e-08 4.18181e-08 0.563336 2.99416e-05 0 0 0 0 0 0 0 0 0 0 0 0 0 0 0 0 0 0 0 0 0 0 0 0 0 0 0 0 0 0 0 0 0 0 0 0 0 0 0 0 0 0
4.75588 7.48369e-08 3.32567e-08 4.15802e-08 0.555611 2.71796e-05 0 0 0 0 0 0 0 0 0 0 0 0 0 0 0 0 0 0 0 0 0 0 0 0 0 0 0 0 0 0 0 0 0 0 0 0 0 0 0 0 0 0
5 7.51141e-08 3.41851e-08 4.0929e-08 0.544891 2.45398e-05 0 0 0 0 0 0 0 0 0 0 0 0 0 0 0 0 0 0 0 0 0 0 0 0 0 0 0 0 0 0 0 0 0 0 0 0 0 0 0 0 0 0
5.25665 7.50501e-08 3.51716e-08 3.98785e-08 0.531359 2.21678e-05 0 0 0 0 0 0 0 0 0 0 0 0 0 0 0 0 0 0 0 0 0 0 0 0 0 0 0 0 0 0 0 0 0 0 0 0 0 0 0 0 0 0
5.52648 7.47171e-08 3.61823e-08 3.85347e-08 0.515742 2.00489e-05 0 0 0 0 0 0 0 0 0 0 0 0 0 0 0 0 0 0 0 0 0 0 0 0 0 0 0 0 0 0 0 0 0 0 0 0 0 0 0 0 0 0
5.81015 7.41986e-08 3.71587e-08 3.70399e-08 0.499199 1.8115e-05 0 0 0 0 0 0 0 0 0 0 0 0 0 0 0 0 0 0 0 0 0 0 0 0 0 0 0 0 0 0 0 0 0 0 0 0 0 0 0 0 0 0
6.10839 7.34304e-08 3.79355e-08 3.54949e-08 0.483381 1.63023e-05 0 0 0 0 0 0 0 0 0 0 0 0 0 0 0 0 0 0 0 0 0 0 0 0 0 0 0 0 0 0 0 0 0 0 1.4013e-45 0 2.8026e-45 0 9.80909e-45 0 2.52234e-44 0
6.42193 7.25933e-08 3.86323e-08 3.3961e-08 0.467826 1.48144e-05 0 0 0 0 0 0 0 0 0 0 0 0 0 0 0 0 0 0 0 0 0 0 0 0 0 0 1.4013e-45 0 5.60519e-45 0 1.96182e-44 0 6.5861e-44 0 2.0459e-43 0 5.92749e-43 0 1.59188e-42 0 4.07778e-42 0
6.75157 7.05684e-08 3.83404e-08 3.2228e-08 0.456691 1.32279e-05 0 0 0 0 0 0 0 0 0 0 0 0 0 0 0 0 0 0 0 0 1.4013e-45 0 9.80909e-45 0 4.76441e-44 0 2.10195e-43 0 8.33773e-43 0 3.017e-42 0 9.72081e-42 0 2.88724e-41 0 7.94046e-41 0 2.02984e-40 0 4.96821e-40 0
7.09813 6.75054e-08 3.74594e-08 3.0046e-08 0.44509 1.18448e-05 0 0 0 0 0 0 0 0 0 0 0 0 0 0 0 0 4.2039e-45 0 3.50325e-44 0 2.49431e-43 0 1.47136e-42 0 7.05554e-42 0 2.87701e-41 0 1.06762e-40 0 3.62659e-40 0 1.10355e-39 0 3.10813e-39 0 8.13584e-39 0 1.98662e-38 0 4.65452e-38 0
7.46248 6.33746e-08 3.60975e-08 2.7277e-08 0.43041 1.05694e-05 0 0 0 0 0 0 0 0 0 0 0 0 2.8026e-45 0 5.04467e-44 0 5.99756e-43 0 5.07971e-42 0 3.29824e-41 0 1.78294e-40 0 7.91802e-40 0 3.01459e-39 0 1.04932e-38 0 3.35784e-38 0 9.67738e-38 0 2.59124e-37 0 6.47153e-37 0 1.51283e-36 0 3.40014e-36 0
7.84553 5.87373e-08 3.47417e-08 2.39956e-08 0.408524 9.34187e-06 0 0 0 0 0 0 0 0 0 0 1.54143e-44 0 4.51218e-43 0 7.16484e-42 0 7.47607e-41 0 5.70491e-40 0 3.38098e-39 0 1.68315e-38 0 6.95007e-38 0 2.47886e-37 0 8.11871e-37 0 2.45456e-36 0 6.71781e-36 0 1.71432e-35 0 4.09434e-35 0 9.18254e-35 0 1.98379e-34 0
8.24824 5.43988e-08 3.38821e-08 2.05167e-08 0.377153 8.19911e-06 0 0 0 0 0 0 0 0 3.92364e-44 0 2.2631e-42 0 5.69656e-41 0 7.90579e-40 0 7.35728e-39 0 5.08391e-38 0 2.76224e-37 0 1.27147e-36 0 4.89897e-36 0 1.64212e-35 0 5.07554e-35 0 1.45382e-34 0 3.78805e-34 0 9.23454e-34 0 2.11372e-33 0 4.55721e-33 0 9.482e-33 0
8.67162 5.08354e-08 3.36781e-08 1.71573e-08 0.337507 7.20916e-06 0 0 0 0 0 0 3.08286e-44 0 5.70328e-42 0 2.65595e-40 0 5.71265e-39 0 6.97261e-38 0 5.81926e-37 0 3.659e-36 0 1.83036e-35 0 7.82004e-35 0 2.82102e-34 0 8.91372e-34 0 2.60741e-33 0 7.09452e-33 0 1.7641e-32 0 4.11744e-32 0 9.05108e-32 0 1.87959e-31 0 3.77335e-31 0
9.11674 4.7906e-08 3.37976e-08 1.41084e-08 0.294502 6.32492e-06 0 0 0 0 2.8026e-45 0 4.50517e-42 0 6.38105e-40 0 2.46334e-38 0 4.56119e-37 0 4.92703e-36 0 3.70739e-35 0 2.13096e-34 0 9.85405e-34 0 3.92188e-33 0 1.32888e-32 0 3.96958e-32 0 1.10188e-31 0 2.85513e-31 0 6.79062e-31 0 1.5207e-30 0 3.21673e-30 0 6.44586e-30 0 1.25074e-29 0
9.5847 4.49288e-08 3.34981e-08 1.14307e-08 0.254418 5.52644e-06 0 0 0 0 4.56823e-43 0 4.97467e-40 0 5.53323e-38 0 1.78709e-36 0 2.86953e-35 0 2.75968e-34 0 1.88169e-33 0 9.93056e-33 0 4.2613e-32 0 1.58538e-31 0 5.06116e-31 0 1.43319e-30 0 3.78483e-30 0 9.36155e-30 0 2.13432e-29 0 4.59513e-29 0 9.37096e-29 0 1.81515e-28 0 3.40992e-28 0
10.0767 4.10901e-08 3.19707e-08 9.1194e-09 0.221937 4.78203e-06 0 0 0 0 5.36781e-41 0 4.15172e-38 0 3.66892e-36 0 1.00005e-34 0 1.40224e-33 0 1.20746e-32 0 7.49649e-32 0 3.64764e-31 0 1.45779e-30 0 5.08661e-30 0 1.53438e-29 0 4.12966e-29 0 1.04008e-28 0 2.4613e-28 0 5.39017e-28 0 1.11784e-27 0 2.20169e-27 0 4.1292e-27 0 7.5219e-27 0
10.5939 3.60693e-08 2.89053e-08 7.16398e-09 0.198617 4.06995e-06 0 0 3.36312e-44 0 4.66307e-39 0 2.6066e-36 0 1.8508e-34 0 4.29295e-33 0 5.29132e-32 0 4.10169e-31 0 2.32933e-30 0 1.04914e-29 0 3.91871e-29 0 1.2864e-28 0 3.67679e-28 0 9.42884e-28 0 2.26999e-27 0 5.1506e-27 0 1.08561e-26 0 2.17263e-26 0 4.13989e-26 0 7.52946e-26 0 1.33201e-25 0
11.1377 3.01306e-08 2.45794e-08 5.55112e-09 0.184235 3.40803e-06 0 0 3.80453e-42 0 3.01165e-37 0 1.23614e-34 0 7.12795e-33 0 1.41807e-31 0 1.54614e-30 0 1.08448e-29 0 5.65803e-29 0 2.36787e-28 0 8.29321e-28 0 2.56893e-27 0 6.97552e-27 0 1.70843e-26 0 3.94034e-26 0 8.59001e-26 0 1.74582e-25 0 3.37754e-25 0 6.23638e-25 0 1.1016e-24 0 1.89528e-24 0
11.7094 2.6275e-08 2.18421e-08 4.43293e-09 0.168713 2.82232e-06 2.8026e-45 0 3.56127e-40 0 1.62533e-35 0 4.97297e-33 0 2.35255e-31 0 4.04448e-30 0 3.92425e-29 0 2.5028e-28 0 1.20459e-27 0 4.70088e-27 0 1.5487e-26 0 4.53965e-26 0 1.17399e-25 0 2.75228e-25 0 6.09408e-25 0 1.27892e-24 0 2.5108e-24 0 4.70348e-24 0 8.42845e-24 0 1.44802e-23 0 2.42616e-23 0
12.3105 2.03128e-08 1.69244e-08 3.3884e-09 0.166811 2.20615e-06 2.46629e-43 0 2.28744e-38 0 6.183e-34 0 1.43058e-31 0 5.60607e-30 0 8.38819e-29 0 7.28414e-28 0 4.24386e-27 0 1.89172e-26 0 6.90756e-26 0 2.14699e-25 0 5.9715e-25 0 1.47428e-24 0 3.31543e-24 0 7.06157e-24 0 1.42928e-23 0 2.71508e-23 0 4.93265e-23 0 8.59093e-23 0 1.43745e-22 0 2.34852e-22 0
12.9424 1.61646e-08 1.35201e-08 2.64455e-09 0.163601 1.60871e-06 2.27529e-41 0 1.20604e-36 0 1.98076e-32 0 3.51325e-30 0 1.15099e-28 0 1.50908e-27 0 1.17921e-26 0 6.30383e-26 0 2.61221e-25 0 8.95394e-25 0 2.63314e-24 0 6.96685e-24 0 1.64577e-23 0 3.55751e-23 0 7.30256e-23 0 1.42804e-22 0 2.62906e-22 0 4.63914e-22 0 7.86382e-22 0 1.28313e-21 0 2.04674e-21 0
