# 0.00433194 2 112 : grain size, compostion index, size index
# This grain was stochastically heated: No
# Heating and cooling timescale: 1.93602e-06 inf
# Ratio of heating to cooling to determine stochastic cutoff: 100
# Equilibrium emission is recorded even for those grains in the stochastic regime.
# Emission spectrum was computed for: 
# Type: IRSF
# Scale: 1
# Temperature: -1
# Wavelength  CExt  CAbs  CSca  Albedo G EqEmission StEmission
0.05 0.000118264 4.18011e-05 7.64627e-05 0.646543 0.853941 0 0
0.0525665 0.000118279 4.11219e-05 7.71569e-05 0.652331 0.841451 0 0
0.0552647 0.000118295 4.0608e-05 7.76869e-05 0.656722 0.831079 0 0
0.0581015 0.000118311 4.03759e-05 7.79346e-05 0.658729 0.824717 0 0
0.0610839 0.000118327 3.98045e-05 7.85222e-05 0.663605 0.81595 0 0
0.0642193 0.000118345 3.83778e-05 7.99674e-05 0.675713 0.797661 0 0
0.0675157 0.000118367 3.696e-05 8.14069e-05 0.687751 0.777685 0 0
0.0709813 0.00011839 3.6818e-05 8.15719e-05 0.68901 0.770566 0 0
0.0746248 0.000118413 3.73784e-05 8.10341e-05 0.684337 0.771923 0 0
0.0784553 0.000118434 3.81593e-05 8.02749e-05 0.677802 0.776832 0 0
0.0824824 0.000118457 3.90512e-05 7.94053e-05 0.670333 0.782718 0 0
0.0867162 0.00011848 3.926e-05 7.92197e-05 0.668635 0.781598 0 0
0.0911674 0.000118505 3.90787e-05 7.94263e-05 0.670236 0.776449 0 0
0.095847 0.000118531 3.92452e-05 7.92859e-05 0.668904 0.774702 0 0
0.100767 0.000118553 4.06266e-05 7.79261e-05 0.657312 0.786175 0 0
0.105939 0.000118571 4.20162e-05 7.65544e-05 0.645644 0.800838 0 0
0.111377 0.000118582 4.45499e-05 7.40325e-05 0.624312 0.828865 0 0
0.117094 0.000118591 4.71643e-05 7.14263e-05 0.602293 0.861209 0 0
0.123105 0.000118606 4.88504e-05 6.97555e-05 0.588129 0.88385 0 0
0.129424 0.000118624 5.02809e-05 6.83435e-05 0.576133 0.903828 0 0
0.136067 0.000118644 5.14237e-05 6.72204e-05 0.566572 0.920034 0 0
0.143051 0.000118661 5.23104e-05 6.63503e-05 0.55916 0.932681 0 0
0.150394 0.000118673 5.28151e-05 6.58578e-05 0.554952 0.940834 0 0
0.158114 0.000118685 5.26394e-05 6.60453e-05 0.556477 0.94172 0 0
0.16623 0.000118707 5.13978e-05 6.73094e-05 0.56702 0.930914 0 0
0.174762 0.000118744 4.89387e-05 6.98054e-05 0.587864 0.904395 0 0
0.183733 0.000118788 4.58361e-05 7.29521e-05 0.614136 0.868575 0 0
0.193164 0.000118837 4.26108e-05 7.6226e-05 0.641434 0.831706 0 0
0.203079 0.000118888 3.98075e-05 7.90804e-05 0.665168 0.801231 0 0
0.213503 0.000118942 3.74008e-05 8.15415e-05 0.685555 0.776429 0 0
0.224463 0.000119004 3.57958e-05 8.32079e-05 0.699204 0.759267 0 0
0.235984 0.00011907 3.4885e-05 8.41853e-05 0.707022 0.7477 0 0
0.248097 0.000119142 3.50407e-05 8.41009e-05 0.705891 0.743929 0 0
0.260832 0.000119206 3.58855e-05 8.33203e-05 0.698962 0.746075 0 0
0.274221 0.00011926 3.69125e-05 8.23475e-05 0.690487 0.750298 0 0
0.288297 0.000119294 3.82732e-05 8.10212e-05 0.679171 0.75978 0 0
0.303095 0.000119329 3.92066e-05 8.01221e-05 0.67144 0.767001 0 0
0.318653 0.000119364 3.99671e-05 7.93973e-05 0.665168 0.77335 0 0
0.335009 0.000119403 4.05693e-05 7.88333e-05 0.660231 0.778801 0 0
0.352205 0.000119446 4.09828e-05 7.84633e-05 0.656893 0.782643 0 0
0.370284 0.000119494 4.1249e-05 7.82446e-05 0.654802 0.785011 0 0
0.389291 0.000119544 4.1387e-05 7.81572e-05 0.653794 0.785914 0 0
0.409273 0.000119597 4.14874e-05 7.81095e-05 0.653106 0.786451 0 0
0.430281 0.000119651 4.15708e-05 7.80807e-05 0.652568 0.786826 0 0
0.452368 0.000119708 4.16552e-05 7.8053e-05 0.652027 0.787386 0 0
0.475588 0.000119767 4.17297e-05 7.80372e-05 0.651576 0.787891 0 0
0.5 0.00011983 4.17767e-05 7.80529e-05 0.651366 0.788131 0 0
0.525665 0.000119895 4.18055e-05 7.80897e-05 0.651317 0.788207 0 0
0.552647 0.000119963 4.18245e-05 7.81387e-05 0.651356 0.788163 0 0
0.581015 0.000120036 4.1772e-05 7.8264e-05 0.652005 0.787313 0 0
0.610839 0.000120112 4.17164e-05 7.83954e-05 0.652687 0.786426 0 0
0.642193 0.00012019 4.16576e-05 7.85329e-05 0.653404 0.785497 0 0
0.675157 0.000120272 4.15714e-05 7.87006e-05 0.654355 0.784249 0 0
0.709813 0.000120358 4.146e-05 7.88983e-05 0.655528 0.782703 0 0
0.746248 0.000120447 4.13369e-05 7.91102e-05 0.656805 0.781003 0 0
0.784553 0.000120539 4.12098e-05 7.93296e-05 0.658122 0.779261 0 0
0.824824 0.000120635 4.10798e-05 7.95549e-05 0.659469 0.77747 0 0
0.867162 0.000120733 4.09467e-05 7.97862e-05 0.660849 0.775634 0 0
0.911674 0.000120835 4.08135e-05 8.0021e-05 0.662236 0.773791 0 0
0.95847 0.000120939 4.06875e-05 8.02511e-05 0.663569 0.772 0 0
1.00767 0.000121046 4.05608e-05 8.04849e-05 0.664913 0.770199 0 0
1.05939 0.000121156 4.04465e-05 8.0709e-05 0.666161 0.76851 0 0
1.11377 0.000121268 4.03285e-05 8.09399e-05 0.667444 0.766782 0 0
1.17094 0.000121385 4.02211e-05 8.11637e-05 0.668648 0.765158 0 0
1.23105 0.000121504 4.01146e-05 8.13897e-05 0.669851 0.763541 0 0
1.29424 0.000121628 3.99953e-05 8.16324e-05 0.671166 0.761796 0 0
1.36067 0.000121754 3.98813e-05 8.18729e-05 0.672444 0.760097 0 0
1.43051 0.000121884 3.97759e-05 8.21077e-05 0.673657 0.758478 0 0
1.50394 0.000122016 3.96762e-05 8.23401e-05 0.674829 0.756909 0 0
1.58114 0.000122154 3.95716e-05 8.2582e-05 0.676051 0.755294 0 0
1.6623 0.000122296 3.94559e-05 8.28396e-05 0.677372 0.753579 0 0
1.74762 0.00012244 3.93385e-05 8.31016e-05 0.678712 0.751844 0 0
1.83733 0.000122587 3.92264e-05 8.3361e-05 0.680013 0.750161 0 0
1.93164 0.000122739 3.9115e-05 8.36236e-05 0.681315 0.748487 0 0
2.03079 0.000122894 3.90032e-05 8.38903e-05 0.682626 0.746815 0 0
2.13503 0.000123053 3.88837e-05 8.4169e-05 0.684008 0.745069 0 0
2.24463 0.000123214 3.8766e-05 8.44478e-05 0.685376 0.743354 0 0
2.35984 0.000123378 3.86528e-05 8.47252e-05 0.686712 0.741677 0 0
2.48097 0.000123547 3.85415e-05 8.50055e-05 0.688042 0.740032 0 0
2.60832 0.000123721 3.84131e-05 8.53083e-05 0.68952 0.738248 0 0
2.74221 0.000123894 3.82788e-05 8.56152e-05 0.691036 0.736422 0 0
2.88297 0.000124065 3.81563e-05 8.59088e-05 0.692449 0.734704 0 0
3.03095 0.000124243 3.80297e-05 8.62131e-05 0.693908 0.732977 0 0
3.18653 0.000124435 3.78979e-05 8.65375e-05 0.695441 0.731241 0 0
3.35009 0.000124608 3.77631e-05 8.68446e-05 0.696944 0.729456 0 0
3.52205 0.000124821 3.76291e-05 8.71923e-05 0.698537 0.727764 0 0
3.70284 0.000124977 3.74943e-05 8.74828e-05 0.699991 0.725986 0 0
3.89291 0.000125201 3.73618e-05 8.78395e-05 0.701586 0.724355 0 0
4.09273 0.000125381 3.72164e-05 8.81647e-05 0.703174 0.722571 9.41389e-291 0
4.30281 0.000125519 3.70669e-05 8.84518e-05 0.70469 0.720714 2.47723e-276 0
4.52368 0.000125767 3.69131e-05 8.8854e-05 0.706497 0.719018 1.27258e-262 0
4.75588 0.000125997 3.67575e-05 8.92396e-05 0.708267 0.717306 1.38215e-249 0
5 0.000126257 3.65959e-05 8.96616e-05 0.710149 0.715608 3.42374e-237 0
5.25665 0.000126487 3.6415e-05 9.00723e-05 0.712106 0.713766 2.07841e-225 0
5.52648 0.00012668 3.62289e-05 9.04507e-05 0.714012 0.711875 3.31174e-214 0
5.81015 0.000126867 3.6051e-05 9.08157e-05 0.715836 0.710033 1.47984e-203 0
6.10839 0.000127005 3.58707e-05 9.11348e-05 0.717566 0.708052 1.97171e-193 0
6.42193 0.00012707 3.57067e-05 9.13634e-05 0.719 0.706105 8.31826e-184 0
6.75157 0.000127244 3.55282e-05 9.17157e-05 0.720787 0.704328 1.17371e-174 0
7.09813 0.000127691 3.53647e-05 9.23265e-05 0.723045 0.703028 5.85134e-166 0
7.46248 0.000128104 3.52146e-05 9.28891e-05 0.725108 0.701785 1.08379e-157 0
7.84553 0.000127989 3.50693e-05 9.29197e-05 0.725997 0.699709 7.82917e-150 0
8.24824 0.000128094 3.49356e-05 9.31583e-05 0.727266 0.697972 2.30909e-142 0
8.67162 0.000128805 3.48158e-05 9.39893e-05 0.729702 0.697472 2.90619e-135 0
9.11674 0.000128623 3.4723e-05 9.39e-05 0.73004 0.695598 1.62722e-128 0
9.5847 0.000128868 3.46546e-05 9.4213e-05 0.731084 0.694636 4.21805e-122 0
10.0767 0.000129398 3.46078e-05 9.47905e-05 0.732548 0.694192 5.25384e-116 0
10.5939 0.000129145 3.45562e-05 9.45889e-05 0.732423 0.692562 3.25778e-110 0
11.1377 0.000129832 3.45498e-05 9.52821e-05 0.733888 0.692817 1.04176e-104 0
11.7094 0.000129911 3.43273e-05 9.55834e-05 0.735763 0.689712 1.76102e-99 0
12.3105 0.000130329 3.43558e-05 9.59734e-05 0.736392 0.690094 1.64546e-94 0
12.9424 0.000130229 3.42666e-05 9.59626e-05 0.736875 0.688686 8.65564e-90 0
13.6067 0.000130755 3.41727e-05 9.65827e-05 0.738652 0.688035 2.64502e-85 0
14.3051 0.000130779 3.40878e-05 9.66908e-05 0.739347 0.686781 4.82259e-81 0
15.0394 0.000131171 3.40186e-05 9.71523e-05 0.740654 0.68612 5.38238e-77 0
15.8114 0.000131333 3.3958e-05 9.73753e-05 0.741436 0.685104 3.76504e-73 0
16.623 0.000131598 3.38802e-05 9.77176e-05 0.742548 0.684214 1.68776e-69 0
17.4762 0.000131832 3.37925e-05 9.80398e-05 0.743671 0.683304 4.95514e-66 0
18.3733 0.000132007 3.36938e-05 9.83129e-05 0.744757 0.682265 9.72786e-63 0
19.3164 0.000132182 3.3542e-05 9.86403e-05 0.746244 0.681025 1.3005e-59 0
20.3079 0.000132243 3.32637e-05 9.89789e-05 0.748465 0.679219 1.20377e-56 0
21.3503 0.000132208 3.29172e-05 9.92913e-05 0.751021 0.676894 7.86514e-54 0
22.4463 0.000132094 3.24634e-05 9.96306e-05 0.75424 0.673703 3.68499e-51 0
23.5984 0.000132 3.18684e-05 0.000100132 0.758573 0.669161 1.25642e-48 0
24.8097 0.000132038 3.10808e-05 0.000100957 0.764607 0.662444 3.15989e-46 0
26.0832 0.000132369 3.024e-05 0.000102129 0.771548 0.653613 5.97173e-44 0
27.4221 0.000132934 2.93834e-05 0.000103551 0.778963 0.643476 8.60898e-42 0
28.8297 0.000133776 2.86239e-05 0.000105152 0.786032 0.632588 9.62859e-40 0
30.3095 0.000134781 2.79102e-05 0.000106871 0.792922 0.621576 8.44735e-38 0
31.8653 0.000135869 2.7356e-05 0.000108513 0.79866 0.611583 5.90772e-36 0
33.5009 0.000137023 2.67933e-05 0.00011023 0.804461 0.601729 3.3112e-34 0
35.2206 0.00013812 2.64094e-05 0.00011171 0.808793 0.593786 1.51428e-32 0
37.0284 0.000139104 2.5948e-05 0.000113156 0.813463 0.585669 5.65401e-31 0
38.9291 0.000140023 2.55371e-05 0.000114486 0.817622 0.578722 1.74904e-29 0
40.9273 0.000140703 2.50534e-05 0.00011565 0.821942 0.571934 4.5024e-28 0
43.0282 0.000141218 2.45881e-05 0.00011663 0.825886 0.5652 9.76515e-27 0
45.2368 0.0001417 2.41049e-05 0.000117596 0.829888 0.558887 1.79671e-25 0
47.5588 0.000141924 2.36978e-05 0.000118226 0.833024 0.553022 2.83813e-24 0
50 0.000142136 2.33002e-05 0.000118835 0.836071 0.546441 3.86754e-23 0
52.5665 0.000142356 2.29977e-05 0.000119359 0.83845 0.54013 4.59699e-22 0
55.2648 0.000142501 2.26655e-05 0.000119836 0.840945 0.534407 4.7729e-21 0
58.1015 0.000142638 2.24749e-05 0.000120163 0.842434 0.528506 4.39054e-20 0
61.0839 0.000142701 2.23183e-05 0.000120383 0.843601 0.521134 3.58375e-19 0
64.2193 0.000142801 2.20841e-05 0.000120717 0.84535 0.513441 2.59803e-18 0
67.5157 0.000143098 2.19311e-05 0.000121167 0.846741 0.507284 1.69424e-17 0
70.9813 0.000143353 2.19407e-05 0.000121413 0.846947 0.501401 1.00301e-16 0
74.6248 0.000143323 2.1967e-05 0.000121356 0.84673 0.493018 5.38214e-16 0
78.4553 0.000143244 2.18995e-05 0.000121345 0.847118 0.482025 2.61726e-15 0
82.4824 0.000143576 2.1865e-05 0.000121711 0.847711 0.471508 1.1654e-14 0
86.7162 0.000144319 2.20247e-05 0.000122294 0.847389 0.46381 4.8078e-14 0
91.1674 0.000144967 2.23458e-05 0.000122621 0.845856 0.457576 1.84222e-13 0
95.847 0.000145075 2.26829e-05 0.000122392 0.843647 0.449195 6.53828e-13 0
100.767 0.000144736 2.29449e-05 0.000121791 0.841471 0.43583 2.14894e-12 0
105.939 0.000144598 2.32148e-05 0.000121384 0.839454 0.418247 6.58839e-12 0
111.377 0.000145183 2.36004e-05 0.000121583 0.837445 0.399696 1.89935e-11 0
117.094 0.000146634 2.41788e-05 0.000122455 0.835108 0.383825 5.18055e-11 0
123.105 0.000148566 2.49022e-05 0.000123664 0.832383 0.372138 1.33772e-10 0
129.424 0.000150232 2.53372e-05 0.000124895 0.831347 0.362758 3.22309e-10 0
136.067 0.000150913 2.5273e-05 0.00012564 0.832533 0.352537 7.21075e-10 0
143.051 0.000149823 2.40468e-05 0.000125776 0.839499 0.335811 1.46133e-09 0
150.394 0.000147449 2.22962e-05 0.000125152 0.848786 0.309833 2.74759e-09 0
158.114 0.000144582 2.05146e-05 0.000124068 0.858111 0.272774 4.89231e-09 0
166.23 0.000142425 1.88601e-05 0.000123565 0.867579 0.226262 8.32579e-09 0
174.763 0.000141629 1.74597e-05 0.000124169 0.876722 0.174224 1.36766e-08 0
183.733 0.000142387 1.66341e-05 0.000125753 0.883177 0.122125 2.22093e-08 0
193.164 0.000144279 1.60608e-05 0.000128218 0.888682 0.0728152 3.51791e-08 0
203.079 0.000146785 1.57515e-05 0.000131034 0.89269 0.0284541 5.45782e-08 0
213.503 0.000149254 1.57165e-05 0.000133537 0.894699 -0.0102099 8.32145e-08 0
224.463 0.000150892 1.57516e-05 0.00013514 0.89561 -0.0439323 1.23315e-07 0
235.984 0.000151015 1.57965e-05 0.000135219 0.895398 -0.0733391 1.77216e-07 0
248.097 0.000149004 1.57878e-05 0.000133216 0.894044 -0.0990774 2.46366e-07 0
260.832 0.000144586 1.57693e-05 0.000128817 0.890935 -0.121623 3.32724e-07 0
274.221 0.000137621 1.56069e-05 0.000122015 0.886595 -0.141764 4.33411e-07 0
288.297 0.000128329 1.52593e-05 0.00011307 0.881092 -0.159951 5.43628e-07 0
303.095 0.000117248 1.47429e-05 0.000102505 0.874259 -0.176428 6.57583e-07 0
318.653 0.00010516 1.41248e-05 9.10355e-05 0.865683 -0.191377 7.70705e-07 0
335.009 9.27388e-05 1.33895e-05 7.93493e-05 0.855622 -0.205122 8.74254e-07 0
352.206 8.06424e-05 1.25859e-05 6.80565e-05 0.84393 -0.217777 9.63012e-07 0
370.284 6.94054e-05 1.17971e-05 5.76083e-05 0.830027 -0.229313 1.03693e-06 0
389.291 5.92585e-05 1.10213e-05 4.82372e-05 0.814013 -0.239942 1.09199e-06 0
409.273 5.03243e-05 1.0279e-05 4.00453e-05 0.795745 -0.249743 1.12756e-06 0
430.282 4.26603e-05 9.61089e-06 3.30494e-05 0.774711 -0.258636 1.14749e-06 0
452.368 3.61487e-05 9.00081e-06 2.71479e-05 0.751006 -0.266773 1.15086e-06 0
475.588 3.06633e-05 8.44372e-06 2.22196e-05 0.724631 -0.274232 1.13856e-06 0
500 2.60788e-05 7.93841e-06 1.81404e-05 0.695599 -0.281049 1.11251e-06 0
525.665 2.23064e-05 7.51027e-06 1.47961e-05 0.663313 -0.287038 1.07888e-06 0
552.648 1.91737e-05 7.12135e-06 1.20524e-05 0.628588 -0.292464 1.03501e-06 0
581.015 1.65755e-05 6.76687e-06 9.8086e-06 0.591754 -0.297369 9.82773e-07 0
610.838 1.44245e-05 6.44286e-06 7.98165e-06 0.553339 -0.301777 9.24138e-07 0
642.193 1.26413e-05 6.14527e-06 6.49601e-06 0.513873 -0.305728 8.60956e-07 0
675.157 1.11557e-05 5.87003e-06 5.2857e-06 0.47381 -0.309258 7.94909e-07 0
709.813 9.9207e-06 5.62038e-06 4.30032e-06 0.433469 -0.312317 7.28435e-07 0
746.247 8.90392e-06 5.40283e-06 3.50109e-06 0.393208 -0.314785 6.63971e-07 0
784.553 8.0487e-06 5.19788e-06 2.85081e-06 0.354196 -0.316914 6.00406e-07 0
824.824 7.32507e-06 5.00378e-06 2.32129e-06 0.316896 -0.318732 5.38786e-07 0
867.162 6.70958e-06 4.81916e-06 1.89042e-06 0.281749 -0.320264 4.79965e-07 0
911.674 6.18395e-06 4.64307e-06 1.54088e-06 0.249175 -0.321527 4.24605e-07 0
958.471 5.73019e-06 4.47423e-06 1.25596e-06 0.219183 -0.322553 3.73122e-07 0
1007.67 5.33719e-06 4.31351e-06 1.02368e-06 0.191802 -0.323321 3.25918e-07 0
1059.39 5.00202e-06 4.16731e-06 8.34707e-07 0.166874 -0.323655 2.83558e-07 0
1113.77 4.70647e-06 4.02555e-06 6.80923e-07 0.144678 -0.323794 2.4527e-07 0
1170.94 4.44309e-06 3.88767e-06 5.55422e-07 0.125008 -0.323757 2.10969e-07 0
1231.05 4.20857e-06 3.75555e-06 4.53023e-07 0.107643 -0.323488 1.80606e-07 0
1294.24 4.00003e-06 3.63027e-06 3.69757e-07 0.0924385 -0.322917 1.53987e-07 0
1360.67 3.80944e-06 3.50764e-06 3.01803e-07 0.0792249 -0.322188 1.30656e-07 0
1430.51 3.63349e-06 3.38717e-06 2.46314e-07 0.0677898 -0.32133 1.10337e-07 0
1503.94 3.47015e-06 3.26912e-06 2.01038e-07 0.0579335 -0.320335 9.2768e-08 0
1581.14 3.32182e-06 3.15765e-06 1.64178e-07 0.049424 -0.318957 7.7774e-08 0
1662.3 3.1814e-06 3.04735e-06 1.34053e-07 0.0421363 -0.317469 6.49254e-08 0
1747.63 3.04763e-06 2.93819e-06 1.09437e-07 0.035909 -0.315884 5.39761e-08 0
1837.33 2.91968e-06 2.8303e-06 8.93757e-08 0.0306115 -0.31422 4.46973e-08 0
1931.64 2.7968e-06 2.72379e-06 7.30156e-08 0.0261068 -0.312487 3.68744e-08 0
2030.79 2.68162e-06 2.62199e-06 5.96259e-08 0.022235 -0.310288 3.03487e-08 0
2135.03 2.57573e-06 2.52707e-06 4.86576e-08 0.0188908 -0.307054 2.49461e-08 0
2244.63 2.47018e-06 2.43044e-06 3.97334e-08 0.0160852 -0.303722 2.04144e-08 0
2359.84 2.36494e-06 2.3325e-06 3.24432e-08 0.0137184 -0.300321 1.66338e-08 0
2480.97 2.26025e-06 2.23376e-06 2.64849e-08 0.0117177 -0.296879 1.34969e-08 0
2608.32 2.15651e-06 2.13489e-06 2.16212e-08 0.010026 -0.293427 1.09083e-08 0
2742.21 2.05423e-06 2.03657e-06 1.76613e-08 0.00859752 -0.289995 8.78384e-09 0
2882.96 1.95379e-06 1.93937e-06 1.44238e-08 0.00738245 -0.286607 7.04866e-09 0
3030.95 1.85567e-06 1.84389e-06 1.17774e-08 0.00634672 -0.283284 5.63826e-09 0
3186.53 1.76038e-06 1.75076e-06 9.62005e-09 0.00546476 -0.280051 4.49725e-09 0
3350.09 1.66831e-06 1.66045e-06 7.86e-09 0.00471134 -0.276921 3.57802e-09 0
3522.05 1.57972e-06 1.5733e-06 6.42076e-09 0.0040645 -0.273906 2.84015e-09 0
3702.84 1.49482e-06 1.48958e-06 5.24405e-09 0.00350814 -0.271013 2.24989e-09 0
3892.91 1.41395e-06 1.40966e-06 4.28597e-09 0.00303121 -0.268252 1.77937e-09 0
4092.73 1.33706e-06 1.33356e-06 3.50268e-09 0.00261969 -0.265622 1.40518e-09 0
4302.81 1.26416e-06 1.2613e-06 2.86197e-09 0.00226393 -0.263123 1.10829e-09 0
4523.68 1.19526e-06 1.19292e-06 2.33852e-09 0.0019565 -0.260753 8.73223e-10 0
4755.88 1.13035e-06 1.12844e-06 1.91193e-09 0.00169145 -0.25851 6.87493e-10 0
5000 1.06919e-06 1.06763e-06 1.56282e-09 0.00146168 -0.256388 5.40885e-10 0
