# 0.00187657 1 104 : grain size, compostion index, size index
# Heating and cooling timescale: 7.13203e-07 inf
# Ratio of heating to cooling to determine stochastic cutoff: 100
# Equilibrium emission is recorded even for those grains in the stochastic regime.
# Emission spectrum was computed for: 
# Type: ISRF
# Scales: 0.25 0.5 1 1.5 2 2.5 3 3.5 4 4.5 5 5.5 6 6.5 7 7.5 8 8.5 9 9.5 10
# StochasticallyHeated: 0 0 0 0 0 0 0 0 0 0 0 0 0 0 0 0 0 0 0 0 0
# Temperature: -1
# Wavelength  CExt  CAbs  CSca  Albedo G EqEm1 StEm1 EqEm2 StEm2 EqEm3 StEm3 EqEm4 StEm4 EqEm5 StEm5 EqEm6 StEm6 EqEm7 StEm7 EqEm8 StEm8 EqEm9 StEm9 EqEm10 StEm10 EqEm11 StEm11 EqEm12 StEm12 EqEm13 StEm13 EqEm14 StEm14 EqEm15 StEm15 EqEm16 StEm16 EqEm17 StEm17 EqEm18 StEm18 EqEm19 StEm19 EqEm20 StEm20 EqEm21 StEm21
0.05 2.22387e-05 9.40228e-06 1.28364e-05 0.57721 0.931811 0 0 0 0 0 0 0 0 0 0 0 0 0 0 0 0 0 0 0 0 0 0 0 0 0 0 0 0 0 0 0 0 0 0 0 0 0 0 0 0 0 0
0.0525665 2.22433e-05 9.32077e-06 1.29225e-05 0.580962 0.926009 0 0 0 0 0 0 0 0 0 0 0 0 0 0 0 0 0 0 0 0 0 0 0 0 0 0 0 0 0 0 0 0 0 0 0 0 0 0 0 0 0 0
0.0552647 2.22481e-05 9.18509e-06 1.3063e-05 0.587152 0.917132 0 0 0 0 0 0 0 0 0 0 0 0 0 0 0 0 0 0 0 0 0 0 0 0 0 0 0 0 0 0 0 0 0 0 0 0 0 0 0 0 0 0
0.0581015 2.22537e-05 8.97923e-06 1.32745e-05 0.596507 0.903329 0 0 0 0 0 0 0 0 0 0 0 0 0 0 0 0 0 0 0 0 0 0 0 0 0 0 0 0 0 0 0 0 0 0 0 0 0 0 0 0 0 0
0.0610839 2.22601e-05 8.77187e-06 1.34882e-05 0.605937 0.887852 0 0 0 0 0 0 0 0 0 0 0 0 0 0 0 0 0 0 0 0 0 0 0 0 0 0 0 0 0 0 0 0 0 0 0 0 0 0 0 0 0 0
0.0642193 2.22668e-05 8.62719e-06 1.36396e-05 0.612554 0.875264 0 0 0 0 0 0 0 0 0 0 0 0 0 0 0 0 0 0 0 0 0 0 0 0 0 0 0 0 0 0 0 0 0 0 0 0 0 0 0 0 0 0
0.0675157 2.22738e-05 8.54581e-06 1.3728e-05 0.616329 0.866383 0 0 0 0 0 0 0 0 0 0 0 0 0 0 0 0 0 0 0 0 0 0 0 0 0 0 0 0 0 0 0 0 0 0 0 0 0 0 0 0 0 0
0.0709813 2.22809e-05 8.51601e-06 1.37649e-05 0.617789 0.860782 0 0 0 0 0 0 0 0 0 0 0 0 0 0 0 0 0 0 0 0 0 0 0 0 0 0 0 0 0 0 0 0 0 0 0 0 0 0 0 0 0 0
0.0746248 2.22881e-05 8.52917e-06 1.37589e-05 0.617322 0.858054 0 0 0 0 0 0 0 0 0 0 0 0 0 0 0 0 0 0 0 0 0 0 0 0 0 0 0 0 0 0 0 0 0 0 0 0 0 0 0 0 0 0
0.0784553 2.22952e-05 8.59092e-06 1.37043e-05 0.614674 0.858697 0 0 0 0 0 0 0 0 0 0 0 0 0 0 0 0 0 0 0 0 0 0 0 0 0 0 0 0 0 0 0 0 0 0 0 0 0 0 0 0 0 0
0.0824824 2.23018e-05 8.72147e-06 1.35803e-05 0.608934 0.864246 0 0 0 0 0 0 0 0 0 0 0 0 0 0 0 0 0 0 0 0 0 0 0 0 0 0 0 0 0 0 0 0 0 0 0 0 0 0 0 0 0 0
0.0867162 2.23078e-05 8.77637e-06 1.35314e-05 0.606578 0.867226 0 0 0 0 0 0 0 0 0 0 0 0 0 0 0 0 0 0 0 0 0 0 0 0 0 0 0 0 0 0 0 0 0 0 0 0 0 0 0 0 0 0
0.0911674 2.23153e-05 8.69867e-06 1.36167e-05 0.610193 0.860705 0 0 0 0 0 0 0 0 0 0 0 0 0 0 0 0 0 0 0 0 0 0 0 0 0 0 0 0 0 0 0 0 0 0 0 0 0 0 0 0 0 0
0.095847 2.23233e-05 8.68899e-06 1.36343e-05 0.610766 0.857407 0 0 0 0 0 0 0 0 0 0 0 0 0 0 0 0 0 0 0 0 0 0 0 0 0 0 0 0 0 0 0 0 0 0 0 0 0 0 0 0 0 0
0.100767 2.2331e-05 8.71633e-06 1.36146e-05 0.609675 0.856938 0 0 0 0 0 0 0 0 0 0 0 0 0 0 0 0 0 0 0 0 0 0 0 0 0 0 0 0 0 0 0 0 0 0 0 0 0 0 0 0 0 0
0.105939 2.23379e-05 8.80571e-06 1.35322e-05 0.605795 0.860863 0 0 0 0 0 0 0 0 0 0 0 0 0 0 0 0 0 0 0 0 0 0 0 0 0 0 0 0 0 0 0 0 0 0 0 0 0 0 0 0 0 0
0.111377 2.23445e-05 8.89773e-06 1.34468e-05 0.601793 0.865941 0 0 0 0 0 0 0 0 0 0 0 0 0 0 0 0 0 0 0 0 0 0 0 0 0 0 0 0 0 0 0 0 0 0 0 0 0 0 0 0 0 0
0.117094 2.23515e-05 8.95824e-06 1.33932e-05 0.59921 0.869124 0 0 0 0 0 0 0 0 0 0 0 0 0 0 0 0 0 0 0 0 0 0 0 0 0 0 0 0 0 0 0 0 0 0 0 0 0 0 0 0 0 0
0.123105 2.23587e-05 8.99992e-06 1.33588e-05 0.597475 0.871129 0 0 0 0 0 0 0 0 0 0 0 0 0 0 0 0 0 0 0 0 0 0 0 0 0 0 0 0 0 0 0 0 0 0 0 0 0 0 0 0 0 0
0.129424 2.23663e-05 9.02613e-06 1.33402e-05 0.59644 0.872106 0 0 0 0 0 0 0 0 0 0 0 0 0 0 0 0 0 0 0 0 0 0 0 0 0 0 0 0 0 0 0 0 0 0 0 0 0 0 0 0 0 0
0.136067 2.23741e-05 9.03515e-06 1.33389e-05 0.596178 0.871864 0 0 0 0 0 0 0 0 0 0 0 0 0 0 0 0 0 0 0 0 0 0 0 0 0 0 0 0 0 0 0 0 0 0 0 0 0 0 0 0 0 0
0.143051 2.23822e-05 9.0171e-06 1.33651e-05 0.597131 0.869532 0 0 0 0 0 0 0 0 0 0 0 0 0 0 0 0 0 0 0 0 0 0 0 0 0 0 0 0 0 0 0 0 0 0 0 0 0 0 0 0 0 0
0.150394 2.23893e-05 9.04988e-06 1.33394e-05 0.595795 0.870768 0 0 0 0 0 0 0 0 0 0 0 0 0 0 0 0 0 0 0 0 0 0 0 0 0 0 0 0 0 0 0 0 0 0 0 0 0 0 0 0 0 0
0.158114 2.23961e-05 9.14734e-06 1.32488e-05 0.591566 0.877231 0 0 0 0 0 0 0 0 0 0 0 0 0 0 0 0 0 0 0 0 0 0 0 0 0 0 0 0 0 0 0 0 0 0 0 0 0 0 0 0 0 0
0.16623 2.24037e-05 9.25803e-06 1.31457e-05 0.586763 0.885083 0 0 0 0 0 0 0 0 0 0 0 0 0 0 0 0 0 0 0 0 0 0 0 0 0 0 0 0 0 0 0 0 0 0 0 0 0 0 0 0 0 0
0.174762 2.24122e-05 9.35665e-06 1.30555e-05 0.58252 0.892211 0 0 0 0 0 0 0 0 0 0 0 0 0 0 0 0 0 0 0 0 0 0 0 0 0 0 0 0 0 0 0 0 0 0 0 0 0 0 0 0 0 0
0.183733 2.24213e-05 9.44461e-06 1.29767e-05 0.578766 0.898585 0 0 0 0 0 0 0 0 0 0 0 0 0 0 0 0 0 0 0 0 0 0 0 0 0 0 0 0 0 0 0 0 0 0 0 0 0 0 0 0 0 0
0.193164 2.24309e-05 9.51978e-06 1.29111e-05 0.575595 0.903996 0 0 0 0 0 0 0 0 0 0 0 0 0 0 0 0 0 0 0 0 0 0 0 0 0 0 0 0 0 0 0 0 0 0 0 0 0 0 0 0 0 0
0.203079 2.24411e-05 9.58452e-06 1.28566e-05 0.572903 0.908597 0 0 0 0 0 0 0 0 0 0 0 0 0 0 0 0 0 0 0 0 0 0 0 0 0 0 0 0 0 0 0 0 0 0 0 0 0 0 0 0 0 0
0.213503 2.24516e-05 9.64231e-06 1.28093e-05 0.570529 0.912642 0 0 0 0 0 0 0 0 0 0 0 0 0 0 0 0 0 0 0 0 0 0 0 0 0 0 0 0 0 0 0 0 0 0 0 0 0 0 0 0 0 0
0.224463 2.24626e-05 9.69139e-06 1.27712e-05 0.568554 0.915993 0 0 0 0 0 0 0 0 0 0 0 0 0 0 0 0 0 0 0 0 0 0 0 0 0 0 0 0 0 0 0 0 0 0 0 0 0 0 0 0 0 0
0.235984 2.24739e-05 9.73114e-06 1.27428e-05 0.567004 0.9186 0 0 0 0 0 0 0 0 0 0 0 0 0 0 0 0 0 0 0 0 0 0 0 0 0 0 0 0 0 0 0 0 0 0 0 0 0 0 0 0 0 0
0.248097 2.24856e-05 9.76279e-06 1.27228e-05 0.565821 0.920564 0 0 0 0 0 0 0 0 0 0 0 0 0 0 0 0 0 0 0 0 0 0 0 0 0 0 0 0 0 0 0 0 0 0 0 0 0 0 0 0 0 0
0.260832 2.24978e-05 9.78966e-06 1.27081e-05 0.564861 0.922135 0 0 0 0 0 0 0 0 0 0 0 0 0 0 0 0 0 0 0 0 0 0 0 0 0 0 0 0 0 0 0 0 0 0 0 0 0 0 0 0 0 0
0.274221 2.25103e-05 9.8135e-06 1.26968e-05 0.564043 0.923449 0 0 0 0 0 0 0 0 0 0 0 0 0 0 0 0 0 0 0 0 0 0 0 0 0 0 0 0 0 0 0 0 0 0 0 0 0 0 0 0 0 0
0.288297 2.25232e-05 9.83475e-06 1.26884e-05 0.56335 0.924541 0 0 0 0 0 0 0 0 0 0 0 0 0 0 0 0 0 0 0 0 0 0 0 0 0 0 0 0 0 0 0 0 0 0 0 0 0 0 0 0 0 0
0.303095 2.25366e-05 9.85395e-06 1.26826e-05 0.562757 0.92545 0 0 0 0 0 0 0 0 0 0 0 0 0 0 0 0 0 0 0 0 0 0 0 0 0 0 0 0 0 0 0 0 0 0 0 0 0 0 0 0 0 0
0.318653 2.25504e-05 9.87186e-06 1.26785e-05 0.56223 0.926234 0 0 0 0 0 0 0 0 0 0 0 0 0 0 0 0 0 0 0 0 0 0 0 0 0 0 0 0 0 0 0 0 0 0 0 0 0 0 0 0 0 0
0.335009 2.25647e-05 9.88856e-06 1.26761e-05 0.561768 0.926897 0 0 0 0 0 0 0 0 0 0 0 0 0 0 0 0 0 0 0 0 0 0 0 0 0 0 0 0 0 0 0 0 0 0 0 0 0 0 0 0 0 0
0.352205 2.25794e-05 9.90454e-06 1.26749e-05 0.561347 0.927478 0 0 0 0 0 0 0 0 0 0 0 0 0 0 0 0 0 0 0 0 0 0 0 0 0 0 0 0 0 0 0 0 0 0 0 0 0 0 0 0 0 0
0.370284 2.25946e-05 9.91995e-06 1.26747e-05 0.56096 0.927987 0 0 0 0 0 0 0 0 0 0 0 0 0 0 0 0 0 0 0 0 0 0 0 0 0 0 0 0 0 0 0 0 0 0 0 0 0 0 0 0 0 0
0.389291 2.26104e-05 9.93454e-06 1.26759e-05 0.560621 0.928402 0 0 0 0 0 0 0 0 0 0 0 0 0 0 0 0 0 0 0 0 0 0 0 0 0 0 0 0 0 0 0 0 0 0 0 0 0 0 0 0 0 0
0.409273 2.26267e-05 9.9487e-06 1.2678e-05 0.560312 0.928753 0 0 0 0 0 0 0 0 0 0 0 0 0 0 0 0 0 0 0 0 0 0 0 0 0 0 0 0 0 0 0 0 0 0 0 0 0 0 0 0 0 0
0.430281 2.26435e-05 9.963e-06 1.26805e-05 0.560006 0.929082 0 0 0 0 0 0 0 0 0 0 0 0 0 0 0 0 0 0 0 0 0 0 0 0 0 0 0 0 0 0 0 0 0 0 0 0 0 0 0 0 0 0
0.452368 2.26609e-05 9.97665e-06 1.26843e-05 0.559742 0.929328 0 0 0 0 0 0 0 0 0 0 0 0 0 0 0 0 0 0 0 0 0 0 0 0 0 0 0 0 0 0 0 0 0 0 0 0 0 0 0 0 0 0
0.475588 2.26788e-05 9.99043e-06 1.26884e-05 0.559482 0.929547 0 0 0 0 0 0 0 0 0 0 0 0 0 0 0 0 0 0 0 0 0 0 0 0 0 0 0 0 0 0 0 0 0 0 0 0 0 0 0 0 0 0
0.5 2.26974e-05 1.00043e-05 1.26931e-05 0.559232 0.929737 0 0 0 0 0 0 0 0 0 0 0 0 0 0 0 0 0 0 0 0 0 0 0 0 0 0 0 0 0 0 0 0 0 0 0 0 0 0 0 0 0 0
0.525665 2.27167e-05 1.00184e-05 1.26983e-05 0.558986 0.929904 0 0 0 0 0 0 0 0 0 0 0 0 0 0 0 0 0 0 0 0 0 0 0 0 0 0 0 0 0 0 0 0 0 0 0 0 0 0 0 0 0 0
0.552648 2.27365e-05 1.0033e-05 1.27035e-05 0.558728 0.930068 0 0 0 0 0 0 0 0 0 0 0 0 0 0 0 0 0 0 0 0 0 0 0 0 0 0 0 0 0 0 0 0 0 0 0 0 0 0 0 0 0 0
0.581015 2.27569e-05 1.00469e-05 1.271e-05 0.558511 0.930144 0 0 0 0 0 0 0 0 0 0 0 0 0 0 0 0 0 0 0 0 0 0 0 0 0 0 0 0 0 0 0 0 0 0 0 0 0 0 0 0 0 0
0.610839 2.27781e-05 1.00615e-05 1.27166e-05 0.558282 0.930222 0 0 0 0 0 0 0 0 0 0 0 0 0 0 0 0 0 0 0 0 0 0 0 0 0 0 0 0 0 0 0 0 0 0 0 0 0 0 0 0 0 0
0.642193 2.28e-05 1.00767e-05 1.27233e-05 0.55804 0.930303 0 0 0 0 0 0 0 0 0 0 0 0 0 0 0 0 0 0 0 0 0 0 0 0 0 0 0 0 0 0 0 0 0 0 0 0 0 0 0 0 0 0
0.675157 2.28226e-05 1.00922e-05 1.27305e-05 0.5578 0.930357 0 0 0 0 0 0 0 0 0 0 0 0 0 0 0 0 0 0 0 0 0 0 0 0 0 0 0 0 0 0 0 0 0 0 0 0 0 0 0 0 0 0
0.709813 2.2846e-05 1.0108e-05 1.2738e-05 0.557559 0.930388 0 0 0 0 0 0 0 0 0 0 0 0 0 0 0 0 0 0 0 0 0 0 0 0 0 0 0 0 0 0 0 0 0 0 0 0 0 0 0 0 0 0
0.746248 2.28701e-05 1.01245e-05 1.27456e-05 0.557306 0.930415 0 0 0 0 0 0 0 0 0 0 0 0 0 0 0 0 0 0 0 0 0 0 0 0 0 0 0 0 0 0 0 0 0 0 0 0 0 0 0 0 0 0
0.784553 2.2895e-05 1.01416e-05 1.27534e-05 0.557039 0.930442 0 0 0 0 0 0 0 0 0 0 0 0 0 0 0 0 0 0 0 0 0 0 0 0 0 0 0 0 0 0 0 0 0 0 0 0 0 0 0 0 0 0
0.824824 2.29208e-05 1.01591e-05 1.27617e-05 0.556772 0.93044 0 0 0 0 0 0 0 0 0 0 0 0 0 0 0 0 0 0 0 0 0 0 0 0 0 0 0 0 0 0 0 0 0 0 0 0 0 0 0 0 0 0
0.867162 2.29475e-05 1.01772e-05 1.27703e-05 0.556502 0.930422 0 0 0 0 0 0 0 0 0 0 0 0 0 0 0 0 0 0 0 0 0 0 0 0 0 0 0 0 0 0 0 0 0 0 0 0 0 0 0 0 0 0
0.911674 2.29749e-05 1.0196e-05 1.27789e-05 0.556212 0.930395 0 0 0 0 0 0 0 0 0 0 0 0 0 0 0 0 0 0 0 0 0 0 0 0 0 0 0 0 0 0 0 0 0 0 0 0 0 0 0 0 0 0
0.95847 2.30035e-05 1.02154e-05 1.27881e-05 0.555919 0.93036 0 0 0 0 0 0 0 0 0 0 0 0 0 0 0 0 0 0 0 0 0 0 0 0 0 0 0 0 0 0 0 0 0 0 0 0 0 0 0 0 0 0
1.00767 2.30328e-05 1.02357e-05 1.27971e-05 0.555603 0.93032 0 0 0 0 0 0 0 0 0 0 0 0 0 0 0 0 0 0 0 0 0 0 0 0 0 0 0 0 0 0 0 0 0 0 0 0 0 0 0 0 0 0
1.05939 2.30629e-05 1.02569e-05 1.2806e-05 0.555263 0.930279 0 0 0 0 0 0 0 0 0 0 0 0 0 0 0 0 0 0 0 0 0 0 0 0 0 0 0 0 0 0 0 0 0 0 0 0 0 0 0 0 0 0
1.11377 2.30942e-05 1.0279e-05 1.28152e-05 0.55491 0.930235 0 0 0 0 0 0 0 0 0 0 0 0 0 0 0 0 0 0 0 0 0 0 0 0 0 0 0 0 0 0 0 0 0 0 0 0 0 0 0 0 0 0
1.17094 2.3127e-05 1.03022e-05 1.28249e-05 0.554541 0.930197 0 0 0 0 0 0 0 0 0 0 0 0 0 0 0 0 0 0 0 0 0 0 0 0 0 0 0 0 0 0 0 0 0 0 0 0 0 0 0 0 0 0
1.23105 2.31611e-05 1.03263e-05 1.28348e-05 0.554155 0.930157 0 0 0 0 0 0 0 0 0 0 0 0 0 0 0 0 0 0 0 0 0 0 0 0 0 0 0 0 0 0 0 0 0 0 0 0 0 0 0 0 0 0
1.29424 2.31959e-05 1.03515e-05 1.28444e-05 0.553736 0.930121 0 0 0 0 0 0 0 0 0 0 0 0 0 0 0 0 0 0 0 0 0 0 0 0 0 0 0 0 0 0 0 0 0 0 0 0 0 0 0 0 0 0
1.36067 2.32317e-05 1.03773e-05 1.28544e-05 0.553315 0.930044 0 0 0 0 0 0 0 0 0 0 0 0 0 0 0 0 0 0 0 0 0 0 0 0 0 0 0 0 0 0 0 0 0 0 0 0 0 0 0 0 0 0
1.43051 2.32682e-05 1.04045e-05 1.28637e-05 0.552843 0.929991 0 0 0 0 0 0 0 0 0 0 0 0 0 0 0 0 0 0 0 0 0 0 0 0 0 0 0 0 0 0 0 0 0 0 0 0 0 0 0 0 0 0
1.50394 2.33041e-05 1.04327e-05 1.28714e-05 0.552325 0.929907 0 0 0 0 0 0 0 0 0 0 0 0 0 0 0 0 0 0 0 0 0 0 0 0 0 0 0 0 0 0 0 0 0 0 0 0 0 0 0 0 0 0
1.58114 2.33412e-05 1.04619e-05 1.28793e-05 0.551786 0.929814 0 0 0 0 0 0 0 0 0 0 0 0 0 0 0 0 0 0 0 0 0 0 0 0 0 0 0 0 0 0 0 0 0 0 0 0 0 0 0 0 0 0
1.6623 2.3385e-05 1.04925e-05 1.28925e-05 0.551315 0.929766 0 0 0 0 0 0 0 0 0 0 0 0 0 0 0 0 0 0 0 0 0 0 0 0 0 0 0 0 0 0 0 0 0 0 0 0 0 0 0 0 0 0
1.74763 2.34362e-05 1.05242e-05 1.2912e-05 0.550943 0.929737 0 0 0 0 0 0 0 0 0 0 0 0 0 0 0 0 0 0 0 0 0 0 0 0 0 0 0 0 0 0 0 0 0 0 0 0 0 0 0 0 0 0
1.83733 2.34742e-05 1.05572e-05 1.2917e-05 0.550264 0.929635 0 0 0 0 0 0 0 0 0 0 0 0 0 0 0 0 0 0 0 0 0 0 0 0 0 0 0 0 0 0 0 0 0 0 0 0 0 0 0 0 0 0
1.93164 2.35051e-05 1.05914e-05 1.29137e-05 0.549399 0.929476 0 0 0 0 0 0 0 0 0 0 0 0 0 0 0 0 0 0 0 0 0 0 0 0 0 0 0 0 0 0 0 0 0 0 0 0 0 0 0 0 0 0
2.03079 2.3575e-05 1.06265e-05 1.29485e-05 0.549246 0.929489 0 0 0 0 0 0 0 0 0 0 0 0 0 0 0 0 0 0 0 0 0 0 0 0 0 0 0 0 0 0 0 0 0 0 0 0 0 0 0 0 0 0
2.13503 2.36145e-05 1.06631e-05 1.29514e-05 0.548451 0.929347 0 0 0 0 0 0 0 0 0 0 0 0 0 0 0 0 0 0 0 0 0 0 0 0 0 0 0 0 0 0 0 0 0 0 0 0 0 0 0 0 0 0
2.24463 2.36459e-05 1.0701e-05 1.2945e-05 0.54745 0.929137 0 0 0 0 0 0 0 0 0 0 0 0 0 0 0 0 0 0 0 0 0 0 0 0 0 0 0 0 0 0 0 0 0 0 0 0 0 0 0 0 0 0
2.35984 2.37397e-05 1.07399e-05 1.29998e-05 0.547598 0.929243 0 0 0 0 0 0 0 0 0 0 0 0 0 0 0 0 0 0 0 0 0 0 0 0 0 0 0 0 0 0 0 0 0 0 0 0 0 0 0 0 0 0
2.48097 2.37308e-05 1.07809e-05 1.29498e-05 0.545698 0.928809 0 0 0 0 0 0 0 0 0 0 0 0 0 0 0 0 0 0 0 0 0 0 0 0 0 0 0 0 0 0 0 0 0 0 0 0 0 0 0 0 0 0
2.60832 2.38606e-05 1.08224e-05 1.30382e-05 0.546431 0.929071 0 0 0 0 0 0 0 0 0 0 0 0 0 0 0 0 0 0 0 0 0 0 0 0 0 0 0 0 0 0 0 0 0 0 0 0 0 0 0 0 0 0
2.74221 2.38321e-05 1.08654e-05 1.29667e-05 0.544084 0.928428 0 0 0 0 0 0 0 0 0 0 0 0 0 0 0 0 0 0 0 0 0 0 0 0 0 0 0 0 0 0 0 0 0 0 0 0 0 0 0 0 0 0
2.88297 2.39946e-05 1.09103e-05 1.30844e-05 0.545304 0.928901 0 0 0 0 0 0 0 0 0 0 0 0 0 0 0 0 0 0 0 0 0 0 0 0 0 0 0 0 0 0 0 0 0 0 0 0 0 0 0 0 0 0
3.03095 2.39327e-05 1.09565e-05 1.29762e-05 0.542195 0.928059 0 0 0 0 0 0 0 0 0 0 0 0 0 0 0 0 0 0 0 0 0 0 0 0 0 0 0 0 0 0 0 0 0 0 0 0 0 0 0 0 0 0
3.18653 2.41219e-05 1.10044e-05 1.31175e-05 0.543802 0.92856 0 0 0 0 0 0 0 0 0 0 0 0 0 0 0 0 0 0 0 0 0 0 0 0 0 0 0 0 0 0 0 0 0 0 0 0 0 0 0 0 0 0
3.35009 2.40887e-05 1.10542e-05 1.30345e-05 0.541105 0.927881 0 0 0 0 0 0 0 0 0 0 0 0 0 0 0 0 0 0 0 0 0 0 0 0 0 0 0 0 0 0 0 0 0 0 0 0 0 0 0 0 0 0
3.52205 2.41786e-05 1.11073e-05 1.30713e-05 0.540616 0.927911 0 0 0 0 0 0 0 0 0 0 0 0 0 0 0 0 0 0 0 0 0 0 0 0 0 0 0 0 0 0 0 0 0 0 0 0 0 0 0 0 0 0
3.70284 2.43525e-05 1.11584e-05 1.31941e-05 0.541797 0.928282 0 0 0 0 0 0 0 0 0 0 0 0 0 0 0 0 0 0 0 0 0 0 0 0 0 0 0 0 0 0 0 0 0 0 0 0 0 0 0 0 0 0
3.89291 2.42028e-05 1.12112e-05 1.29916e-05 0.536782 0.92672 0 0 0 0 0 0 0 0 0 0 0 0 0 0 0 0 0 0 0 0 0 0 0 0 0 0 0 0 0 0 0 0 0 0 0 0 0 0 0 0 0 0
4.09273 2.45034e-05 1.1264e-05 1.32394e-05 0.540309 0.927764 0 0 0 0 0 0 0 0 0 0 0 0 0 0 0 0 0 0 0 0 0 0 0 0 0 0 0 0 0 0 0 0 0 0 0 0 0 0 0 0 0 0
4.30281 2.45525e-05 1.13231e-05 1.32294e-05 0.538822 0.92765 0 0 0 0 0 0 0 0 0 0 0 0 0 0 0 0 0 0 0 0 0 0 0 0 0 0 0 0 0 0 0 0 0 0 0 0 0 0 0 0 0 0
4.52368 2.43681e-05 1.13819e-05 1.29862e-05 0.532917 0.926114 0 0 0 0 0 0 0 0 0 0 0 0 0 0 0 0 0 0 0 0 0 0 0 0 0 0 0 0 0 0 0 0 0 0 0 0 0 0 0 0 0 0
4.75588 2.48196e-05 1.14422e-05 1.33775e-05 0.538987 0.92783 0 0 0 0 0 0 0 0 0 0 0 0 0 0 0 0 0 0 0 0 0 0 0 0 0 0 0 0 0 0 0 0 0 0 0 0 0 0 0 0 0 0
5 2.48385e-05 1.15012e-05 1.33372e-05 0.536959 0.927094 0 0 0 0 0 0 0 0 0 0 0 0 0 0 0 0 0 0 0 0 0 0 0 0 0 0 0 0 0 0 0 0 0 0 0 0 0 0 0 0 0 0
5.25665 2.45221e-05 1.15751e-05 1.2947e-05 0.527971 0.925439 0 0 0 0 0 0 0 0 0 0 0 0 0 0 0 0 0 0 0 0 0 0 0 0 0 0 0 0 0 0 0 0 0 0 0 0 0 0 0 0 0 0
5.52648 2.51019e-05 1.16739e-05 1.3428e-05 0.53494 0.929496 0 0 0 0 0 0 0 0 0 0 0 0 0 0 0 0 0 0 0 0 0 0 0 0 0 0 0 0 0 0 0 0 0 0 0 0 0 0 0 0 0 0
5.81015 2.52484e-05 1.18007e-05 1.34477e-05 0.532618 0.931472 0 0 0 0 0 0 0 0 0 0 0 0 0 0 0 0 0 0 0 0 0 0 0 0 0 0 0 0 0 0 0 0 0 0 0 0 0 0 0 0 0 0
6.10839 2.47189e-05 1.19281e-05 1.27908e-05 0.517451 0.929081 0 0 0 0 0 0 0 0 0 0 0 0 0 0 0 0 0 0 0 0 0 0 0 0 0 0 0 0 0 0 0 0 0 0 0 0 0 0 0 0 0 0
6.42193 2.53666e-05 1.20516e-05 1.3315e-05 0.524905 0.932631 0 0 0 0 0 0 0 0 0 0 0 0 0 0 0 0 0 0 0 0 0 0 0 0 0 0 0 0 0 0 0 0 0 0 0 0 0 0 0 0 0 0
6.75157 2.56779e-05 1.21464e-05 1.35316e-05 0.526972 0.936481 0 0 0 0 0 0 0 0 0 0 0 0 0 0 0 0 0 0 0 0 0 0 0 0 0 0 0 0 0 0 0 0 0 0 0 0 0 0 0 0 0 0
7.09813 2.49023e-05 1.23438e-05 1.25585e-05 0.50431 0.939555 0 0 0 0 0 0 0 0 0 0 0 0 0 0 0 0 0 0 0 0 0 0 0 0 0 0 0 0 0 0 0 0 0 0 0 0 0 0 0 0 0 0
7.46248 2.60772e-05 1.28456e-05 1.32316e-05 0.507401 0.951476 0 0 0 0 0 0 0 0 0 0 0 0 0 0 0 0 0 0 0 0 0 0 0 0 0 0 0 0 0 0 0 0 0 0 0 0 0 0 0 0 0 0
7.84553 2.50308e-05 1.28644e-05 1.21665e-05 0.486059 0.962315 0 0 0 0 0 0 0 0 0 0 0 0 0 0 0 0 0 0 0 0 0 0 0 0 0 0 0 0 0 0 0 0 0 0 0 0 0 0 0 0 0 0
8.24824 2.38818e-05 1.22371e-05 1.16447e-05 0.487597 0.954675 0 0 0 0 0 0 0 0 0 0 0 0 0 0 0 0 0 0 0 0 0 0 0 0 0 0 0 0 0 0 0 0 0 0 0 0 0 0 0 0 0 0
8.67162 2.42425e-05 1.18549e-05 1.23876e-05 0.510988 0.929575 0 0 0 0 0 0 0 0 0 0 0 0 0 0 0 0 0 0 0 0 0 0 0 0 0 0 0 0 0 0 0 0 0 0 0 0 0 0 0 0 0 0
9.11674 2.5001e-05 1.14399e-05 1.35611e-05 0.542422 0.889961 0 0 0 0 0 0 0 0 0 0 0 0 0 0 0 0 0 0 0 0 0 0 0 0 0 0 0 0 0 0 0 0 0 0 0 0 0 0 0 0 0 0
9.5847 2.58027e-05 1.13881e-05 1.44146e-05 0.558646 0.858589 0 0 0 0 0 0 0 0 0 0 0 0 0 0 0 0 0 0 0 0 0 0 0 0 0 0 0 0 0 0 0 0 0 0 0 0 0 0 0 0 0 0
10.0767 2.6221e-05 1.14971e-05 1.47239e-05 0.561532 0.845298 0 0 0 0 0 0 0 0 0 0 0 0 0 0 0 0 0 0 0 0 0 0 0 0 0 0 0 0 0 0 0 0 0 0 0 0 0 0 0 0 0 0
10.5939 2.65386e-05 1.15515e-05 1.49871e-05 0.564729 0.832499 0 0 0 0 0 0 0 0 0 0 0 0 0 0 0 0 0 0 0 0 0 0 0 0 0 0 0 0 0 0 0 0 0 0 0 0 0 0 0 0 0 0
11.1377 2.66581e-05 1.17095e-05 1.49485e-05 0.560751 0.830374 0 0 0 0 0 0 0 0 0 0 0 0 0 0 0 0 0 0 0 0 0 0 0 0 0 0 0 0 0 0 0 0 0 0 0 0 0 0 0 0 0 0
11.7094 2.67413e-05 1.18607e-05 1.48806e-05 0.556464 0.829761 0 0 0 0 0 0 0 0 0 0 0 0 0 0 0 0 0 0 0 0 0 0 0 0 0 0 0 0 0 0 0 0 0 0 0 0 0 0 0 0 0 0
12.3105 2.67996e-05 1.20523e-05 1.47473e-05 0.550281 0.832094 0 0 0 0 0 0 0 0 0 0 0 0 0 0 0 0 0 0 0 0 0 0 0 0 0 0 0 0 0 0 0 0 0 0 0 0 0 0 0 0 0 0
12.9424 2.68643e-05 1.23119e-05 1.45524e-05 0.5417 0.838184 0 0 0 0 0 0 0 0 0 0 0 0 0 0 0 0 0 0 0 0 0 0 0 0 0 0 0 0 1.4013e-45 0 2.8026e-45 0 5.60519e-45 0 1.4013e-44 0 3.22299e-44 0 6.86636e-44 0 1.38729e-43 0
13.6067 2.69581e-05 1.26632e-05 1.42949e-05 0.530263 0.848676 0 0 0 0 0 0 0 0 0 0 0 0 0 0 0 0 0 0 0 0 1.4013e-45 0 7.00649e-45 0 2.38221e-44 0 7.28675e-44 0 2.03188e-43 0 5.08671e-43 0 1.21773e-42 0 2.70451e-42 0 5.75794e-42 0 1.17765e-41 0 2.31677e-41 0
14.3051 2.7073e-05 1.30827e-05 1.39903e-05 0.516762 0.86233 0 0 0 0 0 0 0 0 0 0 0 0 0 0 2.8026e-45 0 1.96182e-44 0 9.3887e-44 0 3.89561e-43 0 1.39289e-42 0 4.39727e-42 0 1.2344e-41 0 3.29487e-41 0 7.8952e-41 0 1.81037e-40 0 3.86578e-40 0 7.93293e-40 0 1.5667e-39 0 2.98182e-39 0
15.0394 2.71651e-05 1.33441e-05 1.3821e-05 0.508778 0.868347 0 0 0 0 0 0 0 0 0 0 5.60519e-45 0 7.14662e-44 0 5.61921e-43 0 3.36732e-42 0 1.54437e-41 0 5.98074e-41 0 2.00915e-40 0 5.99614e-40 0 1.60046e-39 0 4.07192e-39 0 9.34967e-39 0 2.05874e-38 0 4.2363e-38 0 8.39346e-38 0 1.60348e-37 0 2.95742e-37 0
15.8114 2.72437e-05 1.34432e-05 1.38005e-05 0.506558 0.865879 0 0 0 0 0 0 1.4013e-45 0 5.1848e-44 0 1.05238e-42 0 1.15789e-41 0 8.26976e-41 0 4.54368e-40 0 1.93424e-39 0 7.01149e-39 0 2.22012e-38 0 6.28131e-38 0 1.59811e-37 0 3.88471e-37 0 8.56507e-37 0 1.81468e-36 0 3.60482e-36 0 6.9078e-36 0 1.27861e-35 0 2.28879e-35 0
16.623 2.73791e-05 1.34303e-05 1.39488e-05 0.50947 0.856147 0 0 0 0 0 0 1.80768e-43 0 8.36575e-42 0 1.47349e-40 0 1.44134e-39 0 9.35188e-39 0 4.7281e-38 0 1.87531e-37 0 6.38361e-37 0 1.9107e-36 0 5.13824e-36 0 1.24902e-35 0 2.90729e-35 0 6.1673e-35 0 1.25963e-34 0 2.41977e-34 0 4.492e-34 0 8.06829e-34 0 1.4038e-33 0
17.4762 2.76347e-05 1.33598e-05 1.42749e-05 0.516557 0.840718 0 0 0 0 1.16308e-43 0 2.70409e-41 0 1.04057e-39 0 1.59335e-38 0 1.39435e-37 0 8.25758e-37 0 3.85726e-36 0 1.43038e-35 0 4.58637e-35 0 1.30121e-34 0 3.33422e-34 0 7.76097e-34 0 1.73348e-33 0 3.54471e-33 0 6.99175e-33 0 1.30099e-32 0 2.34327e-32 0 4.09021e-32 0 6.92669e-32 0
18.3733 2.79883e-05 1.32796e-05 1.47087e-05 0.525531 0.822582 0 0 1.4013e-45 0 1.75863e-41 0 3.13476e-39 0 1.00936e-37 0 1.35278e-36 0 1.06486e-35 0 5.78174e-35 0 2.50496e-34 0 8.71329e-34 0 2.63934e-33 0 7.11645e-33 0 1.74164e-32 0 3.89013e-32 0 8.35465e-32 0 1.64976e-31 0 3.14792e-31 0 5.68256e-31 0 9.94523e-31 0 1.68938e-30 0 2.78828e-30 0
19.3164 2.83404e-05 1.3216e-05 1.51244e-05 0.533668 0.805245 0 0 1.91978e-43 0 2.05855e-39 0 2.84893e-37 0 7.74293e-36 0 9.14225e-35 0 6.50684e-34 0 3.25282e-33 0 1.31194e-32 0 4.29401e-32 0 1.23219e-31 0 3.16529e-31 0 7.41531e-31 0 1.59256e-30 0 3.29498e-30 0 6.29388e-30 0 1.16364e-29 0 2.04088e-29 0 3.47552e-29 0 5.75303e-29 0 9.26578e-29 0
