# 1.4125e-05 0 104 : grain size, compostion index, size index
# Heating and cooling timescale: 0.0139621 192834
# Ratio of heating to cooling to determine stochastic cutoff: 100
# Equilibrium emission is recorded even for those grains in the stochastic regime.
# Emission spectrum was computed for: 
# Type: IRSF
# Scales: 0.25 0.5 1 1.5 2 2.5 3 3.5 4 4.5 5 5.5 6 6.5 7 7.5 8 8.5 9 9.5 10
# StochasticallyHeated: 0 0 0 0 0 0 0 0 0 0 0 0 0 0 0 0 0 0 0 0 0
# Temperature: -1
# Wavelength  CExt  CAbs  CSca  Albedo G EqEm1 StEm1 EqEm2 StEm2 EqEm3 StEm3 EqEm4 StEm4 EqEm5 StEm5 EqEm6 StEm6 EqEm7 StEm7 EqEm8 StEm8 EqEm9 StEm9 EqEm10 StEm10 EqEm11 StEm11 EqEm12 StEm12 EqEm13 StEm13 EqEm14 StEm14 EqEm15 StEm15 EqEm16 StEm16 EqEm17 StEm17 EqEm18 StEm18 EqEm19 StEm19 EqEm20 StEm20 EqEm21 StEm21
0.05 3.87754e-10 1.65419e-10 2.22334e-10 0.57339 0.00576547 0 0 0 0 0 0 0 0 0 0 0 0 0 0 0 0 0 0 0 0 0 0 0 0 0 0 0 0 0 0 0 0 0 0 0 0 0 0 0 0 0 0
0.0525665 4.28582e-10 1.82837e-10 2.45745e-10 0.57339 0.00637255 0 0 0 0 0 0 0 0 0 0 0 0 0 0 0 0 0 0 0 0 0 0 0 0 0 0 0 0 0 0 0 0 0 0 0 0 0 0 0 0 0 0
0.0552647 4.7371e-10 2.02089e-10 2.71621e-10 0.57339 0.00704355 0 0 0 0 0 0 0 0 0 0 0 0 0 0 0 0 0 0 0 0 0 0 0 0 0 0 0 0 0 0 0 0 0 0 0 0 0 0 0 0 0 0
0.0581015 5.23589e-10 2.23368e-10 3.00221e-10 0.57339 0.0077852 0 0 0 0 0 0 0 0 0 0 0 0 0 0 0 0 0 0 0 0 0 0 0 0 0 0 0 0 0 0 0 0 0 0 0 0 0 0 0 0 0 0
0.0610839 5.78721e-10 2.46888e-10 3.31833e-10 0.57339 0.00860494 0 0 0 0 0 0 0 0 0 0 0 0 0 0 0 0 0 0 0 0 0 0 0 0 0 0 0 0 0 0 0 0 0 0 0 0 0 0 0 0 0 0
0.0642193 6.39657e-10 2.72884e-10 3.66773e-10 0.57339 0.009511 0 0 0 0 0 0 0 0 0 0 0 0 0 0 0 0 0 0 0 0 0 0 0 0 0 0 0 0 0 0 0 0 0 0 0 0 0 0 0 0 0 0
0.0675157 7.0701e-10 3.01617e-10 4.05393e-10 0.57339 0.0105125 0 0 0 0 0 0 0 0 0 0 0 0 0 0 0 0 0 0 0 0 0 0 0 0 0 0 0 0 0 0 0 0 0 0 0 0 0 0 0 0 0 0
0.0709813 7.81454e-10 3.33376e-10 4.48078e-10 0.57339 0.0116194 0 0 0 0 0 0 0 0 0 0 0 0 0 0 0 0 0 0 0 0 0 0 0 0 0 0 0 0 0 0 0 0 0 0 0 0 0 0 0 0 0 0
0.0746248 8.63738e-10 3.68479e-10 4.95259e-10 0.57339 0.0128428 0 0 0 0 0 0 0 0 0 0 0 0 0 0 0 0 0 0 0 0 0 0 0 0 0 0 0 0 0 0 0 0 0 0 0 0 0 0 0 0 0 0
0.0784553 9.54685e-10 4.07278e-10 5.47407e-10 0.57339 0.0141951 0 0 0 0 0 0 0 0 0 0 0 0 0 0 0 0 0 0 0 0 0 0 0 0 0 0 0 0 0 0 0 0 0 0 0 0 0 0 0 0 0 0
0.0824824 1.05521e-09 4.50162e-10 6.05047e-10 0.57339 0.0156898 0 0 0 0 0 0 0 0 0 0 0 0 0 0 0 0 0 0 0 0 0 0 0 0 0 0 0 0 0 0 0 0 0 0 0 0 0 0 0 0 0 0
0.0867162 1.16632e-09 4.97563e-10 6.68755e-10 0.57339 0.0173419 0 0 0 0 0 0 0 0 0 0 0 0 0 0 0 0 0 0 0 0 0 0 0 0 0 0 0 0 0 0 0 0 0 0 0 0 0 0 0 0 0 0
0.0911674 1.28913e-09 5.49954e-10 7.39172e-10 0.57339 0.0191679 0 0 0 0 0 0 0 0 0 0 0 0 0 0 0 0 0 0 0 0 0 0 0 0 0 0 0 0 0 0 0 0 0 0 0 0 0 0 0 0 0 0
0.095847 1.42486e-09 6.07861e-10 8.17003e-10 0.57339 0.0211862 0 0 0 0 0 0 0 0 0 0 0 0 0 0 0 0 0 0 0 0 0 0 0 0 0 0 0 0 0 0 0 0 0 0 0 0 0 0 0 0 0 0
0.100767 1.54939e-09 6.65872e-10 8.8352e-10 0.570237 0.0235692 0 0 0 0 0 0 0 0 0 0 0 0 0 0 0 0 0 0 0 0 0 0 0 0 0 0 0 0 0 0 0 0 0 0 0 0 0 0 0 0 0 0
0.105939 1.54526e-09 6.93084e-10 8.52177e-10 0.551478 0.0256046 0 0 0 0 0 0 0 0 0 0 0 0 0 0 0 0 0 0 0 0 0 0 0 0 0 0 0 0 0 0 0 0 0 0 0 0 0 0 0 0 0 0
0.111377 1.54986e-09 7.03319e-10 8.46537e-10 0.546204 0.0289403 0 0 0 0 0 0 0 0 0 0 0 0 0 0 0 0 0 0 0 0 0 0 0 0 0 0 0 0 0 0 0 0 0 0 0 0 0 0 0 0 0 0
0.117094 1.55106e-09 7.29257e-10 8.21798e-10 0.529831 0.0274507 0 0 0 0 0 0 0 0 0 0 0 0 0 0 0 0 0 0 0 0 0 0 0 0 0 0 0 0 0 0 0 0 0 0 0 0 0 0 0 0 0 0
0.123105 1.55893e-09 7.64155e-10 7.94771e-10 0.509819 0.0236555 0 0 0 0 0 0 0 0 0 0 0 0 0 0 0 0 0 0 0 0 0 0 0 0 0 0 0 0 0 0 0 0 0 0 0 0 0 0 0 0 0 0
0.129424 1.5778e-09 7.94892e-10 7.82903e-10 0.496201 0.0199126 0 0 0 0 0 0 0 0 0 0 0 0 0 0 0 0 0 0 0 0 0 0 0 0 0 0 0 0 0 0 0 0 0 0 0 0 0 0 0 0 0 0
0.136067 1.57797e-09 8.22845e-10 7.55125e-10 0.478542 0.0168557 0 0 0 0 0 0 0 0 0 0 0 0 0 0 0 0 0 0 0 0 0 0 0 0 0 0 0 0 0 0 0 0 0 0 0 0 0 0 0 0 0 0
0.143051 1.57362e-09 8.40803e-10 7.32817e-10 0.465689 0.0143876 0 0 0 0 0 0 0 0 0 0 0 0 0 0 0 0 0 0 0 0 0 0 0 0 0 0 0 0 0 0 0 0 0 0 0 0 0 0 0 0 0 0
0.150394 1.60318e-09 8.41643e-10 7.61538e-10 0.475017 0.0122986 0 0 0 0 0 0 0 0 0 0 0 0 0 0 0 0 0 0 0 0 0 0 0 0 0 0 0 0 0 0 0 0 0 0 0 0 0 0 0 0 0 0
0.158114 1.58081e-09 8.28601e-10 7.52209e-10 0.475838 0.01055 0 0 0 0 0 0 0 0 0 0 0 0 0 0 0 0 0 0 0 0 0 0 0 0 0 0 0 0 0 0 0 0 0 0 0 0 0 0 0 0 0 0
0.16623 1.49033e-09 8.09775e-10 6.80556e-10 0.456648 0.00908216 0 0 0 0 0 0 0 0 0 0 0 0 0 0 0 0 0 0 0 0 0 0 0 0 0 0 0 0 0 0 0 0 0 0 0 0 0 0 0 0 0 0
0.174762 1.41675e-09 7.91755e-10 6.24997e-10 0.441148 0.00782097 0 0 0 0 0 0 0 0 0 0 0 0 0 0 0 0 0 0 0 0 0 0 0 0 0 0 0 0 0 0 0 0 0 0 0 0 0 0 0 0 0 0
0.183733 1.40229e-09 7.74513e-10 6.2778e-10 0.447681 0.00667218 0 0 0 0 0 0 0 0 0 0 0 0 0 0 0 0 0 0 0 0 0 0 0 0 0 0 0 0 0 0 0 0 0 0 0 0 0 0 0 0 0 0
0.193164 1.4575e-09 7.61247e-10 6.9625e-10 0.477702 0.00556038 0 0 0 0 0 0 0 0 0 0 0 0 0 0 0 0 0 0 0 0 0 0 0 0 0 0 0 0 0 0 0 0 0 0 0 0 0 0 0 0 0 0
0.203079 1.55897e-09 7.57728e-10 8.01242e-10 0.513956 0.00446034 0 0 0 0 0 0 0 0 0 0 0 0 0 0 0 0 0 0 0 0 0 0 0 0 0 0 0 0 0 0 0 0 0 0 0 0 0 0 0 0 0 0
0.213503 1.67622e-09 7.66146e-10 9.10078e-10 0.542933 0.00342932 0 0 0 0 0 0 0 0 0 0 0 0 0 0 0 0 0 0 0 0 0 0 0 0 0 0 0 0 0 0 0 0 0 0 0 0 0 0 0 0 0 0
0.224463 1.77848e-09 7.77015e-10 1.00146e-09 0.563102 0.00254317 0 0 0 0 0 0 0 0 0 0 0 0 0 0 0 0 0 0 0 0 0 0 0 0 0 0 0 0 0 0 0 0 0 0 0 0 0 0 0 0 0 0
0.235984 1.8385e-09 7.7619e-10 1.06231e-09 0.577814 0.00182186 0 0 0 0 0 0 0 0 0 0 0 0 0 0 0 0 0 0 0 0 0 0 0 0 0 0 0 0 0 0 0 0 0 0 0 0 0 0 0 0 0 0
0.248097 1.85462e-09 7.66691e-10 1.08793e-09 0.586605 0.00138916 0 0 0 0 0 0 0 0 0 0 0 0 0 0 0 0 0 0 0 0 0 0 0 0 0 0 0 0 0 0 0 0 0 0 0 0 0 0 0 0 0 0
0.260832 1.83404e-09 7.56899e-10 1.07714e-09 0.587305 0.00141961 0 0 0 0 0 0 0 0 0 0 0 0 0 0 0 0 0 0 0 0 0 0 0 0 0 0 0 0 0 0 0 0 0 0 0 0 0 0 0 0 0 0
0.274221 1.79953e-09 7.58536e-10 1.04099e-09 0.578481 0.00187131 0 0 0 0 0 0 0 0 0 0 0 0 0 0 0 0 0 0 0 0 0 0 0 0 0 0 0 0 0 0 0 0 0 0 0 0 0 0 0 0 0 0
0.288297 1.77892e-09 7.82566e-10 9.96352e-10 0.560089 0.00251556 0 0 0 0 0 0 0 0 0 0 0 0 0 0 0 0 0 0 0 0 0 0 0 0 0 0 0 0 0 0 0 0 0 0 0 0 0 0 0 0 0 0
0.303095 1.77755e-09 8.21385e-10 9.56168e-10 0.537913 0.0028362 0 0 0 0 0 0 0 0 0 0 0 0 0 0 0 0 0 0 0 0 0 0 0 0 0 0 0 0 0 0 0 0 0 0 0 0 0 0 0 0 0 0
0.318653 1.7861e-09 8.61628e-10 9.24474e-10 0.517593 0.00297223 0 0 0 0 0 0 0 0 0 0 0 0 0 0 0 0 0 0 0 0 0 0 0 0 0 0 0 0 0 0 0 0 0 0 0 0 0 0 0 0 0 0
0.335009 1.79711e-09 8.96386e-10 9.00727e-10 0.501208 0.00293231 0 0 0 0 0 0 0 0 0 0 0 0 0 0 0 0 0 0 0 0 0 0 0 0 0 0 0 0 0 0 0 0 0 0 0 0 0 0 0 0 0 0
0.352205 1.80832e-09 9.223e-10 8.86019e-10 0.489968 0.00278811 0 0 0 0 0 0 0 0 0 0 0 0 0 0 0 0 0 0 0 0 0 0 0 0 0 0 0 0 0 0 0 0 0 0 0 0 0 0 0 0 0 0
0.370284 1.82069e-09 9.38943e-10 8.81747e-10 0.484293 0.00261033 0 0 0 0 0 0 0 0 0 0 0 0 0 0 0 0 0 0 0 0 0 0 0 0 0 0 0 0 0 0 0 0 0 0 0 0 0 0 0 0 0 0
0.389291 1.83827e-09 9.51317e-10 8.86956e-10 0.482494 0.00243645 0 0 0 0 0 0 0 0 0 0 0 0 0 0 0 0 0 0 0 0 0 0 0 0 0 0 0 0 0 0 0 0 0 0 0 0 0 0 0 0 0 0
0.409273 1.86305e-09 9.65292e-10 8.97759e-10 0.481876 0.00226652 0 0 0 0 0 0 0 0 0 0 0 0 0 0 0 0 0 0 0 0 0 0 0 0 0 0 0 0 0 0 0 0 0 0 0 0 0 0 0 0 0 0
0.430281 1.89244e-09 9.8283e-10 9.0961e-10 0.480655 0.00210471 0 0 0 0 0 0 0 0 0 0 0 0 0 0 0 0 0 0 0 0 0 0 0 0 0 0 0 0 0 0 0 0 0 0 0 0 0 0 0 0 0 0
0.452368 1.92059e-09 1.002e-09 9.18591e-10 0.478287 0.00193723 0 0 0 0 0 0 0 0 0 0 0 0 0 0 0 0 0 0 0 0 0 0 0 0 0 0 0 0 0 0 0 0 0 0 0 0 0 0 0 0 0 0
0.475588 1.94115e-09 1.01863e-09 9.22524e-10 0.475245 0.00177642 0 0 0 0 0 0 0 0 0 0 0 0 0 0 0 0 0 0 0 0 0 0 0 0 0 0 0 0 0 0 0 0 0 0 0 0 0 0 0 0 0 0
0.5 1.95016e-09 1.02848e-09 9.21678e-10 0.472616 0.00162159 0 0 0 0 0 0 0 0 0 0 0 0 0 0 0 0 0 0 0 0 0 0 0 0 0 0 0 0 0 0 0 0 0 0 0 0 0 0 0 0 0 0
0.525665 1.94929e-09 1.02997e-09 9.19317e-10 0.471616 0.0014751 0 0 0 0 0 0 0 0 0 0 0 0 0 0 0 0 0 0 0 0 0 0 0 0 0 0 0 0 0 0 0 0 0 0 0 0 0 0 0 0 0 0
0.552648 1.94521e-09 1.02519e-09 9.20023e-10 0.472968 0.00134175 0 0 0 0 0 0 0 0 0 0 0 0 0 0 0 0 0 0 0 0 0 0 0 0 0 0 0 0 0 0 0 0 0 0 0 0 0 0 0 0 0 0
0.581015 1.94593e-09 1.0187e-09 9.27226e-10 0.476495 0.00121775 0 0 0 0 0 0 0 0 0 0 0 0 0 0 0 0 0 0 0 0 0 0 0 0 0 0 0 0 0 0 0 0 0 0 0 0 0 0 0 0 0 0
0.610839 1.95671e-09 1.01583e-09 9.40877e-10 0.480846 0.00110516 0 0 0 0 0 0 0 0 0 0 0 0 0 0 0 0 0 0 0 0 0 0 0 0 0 0 0 0 0 0 0 0 0 0 0 0 0 0 0 0 0 0
0.642193 1.9778e-09 1.01996e-09 9.57847e-10 0.484299 0.00100302 0 0 0 0 0 0 0 0 0 0 0 0 0 0 0 0 0 0 0 0 0 0 0 0 0 0 0 0 0 0 0 0 0 0 0 0 0 0 0 0 0 0
0.675157 2.00531e-09 1.03188e-09 9.73429e-10 0.485425 0.000910957 0 0 0 0 0 0 0 0 0 0 0 0 0 0 0 0 0 0 0 0 0 0 0 0 0 0 0 0 0 0 0 0 0 0 0 0 0 0 0 0 0 0
0.709813 2.03258e-09 1.04981e-09 9.82769e-10 0.483507 0.00082817 0 0 0 0 0 0 0 0 0 0 0 0 0 0 0 0 0 0 0 0 0 0 0 0 0 0 0 0 0 0 0 0 0 0 0 0 0 0 0 0 0 0
0.746248 2.05217e-09 1.07038e-09 9.81782e-10 0.478412 0.000754183 0 0 0 0 0 0 0 0 0 0 0 0 0 0 0 0 0 0 0 0 0 0 0 0 0 0 0 0 0 0 0 0 0 0 0 0 0 0 0 0 0 0
0.784553 2.05731e-09 1.0893e-09 9.68009e-10 0.470522 0.000686995 0 0 0 0 0 0 0 0 0 0 0 0 0 0 0 0 0 0 0 0 0 0 0 0 0 0 0 0 0 0 0 0 0 0 0 0 0 0 0 0 0 0
0.824824 2.04229e-09 1.10228e-09 9.40004e-10 0.460271 0.000626788 0 0 0 0 0 0 0 0 0 0 0 0 0 0 0 0 0 0 0 0 0 0 0 0 0 0 0 0 0 0 0 0 0 0 0 0 0 0 0 0 0 0
0.867162 2.00362e-09 1.10593e-09 8.97692e-10 0.448035 0.000572518 0 0 0 0 0 0 0 0 0 0 0 0 0 0 0 0 0 0 0 0 0 0 0 0 0 0 0 0 0 0 0 0 0 0 0 0 0 0 0 0 0 0
0.911674 1.94055e-09 1.09803e-09 8.42525e-10 0.434167 0.000523427 0 0 0 0 0 0 0 0 0 0 0 0 0 0 0 0 0 0 0 0 0 0 0 0 0 0 0 0 0 0 0 0 0 0 0 0 0 0 0 0 0 0
0.95847 1.85384e-09 1.07725e-09 7.76589e-10 0.418908 0.00047944 0 0 0 0 0 0 0 0 0 0 0 0 0 0 0 0 0 0 0 0 0 0 0 0 0 0 0 0 0 0 0 0 0 0 0 0 0 0 0 0 0 0
1.00767 1.74713e-09 1.04392e-09 7.03206e-10 0.402493 0.0004395 0 0 0 0 0 0 0 0 0 0 0 0 0 0 0 0 0 0 0 0 0 0 0 0 0 0 0 0 0 0 0 0 0 0 0 0 0 0 0 0 0 0
1.05939 1.6253e-09 9.99425e-10 6.25872e-10 0.385082 0.000403275 0 0 0 0 0 0 0 0 0 0 0 0 0 0 0 0 0 0 0 0 0 0 0 0 0 0 0 0 0 0 0 0 0 0 0 0 0 0 0 0 0 0
1.11377 1.49339e-09 9.4546e-10 5.47931e-10 0.366904 0.000370298 0 0 0 0 0 0 0 0 0 0 0 0 0 0 0 0 0 0 0 0 0 0 0 0 0 0 0 0 0 0 0 0 0 0 0 0 0 0 0 0 0 0
1.17094 1.35814e-09 8.85157e-10 4.72981e-10 0.348257 0.000339515 0 0 0 0 0 0 0 0 0 0 0 0 0 0 0 0 0 0 0 0 0 0 0 0 0 0 0 0 0 0 0 0 0 0 0 0 0 0 0 0 0 0
1.23105 1.22371e-09 8.20723e-10 4.02984e-10 0.329314 0.000311294 0 0 0 0 0 0 0 0 0 0 0 0 0 0 0 0 0 0 0 0 0 0 0 0 0 0 0 0 0 0 0 0 0 0 0 0 0 0 0 0 0 0
1.29424 1.09451e-09 7.54842e-10 3.39664e-10 0.310335 0.000285362 0 0 0 0 0 0 0 0 0 0 0 0 0 0 0 0 0 0 0 0 0 0 0 0 0 0 0 0 0 0 0 0 0 0 0 0 0 0 0 0 0 0
1.36067 9.73253e-10 6.89509e-10 2.83744e-10 0.291542 0.000261742 0 0 0 0 0 0 0 0 0 0 0 0 0 0 0 0 0 0 0 0 0 0 0 0 0 0 0 0 0 0 0 0 0 0 0 0 0 0 0 0 0 0
1.43051 8.61388e-10 6.26164e-10 2.35224e-10 0.273075 0.000240209 0 0 0 0 0 0 0 0 0 0 0 0 0 0 0 0 0 0 0 0 0 0 0 0 0 0 0 0 0 0 0 0 0 0 0 0 0 0 0 0 0 0
1.50394 7.59986e-10 5.66071e-10 1.93915e-10 0.255156 0.000220279 0 0 0 0 0 0 0 0 0 0 0 0 0 0 0 0 0 0 0 0 0 0 0 0 0 0 0 0 0 0 0 0 0 0 0 0 0 0 0 0 0 0
1.58114 6.69063e-10 5.09894e-10 1.59169e-10 0.237899 0.000201732 0 0 0 0 0 0 0 0 0 0 0 0 0 0 0 0 0 0 0 0 0 0 0 0 0 0 0 0 0 0 0 0 0 0 0 0 0 0 0 0 0 0
1.6623 5.88099e-10 4.57902e-10 1.30197e-10 0.221387 0.000184534 0 0 0 0 0 0 0 0 0 0 0 0 0 0 0 0 0 0 0 0 0 0 0 0 0 0 0 0 0 0 0 0 0 0 0 0 0 0 0 0 0 0
1.74763 5.16523e-10 4.1028e-10 1.06242e-10 0.205688 0.000169005 0 0 0 0 0 0 0 0 0 0 0 0 0 0 0 0 0 0 0 0 0 0 0 0 0 0 0 0 0 0 0 0 0 0 0 0 0 0 0 0 0 0
1.83733 4.53478e-10 3.66932e-10 8.65465e-11 0.19085 0.000154804 0 0 0 0 0 0 0 0 0 0 0 0 0 0 0 0 0 0 0 0 0 0 0 0 0 0 0 0 0 0 0 0 0 0 0 0 0 0 0 0 0 0
1.93164 3.98085e-10 3.27673e-10 7.04126e-11 0.176878 0.000141793 0 0 0 0 0 0 0 0 0 0 0 0 0 0 0 0 0 0 0 0 0 0 0 0 0 0 0 0 0 0 0 0 0 0 0 0 0 0 0 0 0 0
2.03079 3.49517e-10 2.92273e-10 5.72438e-11 0.16378 0.000129725 0 0 0 0 0 0 0 0 0 0 0 0 0 0 0 0 0 0 0 0 0 0 0 0 0 0 0 0 0 0 0 0 0 0 0 0 0 0 0 0 0 0
2.13503 3.07008e-10 2.60482e-10 4.65255e-11 0.151545 0.000118657 0 0 0 0 0 0 0 0 0 0 0 0 0 0 0 0 0 0 0 0 0 0 0 0 0 0 0 0 0 0 0 0 0 0 0 0 0 0 0 0 0 0
2.24463 2.69784e-10 2.3198e-10 3.78048e-11 0.14013 0.000108569 0 0 0 0 0 0 0 0 0 0 0 0 0 0 0 0 0 0 0 0 0 0 0 0 0 0 0 0 0 0 0 0 0 0 0 0 0 0 0 0 0 0
2.35984 2.37214e-10 2.06493e-10 3.0721e-11 0.129508 9.92926e-05 0 0 0 0 0 0 0 0 0 0 0 0 0 0 0 0 0 0 0 0 0 0 0 0 0 0 0 0 0 0 0 0 0 0 0 0 0 0 0 0 0 0
2.48097 2.08711e-10 1.83742e-10 2.49682e-11 0.119631 9.07218e-05 0 0 0 0 0 0 0 0 0 0 0 0 0 0 0 0 0 0 0 0 0 0 0 0 0 0 0 0 0 0 0 0 0 0 0 0 0 0 0 0 0 0
2.60832 1.8375e-10 1.63452e-10 2.02981e-11 0.110466 8.27967e-05 0 0 0 0 0 0 0 0 0 0 0 0 0 0 0 0 0 0 0 0 0 0 0 0 0 0 0 0 0 0 0 0 0 0 0 0 0 0 0 0 0 0
2.74221 1.61911e-10 1.45402e-10 1.6509e-11 0.101964 7.55862e-05 0 0 0 0 0 0 0 0 0 0 0 0 0 0 0 0 0 0 0 0 0 0 0 0 0 0 0 0 0 0 0 0 0 0 0 0 0 0 0 0 0 0
2.88297 1.42757e-10 1.29329e-10 1.34287e-11 0.0940664 6.90729e-05 0 0 0 0 0 0 0 0 0 0 0 0 0 0 0 0 0 0 0 0 0 0 0 0 0 0 0 0 0 0 0 0 0 0 0 0 0 0 0 0 0 0
3.03095 1.26006e-10 1.15076e-10 1.09302e-11 0.0867433 6.31538e-05 0 0 0 0 0 0 0 0 0 0 0 0 0 0 0 0 0 0 0 0 0 0 0 0 0 0 0 0 0 0 0 0 0 0 0 0 0 0 0 0 0 0
3.18653 1.11304e-10 1.02405e-10 8.89897e-12 0.0799517 5.76567e-05 0 0 0 0 0 0 0 0 0 0 0 0 0 0 0 0 0 0 0 0 0 0 0 0 0 0 0 0 0 0 0 0 0 0 0 0 0 0 0 0 0 0
3.35009 9.84136e-11 9.11658e-11 7.24782e-12 0.0736465 5.2603e-05 0 0 0 0 0 0 0 0 0 0 0 0 0 0 0 0 0 0 0 0 0 0 0 0 0 0 0 0 0 0 0 0 0 0 0 0 0 0 0 0 0 0
3.52205 8.71162e-11 8.12106e-11 5.90562e-12 0.0677901 4.80102e-05 0 0 0 0 0 0 0 0 0 0 0 0 0 0 0 0 0 0 0 0 0 0 0 0 0 0 0 0 0 0 0 0 0 0 0 0 0 0 0 0 0 0
3.70284 7.72046e-11 7.23911e-11 4.81357e-12 0.0623482 4.38066e-05 0 0 0 0 0 0 0 0 0 0 0 0 0 0 0 0 0 0 0 0 0 0 0 0 0 0 0 0 0 0 0 0 0 0 0 0 0 0 0 0 0 0
3.89291 6.85032e-11 6.45786e-11 3.92461e-12 0.0572909 3.9926e-05 0 0 0 0 0 0 0 0 0 0 0 0 0 0 0 0 0 0 0 0 0 0 0 0 0 0 0 0 0 0 0 0 0 0 0 0 0 0 0 0 0 0
4.09273 6.08709e-11 5.76697e-11 3.2012e-12 0.0525899 3.62643e-05 0 0 0 0 0 0 0 0 0 0 0 0 0 0 0 0 0 0 0 0 0 0 0 0 0 0 0 0 0 0 0 0 0 0 0 0 0 0 0 0 0 0
4.30281 5.41669e-11 5.1555e-11 2.6119e-12 0.0482194 3.29535e-05 0 0 0 0 0 0 0 0 0 0 0 0 0 0 0 0 0 0 0 0 0 0 0 0 0 0 0 0 0 0 0 0 0 0 0 0 1.4013e-45 0 2.8026e-45 0 8.40779e-45 0
4.52368 4.8281e-11 4.6149e-11 2.13196e-12 0.0441573 2.99416e-05 0 0 0 0 0 0 0 0 0 0 0 0 0 0 0 0 0 0 0 0 0 0 0 0 0 0 0 0 1.4013e-45 0 4.2039e-45 0 1.4013e-44 0 4.34403e-44 0 1.28919e-43 0 3.53127e-43 0 9.44475e-43 0
4.75588 4.31083e-11 4.13675e-11 1.74078e-12 0.0403815 2.71796e-05 0 0 0 0 0 0 0 0 0 0 0 0 0 0 0 0 0 0 0 0 0 0 1.4013e-45 0 7.00649e-45 0 3.36312e-44 0 1.33123e-43 0 4.77843e-43 0 1.53863e-42 0 4.64951e-42 0 1.32311e-41 0 3.43444e-41 0 8.75139e-41 0
5 3.85565e-11 3.7135e-11 1.42151e-12 0.0368683 2.45398e-05 0 0 0 0 0 0 0 0 0 0 0 0 0 0 0 0 0 0 4.2039e-45 0 2.8026e-44 0 1.65353e-43 0 8.18358e-43 0 3.57611e-42 0 1.33964e-41 0 4.50616e-41 0 1.37026e-40 0 3.92312e-40 0 1.06086e-39 0 2.62846e-39 0 6.3985e-39 0
5.25665 3.45537e-11 3.33924e-11 1.16127e-12 0.0336077 2.21678e-05 0 0 0 0 0 0 0 0 0 0 0 0 0 0 4.2039e-45 0 5.1848e-44 0 4.52619e-43 0 2.96375e-42 0 1.61191e-41 0 7.39535e-41 0 3.00877e-40 0 1.05668e-39 0 3.34992e-39 0 9.64818e-39 0 2.62402e-38 0 6.75932e-38 0 1.60216e-37 0 3.73438e-37 0
5.52648 3.10276e-11 3.00788e-11 9.48822e-13 0.0305799 2.00489e-05 0 0 0 0 0 0 0 0 0 0 1.4013e-45 0 2.94273e-44 0 4.91856e-43 0 5.27168e-42 0 4.14896e-41 0 2.47759e-40 0 1.24033e-39 0 5.28279e-39 0 2.00696e-38 0 6.62912e-38 0 1.98647e-37 0 5.43329e-37 0 1.40725e-36 0 3.46133e-36 0 7.86585e-36 0 1.7592e-35 0
5.81015 2.79205e-11 2.7145e-11 7.75467e-13 0.0277741 1.8115e-05 0 0 0 0 0 0 0 0 1.4013e-45 0 1.16308e-43 0 3.05343e-42 0 4.42166e-41 0 4.21822e-40 0 3.00191e-39 0 1.64284e-38 0 7.60238e-38 0 3.01682e-37 0 1.0738e-36 0 3.34583e-36 0 9.50298e-36 0 2.4746e-35 0 6.11834e-35 0 1.4402e-34 0 3.14426e-34 0 6.76115e-34 0
6.10839 2.51808e-11 2.45466e-11 6.34115e-13 0.0251825 1.63023e-05 0 0 0 0 0 0 1.4013e-45 0 2.22806e-43 0 1.10226e-41 0 2.47112e-40 0 3.14106e-39 0 2.68408e-38 0 1.73562e-37 0 8.74199e-37 0 3.75387e-36 0 1.39269e-35 0 4.65914e-35 0 1.37337e-34 0 3.70689e-34 0 9.21218e-34 0 2.1792e-33 0 4.91963e-33 0 1.03389e-32 0 2.14161e-32 0
6.42193 2.2607e-11 2.20899e-11 5.17096e-13 0.0228733 1.48144e-05 0 0 0 0 0 0 1.34525e-43 0 2.00862e-41 0 8.19816e-40 0 1.57893e-38 0 1.7727e-37 0 1.36416e-36 0 8.05274e-36 0 3.74815e-35 0 1.49895e-34 0 5.21629e-34 0 1.64516e-33 0 4.60012e-33 0 1.18287e-32 0 2.81181e-32 0 6.37768e-32 0 1.38367e-31 0 2.80431e-31 0 5.60599e-31 0
6.75157 2.06066e-11 2.01833e-11 4.2335e-13 0.0205444 1.32279e-05 0 0 0 0 9.80909e-45 0 1.24197e-41 0 1.44757e-39 0 4.92957e-38 0 8.21739e-37 0 8.19838e-36 0 5.71068e-35 0 3.09115e-34 0 1.3347e-33 0 4.98843e-33 0 1.63342e-32 0 4.87066e-32 0 1.29523e-31 0 3.18044e-31 0 7.2473e-31 0 1.57938e-30 0 3.2994e-30 0 6.46025e-30 0 1.2485e-29 0
7.09813 1.87181e-11 1.83718e-11 3.46242e-13 0.0184977 1.18448e-05 0 0 0 0 1.02575e-42 0 8.97833e-40 0 8.29499e-38 0 2.37782e-36 0 3.45498e-35 0 3.08081e-34 0 1.95195e-33 0 9.72951e-33 0 3.91147e-32 0 1.37077e-31 0 4.23589e-31 0 1.19748e-30 0 3.03591e-30 0 7.13481e-30 0 1.56174e-29 0 3.27643e-29 0 6.60279e-29 0 1.25111e-28 0 2.34133e-28 0
7.46248 1.70435e-11 1.67603e-11 2.83173e-13 0.0166148 1.05694e-05 0 0 0 0 8.25799e-41 0 5.19003e-38 0 3.84433e-36 0 9.3547e-35 0 1.19275e-33 0 9.55818e-33 0 5.5339e-32 0 2.55031e-31 0 9.57945e-31 0 3.15771e-30 0 9.2349e-30 0 2.48154e-29 0 6.01195e-29 0 1.35516e-28 0 2.85499e-28 0 5.77679e-28 0 1.125e-27 0 2.06618e-27 0 3.75015e-27 0
7.84553 1.5558e-11 1.53263e-11 2.31635e-13 0.0148885 9.34187e-06 0 0 5.74532e-44 0 5.28712e-39 0 2.42601e-36 0 1.45633e-34 0 3.03242e-33 0 3.41454e-32 0 2.47189e-31 0 1.31356e-30 0 5.61841e-30 0 1.97833e-29 0 6.15233e-29 0 1.70743e-28 0 4.37193e-28 0 1.01439e-27 0 2.19758e-27 0 4.46436e-27 0 8.72766e-27 0 1.64525e-26 0 2.9333e-26 0 5.17127e-26 0
8.24824 1.42393e-11 1.40498e-11 1.89483e-13 0.013307 8.19911e-06 0 0 5.16799e-42 0 2.72424e-37 0 9.26755e-35 0 4.55517e-33 0 8.1782e-32 0 8.18202e-31 0 5.37755e-30 0 2.63382e-29 0 1.04938e-28 0 3.47479e-28 0 1.02238e-27 0 2.69943e-27 0 6.60184e-27 0 1.47011e-26 0 3.06689e-26 0 6.01843e-26 0 1.13869e-25 0 2.08113e-25 0 3.60713e-25 0 6.18557e-25 0
8.67162 1.30675e-11 1.29124e-11 1.55023e-13 0.0118632 7.20916e-06 4.2039e-45 0 3.68382e-40 0 1.14193e-35 0 2.92247e-33 0 1.18769e-31 0 1.85192e-30 0 1.65573e-29 0 9.92635e-29 0 4.49886e-28 0 1.67548e-27 0 5.23294e-27 0 1.46065e-26 0 3.67806e-26 0 8.6109e-26 0 1.84399e-25 0 3.7112e-25 0 7.04701e-25 0 1.29243e-24 0 2.29357e-24 0 3.87003e-24 0 6.46393e-24 0
9.11674 1.20251e-11 1.18983e-11 1.26844e-13 0.0105482 6.32492e-06 3.60134e-43 0 2.10283e-38 0 3.93423e-34 0 7.68062e-32 0 2.60491e-30 0 3.55198e-29 0 2.85358e-28 0 1.56752e-27 0 6.59906e-27 0 2.30483e-26 0 6.8092e-26 0 1.80772e-25 0 4.35132e-25 0 9.7727e-25 0 2.0164e-24 0 3.92196e-24 0 7.21766e-24 0 1.28511e-23 0 2.21759e-23 0 3.64746e-23 0 5.9415e-23 0
9.5847 1.10976e-11 1.09939e-11 1.03789e-13 0.00935231 5.52644e-06 2.84576e-41 0 9.72078e-37 0 1.12506e-32 0 1.69778e-30 0 4.84794e-29 0 5.81881e-28 0 4.22252e-27 0 2.13439e-26 0 8.37653e-26 0 2.75234e-25 0 7.7124e-25 0 1.95218e-24 0 4.50179e-24 0 9.71901e-24 0 1.93565e-23 0 3.64457e-23 0 6.51038e-23 0 1.12698e-22 0 1.89361e-22 0 3.03982e-22 0 4.83512e-22 0
10.0767 1.02732e-11 1.01883e-11 8.49423e-14 0.00826833 4.78203e-06 1.79249e-39 0 3.67799e-35 0 2.69582e-31 0 3.18435e-29 0 7.72015e-28 0 8.20745e-27 0 5.40656e-26 0 2.52503e-25 0 9.26968e-25 0 2.87394e-24 0 7.65804e-24 0 1.85249e-23 0 4.10114e-23 0 8.52752e-23 0 1.64217e-22 0 2.99792e-22 0 5.2057e-22 0 8.77311e-22 0 1.43722e-21 0 2.25447e-21 0 3.50561e-21 0
10.5939 9.54126e-12 9.47176e-12 6.94958e-14 0.00728372 4.06995e-06 9.10586e-38 0 1.15064e-33 0 5.46148e-30 0 5.11048e-28 0 1.06039e-26 0 1.00444e-25 0 6.03483e-25 0 2.61414e-24 0 9.00643e-24 0 2.64224e-23 0 6.71168e-23 0 1.55503e-22 0 3.31159e-22 0 6.64404e-22 0 1.23918e-21 0 2.19671e-21 0 3.71304e-21 0 6.1001e-21 0 9.75531e-21 0 1.49698e-20 0 2.27811e-20 0
