# 7.4989e-05 0 133 : grain size, compostion index, size index
# Heating and cooling timescale: 0.000367139 6.13053e+06
# Ratio of heating to cooling to determine stochastic cutoff: 100
# Equilibrium emission is recorded even for those grains in the stochastic regime.
# Emission spectrum was computed for: 
# Type: IRSF
# Scales: 0.25 0.5 1 1.5 2 2.5 3 3.5 4 4.5 5 5.5 6 6.5 7 7.5 8 8.5 9 9.5 10
# StochasticallyHeated: 0 0 0 0 0 0 0 0 0 0 0 0 0 0 0 0 0 0 0 0 0
# Temperature: -1
# Wavelength  CExt  CAbs  CSca  Albedo G EqEm1 StEm1 EqEm2 StEm2 EqEm3 StEm3 EqEm4 StEm4 EqEm5 StEm5 EqEm6 StEm6 EqEm7 StEm7 EqEm8 StEm8 EqEm9 StEm9 EqEm10 StEm10 EqEm11 StEm11 EqEm12 StEm12 EqEm13 StEm13 EqEm14 StEm14 EqEm15 StEm15 EqEm16 StEm16 EqEm17 StEm17 EqEm18 StEm18 EqEm19 StEm19 EqEm20 StEm20 EqEm21 StEm21
0.05 9.58324e-09 3.61875e-09 5.96449e-09 0.622388 0.00576547 0 0 0 0 0 0 0 0 0 0 0 0 0 0 0 0 0 0 0 0 0 0 0 0 0 0 0 0 0 0 0 0 0 0 0 0 0 0 0 0 0 0
0.0525665 1.05923e-08 3.99979e-09 6.59252e-09 0.622387 0.00637255 0 0 0 0 0 0 0 0 0 0 0 0 0 0 0 0 0 0 0 0 0 0 0 0 0 0 0 0 0 0 0 0 0 0 0 0 0 0 0 0 0 0
0.0552647 1.17076e-08 4.42095e-09 7.28668e-09 0.622387 0.00704355 0 0 0 0 0 0 0 0 0 0 0 0 0 0 0 0 0 0 0 0 0 0 0 0 0 0 0 0 0 0 0 0 0 0 0 0 0 0 0 0 0 0
0.0581015 1.29404e-08 4.88645e-09 8.05393e-09 0.622387 0.0077852 0 0 0 0 0 0 0 0 0 0 0 0 0 0 0 0 0 0 0 0 0 0 0 0 0 0 0 0 0 0 0 0 0 0 0 0 0 0 0 0 0 0
0.0610839 1.43029e-08 5.40097e-09 8.90197e-09 0.622387 0.00860494 0 0 0 0 0 0 0 0 0 0 0 0 0 0 0 0 0 0 0 0 0 0 0 0 0 0 0 0 0 0 0 0 0 0 0 0 0 0 0 0 0 0
0.0642193 1.5809e-08 5.96966e-09 9.8393e-09 0.622387 0.009511 0 0 0 0 0 0 0 0 0 0 0 0 0 0 0 0 0 0 0 0 0 0 0 0 0 0 0 0 0 0 0 0 0 0 0 0 0 0 0 0 0 0
0.0675157 1.74736e-08 6.59824e-09 1.08753e-08 0.622387 0.0105125 0 0 0 0 0 0 0 0 0 0 0 0 0 0 0 0 0 0 0 0 0 0 0 0 0 0 0 0 0 0 0 0 0 0 0 0 0 0 0 0 0 0
0.0709813 1.93135e-08 7.293e-09 1.20205e-08 0.622387 0.0116194 0 0 0 0 0 0 0 0 0 0 0 0 0 0 0 0 0 0 0 0 0 0 0 0 0 0 0 0 0 0 0 0 0 0 0 0 0 0 0 0 0 0
0.0746248 2.13471e-08 8.06092e-09 1.32861e-08 0.622387 0.0128428 0 0 0 0 0 0 0 0 0 0 0 0 0 0 0 0 0 0 0 0 0 0 0 0 0 0 0 0 0 0 0 0 0 0 0 0 0 0 0 0 0 0
0.0784553 2.35948e-08 8.9097e-09 1.46851e-08 0.622387 0.0141951 0 0 0 0 0 0 0 0 0 0 0 0 0 0 0 0 0 0 0 0 0 0 0 0 0 0 0 0 0 0 0 0 0 0 0 0 0 0 0 0 0 0
0.0824824 2.60792e-08 9.84784e-09 1.62314e-08 0.622387 0.0156898 0 0 0 0 0 0 0 0 0 0 0 0 0 0 0 0 0 0 0 0 0 0 0 0 0 0 0 0 0 0 0 0 0 0 0 0 0 0 0 0 0 0
0.0867162 2.88253e-08 1.08848e-08 1.79405e-08 0.622387 0.0173419 0 0 0 0 0 0 0 0 0 0 0 0 0 0 0 0 0 0 0 0 0 0 0 0 0 0 0 0 0 0 0 0 0 0 0 0 0 0 0 0 0 0
0.0911674 3.18604e-08 1.20309e-08 1.98295e-08 0.622387 0.0191679 0 0 0 0 0 0 0 0 0 0 0 0 0 0 0 0 0 0 0 0 0 0 0 0 0 0 0 0 0 0 0 0 0 0 0 0 0 0 0 0 0 0
0.095847 3.52152e-08 1.32977e-08 2.19175e-08 0.622387 0.0211862 0 0 0 0 0 0 0 0 0 0 0 0 0 0 0 0 0 0 0 0 0 0 0 0 0 0 0 0 0 0 0 0 0 0 0 0 0 0 0 0 0 0
0.100767 3.83221e-08 1.45831e-08 2.3739e-08 0.61946 0.0235692 0 0 0 0 0 0 0 0 0 0 0 0 0 0 0 0 0 0 0 0 0 0 0 0 0 0 0 0 0 0 0 0 0 0 0 0 0 0 0 0 0 0
0.105939 3.82906e-08 1.52e-08 2.30906e-08 0.603036 0.0256046 0 0 0 0 0 0 0 0 0 0 0 0 0 0 0 0 0 0 0 0 0 0 0 0 0 0 0 0 0 0 0 0 0 0 0 0 0 0 0 0 0 0
0.111377 3.8342e-08 1.53684e-08 2.29737e-08 0.599177 0.0289403 0 0 0 0 0 0 0 0 0 0 0 0 0 0 0 0 0 0 0 0 0 0 0 0 0 0 0 0 0 0 0 0 0 0 0 0 0 0 0 0 0 0
0.117094 3.8316e-08 1.58914e-08 2.24246e-08 0.585254 0.0274507 0 0 0 0 0 0 0 0 0 0 0 0 0 0 0 0 0 0 0 0 0 0 0 0 0 0 0 0 0 0 0 0 0 0 0 0 0 0 0 0 0 0
0.123105 3.83498e-08 1.65214e-08 2.18284e-08 0.569192 0.0236555 0 0 0 0 0 0 0 0 0 0 0 0 0 0 0 0 0 0 0 0 0 0 0 0 0 0 0 0 0 0 0 0 0 0 0 0 0 0 0 0 0 0
0.129424 3.84212e-08 1.70269e-08 2.13942e-08 0.556835 0.0199126 0 0 0 0 0 0 0 0 0 0 0 0 0 0 0 0 0 0 0 0 0 0 0 0 0 0 0 0 0 0 0 0 0 0 0 0 0 0 0 0 0 0
0.136067 3.84978e-08 1.74438e-08 2.1054e-08 0.546888 0.0168557 0 0 0 0 0 0 0 0 0 0 0 0 0 0 0 0 0 0 0 0 0 0 0 0 0 0 0 0 0 0 0 0 0 0 0 0 0 0 0 0 0 0
0.143051 3.85579e-08 1.78005e-08 2.07574e-08 0.538343 0.0143876 0 0 0 0 0 0 0 0 0 0 0 0 0 0 0 0 0 0 0 0 0 0 0 0 0 0 0 0 0 0 0 0 0 0 0 0 0 0 0 0 0 0
0.150394 3.85797e-08 1.80918e-08 2.04879e-08 0.531055 0.0122986 0 0 0 0 0 0 0 0 0 0 0 0 0 0 0 0 0 0 0 0 0 0 0 0 0 0 0 0 0 0 0 0 0 0 0 0 0 0 0 0 0 0
0.158114 3.85249e-08 1.82675e-08 2.02573e-08 0.525825 0.01055 0 0 0 0 0 0 0 0 0 0 0 0 0 0 0 0 0 0 0 0 0 0 0 0 0 0 0 0 0 0 0 0 0 0 0 0 0 0 0 0 0 0
0.16623 3.83844e-08 1.82313e-08 2.01531e-08 0.525034 0.00908216 0 0 0 0 0 0 0 0 0 0 0 0 0 0 0 0 0 0 0 0 0 0 0 0 0 0 0 0 0 0 0 0 0 0 0 0 0 0 0 0 0 0
0.174762 3.82589e-08 1.79273e-08 2.03316e-08 0.531422 0.00782097 0 0 0 0 0 0 0 0 0 0 0 0 0 0 0 0 0 0 0 0 0 0 0 0 0 0 0 0 0 0 0 0 0 0 0 0 0 0 0 0 0 0
0.183733 3.83051e-08 1.73223e-08 2.09828e-08 0.547782 0.00667218 0 0 0 0 0 0 0 0 0 0 0 0 0 0 0 0 0 0 0 0 0 0 0 0 0 0 0 0 0 0 0 0 0 0 0 0 0 0 0 0 0 0
0.193164 3.86602e-08 1.63988e-08 2.22614e-08 0.575821 0.00556038 0 0 0 0 0 0 0 0 0 0 0 0 0 0 0 0 0 0 0 0 0 0 0 0 0 0 0 0 0 0 0 0 0 0 0 0 0 0 0 0 0 0
0.203079 3.92708e-08 1.53649e-08 2.39059e-08 0.608745 0.00446034 0 0 0 0 0 0 0 0 0 0 0 0 0 0 0 0 0 0 0 0 0 0 0 0 0 0 0 0 0 0 0 0 0 0 0 0 0 0 0 0 0 0
0.213503 4.00194e-08 1.45292e-08 2.54902e-08 0.636946 0.00342932 0 0 0 0 0 0 0 0 0 0 0 0 0 0 0 0 0 0 0 0 0 0 0 0 0 0 0 0 0 0 0 0 0 0 0 0 0 0 0 0 0 0
0.224463 4.08048e-08 1.40764e-08 2.67284e-08 0.655031 0.00254317 0 0 0 0 0 0 0 0 0 0 0 0 0 0 0 0 0 0 0 0 0 0 0 0 0 0 0 0 0 0 0 0 0 0 0 0 0 0 0 0 0 0
0.235984 4.14765e-08 1.3958e-08 2.75184e-08 0.663471 0.00182186 0 0 0 0 0 0 0 0 0 0 0 0 0 0 0 0 0 0 0 0 0 0 0 0 0 0 0 0 0 0 0 0 0 0 0 0 0 0 0 0 0 0
0.248097 4.18665e-08 1.40184e-08 2.78481e-08 0.665164 0.00138916 0 0 0 0 0 0 0 0 0 0 0 0 0 0 0 0 0 0 0 0 0 0 0 0 0 0 0 0 0 0 0 0 0 0 0 0 0 0 0 0 0 0
0.260832 4.18798e-08 1.41927e-08 2.76871e-08 0.661108 0.00141961 0 0 0 0 0 0 0 0 0 0 0 0 0 0 0 0 0 0 0 0 0 0 0 0 0 0 0 0 0 0 0 0 0 0 0 0 0 0 0 0 0 0
0.274221 4.16107e-08 1.45341e-08 2.70766e-08 0.650713 0.00187131 0 0 0 0 0 0 0 0 0 0 0 0 0 0 0 0 0 0 0 0 0 0 0 0 0 0 0 0 0 0 0 0 0 0 0 0 0 0 0 0 0 0
0.288297 4.13157e-08 1.50697e-08 2.62461e-08 0.635256 0.00251556 0 0 0 0 0 0 0 0 0 0 0 0 0 0 0 0 0 0 0 0 0 0 0 0 0 0 0 0 0 0 0 0 0 0 0 0 0 0 0 0 0 0
0.303095 4.11778e-08 1.56876e-08 2.54903e-08 0.619029 0.0028362 0 0 0 0 0 0 0 0 0 0 0 0 0 0 0 0 0 0 0 0 0 0 0 0 0 0 0 0 0 0 0 0 0 0 0 0 0 0 0 0 0 0
0.318653 4.11945e-08 1.62592e-08 2.49354e-08 0.605308 0.00297223 0 0 0 0 0 0 0 0 0 0 0 0 0 0 0 0 0 0 0 0 0 0 0 0 0 0 0 0 0 0 0 0 0 0 0 0 0 0 0 0 0 0
0.335009 4.13049e-08 1.67283e-08 2.45766e-08 0.595004 0.00293231 0 0 0 0 0 0 0 0 0 0 0 0 0 0 0 0 0 0 0 0 0 0 0 0 0 0 0 0 0 0 0 0 0 0 0 0 0 0 0 0 0 0
0.352205 4.14662e-08 1.70916e-08 2.43746e-08 0.587819 0.00278811 0 0 0 0 0 0 0 0 0 0 0 0 0 0 0 0 0 0 0 0 0 0 0 0 0 0 0 0 0 0 0 0 0 0 0 0 0 0 0 0 0 0
0.370284 4.16568e-08 1.73648e-08 2.42921e-08 0.583147 0.00261033 0 0 0 0 0 0 0 0 0 0 0 0 0 0 0 0 0 0 0 0 0 0 0 0 0 0 0 0 0 0 0 0 0 0 0 0 0 0 0 0 0 0
0.389291 4.18594e-08 1.75678e-08 2.42916e-08 0.580315 0.00243645 0 0 0 0 0 0 0 0 0 0 0 0 0 0 0 0 0 0 0 0 0 0 0 0 0 0 0 0 0 0 0 0 0 0 0 0 0 0 0 0 0 0
0.409273 4.20692e-08 1.77275e-08 2.43417e-08 0.57861 0.00226652 0 0 0 0 0 0 0 0 0 0 0 0 0 0 0 0 0 0 0 0 0 0 0 0 0 0 0 0 0 0 0 0 0 0 0 0 0 0 0 0 0 0
0.430281 4.22805e-08 1.78666e-08 2.44139e-08 0.577426 0.00210471 0 0 0 0 0 0 0 0 0 0 0 0 0 0 0 0 0 0 0 0 0 0 0 0 0 0 0 0 0 0 0 0 0 0 0 0 0 0 0 0 0 0
0.452368 4.24915e-08 1.79989e-08 2.44925e-08 0.576411 0.00193723 0 0 0 0 0 0 0 0 0 0 0 0 0 0 0 0 0 0 0 0 0 0 0 0 0 0 0 0 0 0 0 0 0 0 0 0 0 0 0 0 0 0
0.475588 4.27022e-08 1.81373e-08 2.45649e-08 0.575261 0.00177642 0 0 0 0 0 0 0 0 0 0 0 0 0 0 0 0 0 0 0 0 0 0 0 0 0 0 0 0 0 0 0 0 0 0 0 0 0 0 0 0 0 0
0.5 4.29163e-08 1.82835e-08 2.46328e-08 0.573973 0.00162159 0 0 0 0 0 0 0 0 0 0 0 0 0 0 0 0 0 0 0 0 0 0 0 0 0 0 0 0 0 0 0 0 0 0 0 0 0 0 0 0 0 0
0.525665 4.31354e-08 1.84391e-08 2.46963e-08 0.572529 0.0014751 0 0 0 0 0 0 0 0 0 0 0 0 0 0 0 0 0 0 0 0 0 0 0 0 0 0 0 0 0 0 0 0 0 0 0 0 0 0 0 0 0 0
0.552648 4.33642e-08 1.86021e-08 2.47621e-08 0.571027 0.00134175 0 0 0 0 0 0 0 0 0 0 0 0 0 0 0 0 0 0 0 0 0 0 0 0 0 0 0 0 0 0 0 0 0 0 0 0 0 0 0 0 0 0
0.581015 4.35998e-08 1.87686e-08 2.48312e-08 0.569526 0.00121775 0 0 0 0 0 0 0 0 0 0 0 0 0 0 0 0 0 0 0 0 0 0 0 0 0 0 0 0 0 0 0 0 0 0 0 0 0 0 0 0 0 0
0.610839 4.38463e-08 1.89346e-08 2.49117e-08 0.568159 0.00110516 0 0 0 0 0 0 0 0 0 0 0 0 0 0 0 0 0 0 0 0 0 0 0 0 0 0 0 0 0 0 0 0 0 0 0 0 0 0 0 0 0 0
0.642193 4.41044e-08 1.91009e-08 2.50035e-08 0.566917 0.00100302 0 0 0 0 0 0 0 0 0 0 0 0 0 0 0 0 0 0 0 0 0 0 0 0 0 0 0 0 0 0 0 0 0 0 0 0 0 0 0 0 0 0
0.675157 4.43696e-08 1.92606e-08 2.5109e-08 0.565905 0.000910957 0 0 0 0 0 0 0 0 0 0 0 0 0 0 0 0 0 0 0 0 0 0 0 0 0 0 0 0 0 0 0 0 0 0 0 0 0 0 0 0 0 0
0.709813 4.46453e-08 1.94153e-08 2.523e-08 0.565121 0.00082817 0 0 0 0 0 0 0 0 0 0 0 0 0 0 0 0 0 0 0 0 0 0 0 0 0 0 0 0 0 0 0 0 0 0 0 0 0 0 0 0 0 0
0.746248 4.49301e-08 1.95635e-08 2.53665e-08 0.564578 0.000754183 0 0 0 0 0 0 0 0 0 0 0 0 0 0 0 0 0 0 0 0 0 0 0 0 0 0 0 0 0 0 0 0 0 0 0 0 0 0 0 0 0 0
0.784553 4.52165e-08 1.96996e-08 2.55169e-08 0.564328 0.000686995 0 0 0 0 0 0 0 0 0 0 0 0 0 0 0 0 0 0 0 0 0 0 0 0 0 0 0 0 0 0 0 0 0 0 0 0 0 0 0 0 0 0
0.824824 4.55128e-08 1.98306e-08 2.56823e-08 0.564286 0.000626788 0 0 0 0 0 0 0 0 0 0 0 0 0 0 0 0 0 0 0 0 0 0 0 0 0 0 0 0 0 0 0 0 0 0 0 0 0 0 0 0 0 0
0.867162 4.58158e-08 1.99581e-08 2.58577e-08 0.564384 0.000572518 0 0 0 0 0 0 0 0 0 0 0 0 0 0 0 0 0 0 0 0 0 0 0 0 0 0 0 0 0 0 0 0 0 0 0 0 0 0 0 0 0 0
0.911674 4.61102e-08 2.00678e-08 2.60424e-08 0.564786 0.000523427 0 0 0 0 0 0 0 0 0 0 0 0 0 0 0 0 0 0 0 0 0 0 0 0 0 0 0 0 0 0 0 0 0 0 0 0 0 0 0 0 0 0
0.95847 4.64119e-08 2.017e-08 2.62419e-08 0.565413 0.00047944 0 0 0 0 0 0 0 0 0 0 0 0 0 0 0 0 0 0 0 0 0 0 0 0 0 0 0 0 0 0 0 0 0 0 0 0 0 0 0 0 0 0
1.00767 4.67278e-08 2.0281e-08 2.64468e-08 0.565976 0.0004395 0 0 0 0 0 0 0 0 0 0 0 0 0 0 0 0 0 0 0 0 0 0 0 0 0 0 0 0 0 0 0 0 0 0 0 0 0 0 0 0 0 0
1.05939 4.70272e-08 2.03822e-08 2.6645e-08 0.566588 0.000403275 0 0 0 0 0 0 0 0 0 0 0 0 0 0 0 0 0 0 0 0 0 0 0 0 0 0 0 0 0 0 0 0 0 0 0 0 0 0 0 0 0 0
1.11377 4.73044e-08 2.04559e-08 2.68486e-08 0.567569 0.000370298 0 0 0 0 0 0 0 0 0 0 0 0 0 0 0 0 0 0 0 0 0 0 0 0 0 0 0 0 0 0 0 0 0 0 0 0 0 0 0 0 0 0
1.17094 4.76007e-08 2.05308e-08 2.707e-08 0.568688 0.000339515 0 0 0 0 0 0 0 0 0 0 0 0 0 0 0 0 0 0 0 0 0 0 0 0 0 0 0 0 0 0 0 0 0 0 0 0 0 0 0 0 0 0
1.23105 4.79255e-08 2.0635e-08 2.72906e-08 0.569437 0.000311294 0 0 0 0 0 0 0 0 0 0 0 0 0 0 0 0 0 0 0 0 0 0 0 0 0 0 0 0 0 0 0 0 0 0 0 0 0 0 0 0 0 0
1.29424 4.82249e-08 2.07418e-08 2.74831e-08 0.569894 0.000285362 0 0 0 0 0 0 0 0 0 0 0 0 0 0 0 0 0 0 0 0 0 0 0 0 0 0 0 0 0 0 0 0 0 0 0 0 0 0 0 0 0 0
1.36067 4.8464e-08 2.08074e-08 2.76566e-08 0.570662 0.000261742 0 0 0 0 0 0 0 0 0 0 0 0 0 0 0 0 0 0 0 0 0 0 0 0 0 0 0 0 0 0 0 0 0 0 0 0 0 0 0 0 0 0
1.43051 4.86912e-08 2.08419e-08 2.78494e-08 0.571958 0.000240209 0 0 0 0 0 0 0 0 0 0 0 0 0 0 0 0 0 0 0 0 0 0 0 0 0 0 0 0 0 0 0 0 0 0 0 0 0 0 0 0 0 0
1.50394 4.89792e-08 2.09047e-08 2.80746e-08 0.573193 0.000220279 0 0 0 0 0 0 0 0 0 0 0 0 0 0 0 0 0 0 0 0 0 0 0 0 0 0 0 0 0 0 0 0 0 0 0 0 0 0 0 0 0 0
1.58114 4.93277e-08 2.10281e-08 2.82996e-08 0.573707 0.000201732 0 0 0 0 0 0 0 0 0 0 0 0 0 0 0 0 0 0 0 0 0 0 0 0 0 0 0 0 0 0 0 0 0 0 0 0 0 0 0 0 0 0
1.6623 4.96521e-08 2.1182e-08 2.84701e-08 0.573391 0.000184534 0 0 0 0 0 0 0 0 0 0 0 0 0 0 0 0 0 0 0 0 0 0 0 0 0 0 0 0 0 0 0 0 0 0 0 0 0 0 0 0 0 0
1.74763 4.98659e-08 2.12963e-08 2.85697e-08 0.57293 0.000169005 0 0 0 0 0 0 0 0 0 0 0 0 0 0 0 0 0 0 0 0 0 0 0 0 0 0 0 0 0 0 0 0 0 0 0 0 0 0 0 0 0 0
1.83733 4.99745e-08 2.13355e-08 2.8639e-08 0.573071 0.000154804 0 0 0 0 0 0 0 0 0 0 0 0 0 0 0 0 0 0 0 0 0 0 0 0 0 0 0 0 0 0 0 0 0 0 0 0 0 0 0 0 0 0
1.93164 5.00812e-08 2.1332e-08 2.87492e-08 0.574051 0.000141793 0 0 0 0 0 0 0 0 0 0 0 0 0 0 0 0 0 0 0 0 0 0 0 0 0 0 0 0 0 0 0 0 0 0 0 0 0 0 0 0 0 0
2.03079 5.03059e-08 2.13653e-08 2.89407e-08 0.575293 0.000129725 0 0 0 0 0 0 0 0 0 0 0 0 0 0 0 0 0 0 0 0 0 0 0 0 0 0 0 0 0 0 0 0 0 0 0 0 0 0 0 0 0 0
2.13503 5.06853e-08 2.14958e-08 2.91895e-08 0.575896 0.000118657 0 0 0 0 0 0 0 0 0 0 0 0 0 0 0 0 0 0 0 0 0 0 0 0 0 0 0 0 0 0 0 0 0 0 0 0 0 0 0 0 0 0
2.24463 5.11501e-08 2.1729e-08 2.94212e-08 0.575192 0.000108569 0 0 0 0 0 0 0 0 0 0 0 0 0 0 0 0 0 0 0 0 0 0 0 0 0 0 0 0 0 0 0 0 0 0 0 0 0 0 0 0 0 0
2.35984 5.15614e-08 2.20149e-08 2.95465e-08 0.573036 9.92926e-05 0 0 0 0 0 0 0 0 0 0 0 0 0 0 0 0 0 0 0 0 0 0 0 0 0 0 0 0 0 0 0 0 0 0 0 0 0 0 0 0 0 0
2.48097 5.17812e-08 2.22697e-08 2.95115e-08 0.569927 9.07218e-05 0 0 0 0 0 0 0 0 0 0 0 0 0 0 0 0 0 0 0 0 0 0 0 0 0 0 0 0 0 0 0 0 0 0 0 0 0 0 0 0 0 0
2.60832 5.17522e-08 2.24268e-08 2.93254e-08 0.566651 8.27967e-05 0 0 0 0 0 0 0 0 0 0 0 0 0 0 0 0 0 0 0 0 0 0 0 0 0 0 0 0 0 0 0 0 0 0 0 0 0 0 0 0 0 0
2.74221 5.152e-08 2.24602e-08 2.90598e-08 0.56405 7.55862e-05 0 0 0 0 0 0 0 0 0 0 0 0 0 0 0 0 0 0 0 0 0 0 0 0 0 0 0 0 0 0 0 0 0 0 0 0 0 0 0 0 0 0
2.88297 5.12272e-08 2.24047e-08 2.88225e-08 0.562641 6.90729e-05 0 0 0 0 0 0 0 0 0 0 0 0 0 0 0 0 0 0 0 0 0 0 0 0 0 0 0 0 0 0 0 0 0 0 0 0 0 0 0 0 0 0
3.03095 5.10337e-08 2.23332e-08 2.87004e-08 0.562382 6.31538e-05 0 0 0 0 0 0 0 0 0 0 0 0 0 0 0 0 0 0 0 0 0 0 0 0 0 0 0 0 0 0 0 0 0 0 0 0 0 0 0 0 0 0
3.18653 5.10658e-08 2.23267e-08 2.87391e-08 0.562785 5.76567e-05 0 0 0 0 0 0 0 0 0 0 0 0 0 0 0 0 0 0 0 0 0 0 0 0 0 0 0 0 0 0 0 0 0 0 0 0 0 0 0 0 0 0
3.35009 5.13513e-08 2.24413e-08 2.89101e-08 0.562986 5.2603e-05 0 0 0 0 0 0 0 0 0 0 0 0 0 0 0 0 0 0 0 0 0 0 0 0 0 0 0 0 0 0 0 0 0 0 0 0 0 0 0 0 0 0
3.52205 5.18522e-08 2.27108e-08 2.91413e-08 0.562008 4.80102e-05 0 0 0 0 0 0 0 0 0 0 0 0 0 0 0 0 0 0 0 0 0 0 0 0 0 0 0 0 0 0 0 0 0 0 0 0 0 0 0 0 0 0
3.70284 5.2472e-08 2.31338e-08 2.93382e-08 0.559121 4.38066e-05 0 0 0 0 0 0 0 0 0 0 0 0 0 0 0 0 0 0 0 0 0 0 0 0 0 0 0 0 0 0 0 0 0 0 0 0 0 0 0 0 0 0
3.89291 5.30943e-08 2.36882e-08 2.94062e-08 0.553848 3.9926e-05 0 0 0 0 0 0 0 0 0 0 0 0 0 0 0 0 0 0 0 0 0 0 0 0 0 0 0 0 0 0 0 0 0 0 0 0 0 0 0 0 0 0
4.09273 5.36096e-08 2.43413e-08 2.92683e-08 0.545953 3.62643e-05 0 0 0 0 0 0 0 0 0 0 0 0 0 0 0 0 0 0 0 0 0 0 0 0 0 0 0 0 0 0 0 0 0 0 0 0 0 0 0 0 0 0
4.30281 5.39533e-08 2.5058e-08 2.88954e-08 0.535562 3.29535e-05 0 0 0 0 0 0 0 0 0 0 0 0 0 0 0 0 0 0 0 0 0 0 0 0 0 0 0 0 0 0 0 0 0 0 0 0 0 0 0 0 0 0
4.52368 5.40834e-08 2.57905e-08 2.82929e-08 0.523135 2.99416e-05 0 0 0 0 0 0 0 0 0 0 0 0 0 0 0 0 0 0 0 0 0 0 0 0 0 0 0 0 0 0 0 0 0 0 0 0 0 0 0 0 0 0
4.75588 5.39762e-08 2.64803e-08 2.74959e-08 0.509408 2.71796e-05 0 0 0 0 0 0 0 0 0 0 0 0 0 0 0 0 0 0 0 0 0 0 0 0 0 0 0 0 0 0 0 0 0 0 0 0 0 0 0 0 0 0
5 5.35874e-08 2.70437e-08 2.65437e-08 0.495335 2.45398e-05 0 0 0 0 0 0 0 0 0 0 0 0 0 0 0 0 0 0 0 0 0 0 0 0 0 0 0 0 0 0 0 0 0 0 0 0 0 0 0 0 0 0
5.25665 5.27953e-08 2.73609e-08 2.54344e-08 0.481755 2.21678e-05 0 0 0 0 0 0 0 0 0 0 0 0 0 0 0 0 0 0 0 0 0 0 0 0 0 0 0 0 0 0 0 0 0 0 0 0 0 0 0 0 0 0
5.52648 5.14234e-08 2.73155e-08 2.4108e-08 0.468812 2.00489e-05 0 0 0 0 0 0 0 0 0 0 0 0 0 0 0 0 0 0 0 0 0 0 0 0 0 0 0 0 0 0 0 0 0 0 0 0 0 0 0 0 0 0
5.81015 4.93168e-08 2.68479e-08 2.24689e-08 0.455603 1.8115e-05 0 0 0 0 0 0 0 0 0 0 0 0 0 0 0 0 0 0 0 0 0 0 0 0 0 0 0 0 0 0 0 0 0 0 0 0 1.4013e-45 0 4.2039e-45 0 1.12104e-44 0
6.10839 4.64512e-08 2.60176e-08 2.04336e-08 0.439893 1.63023e-05 0 0 0 0 0 0 0 0 0 0 0 0 0 0 0 0 0 0 0 0 0 0 0 0 0 0 0 0 1.4013e-45 0 8.40779e-45 0 2.8026e-44 0 8.96831e-44 0 2.63444e-43 0 7.20267e-43 0 1.88054e-42 0
6.42193 4.33815e-08 2.52034e-08 1.81781e-08 0.419029 1.48144e-05 0 0 0 0 0 0 0 0 0 0 0 0 0 0 0 0 0 0 0 0 0 0 4.2039e-45 0 1.96182e-44 0 8.82818e-44 0 3.5593e-43 0 1.2976e-42 0 4.23192e-42 0 1.27462e-41 0 3.56042e-41 0 9.25754e-41 0 2.30581e-40 0
6.75157 3.99963e-08 2.43833e-08 1.5613e-08 0.39036 1.32279e-05 0 0 0 0 0 0 0 0 0 0 0 0 0 0 0 0 1.4013e-45 0 1.4013e-44 0 1.02295e-43 0 5.96953e-43 0 2.95254e-42 0 1.24561e-41 0 4.65567e-41 0 1.59587e-40 0 4.91353e-40 0 1.40242e-39 0 3.72562e-39 0 9.24574e-39 0 2.2025e-38 0
7.09813 3.70808e-08 2.39391e-08 1.31417e-08 0.354407 1.18448e-05 0 0 0 0 0 0 0 0 0 0 0 0 1.4013e-45 0 1.96182e-44 0 2.4803e-43 0 2.13558e-42 0 1.41685e-41 0 7.63469e-41 0 3.49248e-40 0 1.37314e-39 0 4.81256e-39 0 1.55334e-38 0 4.52707e-38 0 1.22761e-37 0 3.10933e-37 0 7.38136e-37 0 1.68541e-36 0
7.46248 3.46076e-08 2.37392e-08 1.08684e-08 0.314046 1.05694e-05 0 0 0 0 0 0 0 0 0 0 5.60519e-45 0 1.84971e-43 0 3.04082e-42 0 3.30048e-41 0 2.55722e-40 0 1.54728e-39 0 7.67959e-39 0 3.26169e-38 0 1.19948e-37 0 3.95423e-37 0 1.20533e-36 0 3.33408e-36 0 8.61128e-36 0 2.08433e-35 0 4.74356e-35 0 1.04032e-34 0
7.84553 3.23035e-08 2.34463e-08 8.85722e-09 0.274187 9.34187e-06 0 0 0 0 0 0 0 0 1.54143e-44 0 9.62692e-43 0 2.46264e-41 0 3.52148e-40 0 3.40149e-39 0 2.38481e-38 0 1.32155e-37 0 6.06572e-37 0 2.40061e-36 0 8.28437e-36 0 2.57651e-35 0 7.43781e-35 0 1.95767e-34 0 4.82738e-34 0 1.1191e-33 0 2.44663e-33 0 5.1639e-33 0
8.24824 2.97305e-08 2.26102e-08 7.12033e-09 0.239496 8.19911e-06 0 0 0 0 0 0 1.26117e-44 0 2.28552e-42 0 1.13579e-40 0 2.48171e-39 0 3.11656e-38 0 2.69483e-37 0 1.71799e-36 0 8.75675e-36 0 3.73105e-35 0 1.3807e-34 0 4.48512e-34 0 1.31974e-33 0 3.61761e-33 0 9.0823e-33 0 2.14304e-32 0 4.76823e-32 0 1.0034e-31 0 2.04194e-31 0
8.67162 2.65765e-08 2.09274e-08 5.6491e-09 0.21256 7.20916e-06 0 0 0 0 1.4013e-45 0 1.66755e-42 0 2.44831e-40 0 1.00542e-38 0 1.88975e-37 0 2.09736e-36 0 1.63226e-35 0 9.50602e-35 0 4.47494e-34 0 1.7764e-33 0 6.16687e-33 0 1.89128e-32 0 5.27942e-32 0 1.37765e-31 0 3.30669e-31 0 7.48212e-31 0 1.60101e-30 0 3.24888e-30 0 6.38614e-30 0
9.11674 2.28901e-08 1.84568e-08 4.43325e-09 0.193676 6.32492e-06 0 0 0 0 1.42932e-43 0 1.70098e-40 0 1.95755e-38 0 6.70529e-37 0 1.09212e-35 0 1.07771e-34 0 7.58772e-34 0 4.05472e-33 0 1.7697e-32 0 6.56782e-32 0 2.14563e-31 0 6.22995e-31 0 1.65404e-30 0 4.11871e-30 0 9.47219e-30 0 2.05953e-29 0 4.24626e-29 0 8.32416e-29 0 1.58313e-28 0
9.5847 1.90602e-08 1.56021e-08 3.45812e-09 0.181431 5.52644e-06 0 0 0 0 1.54059e-41 0 1.30282e-38 0 1.18924e-36 0 3.42803e-35 0 4.87223e-34 0 4.29952e-33 0 2.75197e-32 0 1.35506e-31 0 5.50368e-31 0 1.91587e-30 0 5.90742e-30 0 1.62827e-29 0 4.12177e-29 0 9.81642e-29 0 2.16762e-28 0 4.53765e-28 0 9.03084e-28 0 1.71313e-27 0 3.15743e-27 0
10.0767 1.54918e-08 1.27961e-08 2.69571e-09 0.174009 4.78203e-06 0 0 8.40779e-45 0 1.2612e-39 0 7.67484e-37 0 5.62007e-35 0 1.37481e-33 0 1.71652e-32 0 1.36197e-31 0 7.96214e-31 0 3.62695e-30 0 1.37568e-29 0 4.50592e-29 0 1.31504e-28 0 3.44959e-28 0 8.3451e-28 0 1.90502e-27 0 4.04701e-27 0 8.17178e-27 0 1.57261e-26 0 2.89138e-26 0 5.17231e-26 0
10.5939 1.24252e-08 1.03182e-08 2.10701e-09 0.169575 4.06995e-06 0 0 8.9543e-43 0 8.00945e-38 0 3.5641e-35 0 2.11632e-33 0 4.42885e-32 0 4.88838e-31 0 3.50564e-30 0 1.88013e-29 0 7.9533e-29 0 2.82654e-28 0 8.73703e-28 0 2.41996e-27 0 6.05603e-27 0 1.4032e-26 0 3.07672e-26 0 6.30005e-26 0 1.22921e-25 0 2.29113e-25 0 4.08904e-25 0 7.10998e-25 0
11.1377 9.86867e-09 8.21705e-09 1.65162e-09 0.16736 3.40803e-06 0 0 7.81897e-41 0 4.00973e-36 0 1.32483e-33 0 6.44458e-32 0 1.16258e-30 0 1.14125e-29 0 7.43374e-29 0 3.67294e-28 0 1.44808e-27 0 4.83742e-27 0 1.41512e-26 0 3.72937e-26 0 8.92411e-26 0 1.98463e-25 0 4.18793e-25 0 8.28055e-25 0 1.56375e-24 0 2.82741e-24 0 4.90543e-24 0 8.30224e-24 0
11.7094 8.54557e-09 7.21224e-09 1.33334e-09 0.156026 2.82232e-06 5.60519e-44 0 5.91226e-39 0 1.7855e-34 0 4.4444e-32 0 1.78847e-30 0 2.8014e-29 0 2.4598e-28 0 1.46216e-27 0 6.6823e-27 0 2.46386e-26 0 7.76001e-26 0 2.15417e-25 0 5.41471e-25 0 1.24166e-24 0 2.65565e-24 0 5.40327e-24 0 1.03338e-23 0 1.89187e-23 0 3.32316e-23 0 5.61252e-23 0 9.25802e-23 0
12.3105 6.63978e-09 5.59303e-09 1.04675e-09 0.157648 2.20615e-06 5.21844e-42 0 3.13897e-37 0 5.72876e-33 0 1.08925e-30 0 3.65975e-29 0 5.01193e-28 0 3.95789e-27 0 2.15657e-26 0 9.15113e-26 0 3.1659e-25 0 9.42794e-25 0 2.48992e-24 0 5.98324e-24 0 1.31755e-23 0 2.71528e-23 0 5.33628e-23 0 9.88768e-23 0 1.75752e-22 0 3.00342e-22 0 4.94436e-22 0 7.95899e-22 0
