# 1.1885e-05 1 101 : grain size, compostion index, size index
# Heating and cooling timescale: 0.137013 851277
# Ratio of heating to cooling to determine stochastic cutoff: 100
# Equilibrium emission is recorded even for those grains in the stochastic regime.
# Emission spectrum was computed for: 
# Type: IRSF
# Scales: 0.25 0.5 1 1.5 2 2.5 3 3.5 4 4.5 5 5.5 6 6.5 7 7.5 8 8.5 9 9.5 10
# StochasticallyHeated: 0 0 0 0 0 0 0 0 0 0 0 0 0 0 0 0 0 0 0 0 0
# Temperature: -1
# Wavelength  CExt  CAbs  CSca  Albedo G EqEm1 StEm1 EqEm2 StEm2 EqEm3 StEm3 EqEm4 StEm4 EqEm5 StEm5 EqEm6 StEm6 EqEm7 StEm7 EqEm8 StEm8 EqEm9 StEm9 EqEm10 StEm10 EqEm11 StEm11 EqEm12 StEm12 EqEm13 StEm13 EqEm14 StEm14 EqEm15 StEm15 EqEm16 StEm16 EqEm17 StEm17 EqEm18 StEm18 EqEm19 StEm19 EqEm20 StEm20 EqEm21 StEm21
0.05 2.72773e-10 1.33845e-10 1.38928e-10 0.509318 0.208059 0 0 0 0 0 0 0 0 0 0 0 0 0 0 0 0 0 0 0 0 0 0 0 0 0 0 0 0 0 0 0 0 0 0 0 0 0 0 0 0 0 0
0.0525665 3.01494e-10 1.47938e-10 1.53556e-10 0.509318 0.229966 0 0 0 0 0 0 0 0 0 0 0 0 0 0 0 0 0 0 0 0 0 0 0 0 0 0 0 0 0 0 0 0 0 0 0 0 0 0 0 0 0 0
0.0552647 3.3324e-10 1.63515e-10 1.69725e-10 0.509318 0.254181 0 0 0 0 0 0 0 0 0 0 0 0 0 0 0 0 0 0 0 0 0 0 0 0 0 0 0 0 0 0 0 0 0 0 0 0 0 0 0 0 0 0
0.0581015 3.68329e-10 1.80732e-10 1.87596e-10 0.509318 0.280945 0 0 0 0 0 0 0 0 0 0 0 0 0 0 0 0 0 0 0 0 0 0 0 0 0 0 0 0 0 0 0 0 0 0 0 0 0 0 0 0 0 0
0.0610839 4.07112e-10 1.99763e-10 2.07349e-10 0.509318 0.310527 0 0 0 0 0 0 0 0 0 0 0 0 0 0 0 0 0 0 0 0 0 0 0 0 0 0 0 0 0 0 0 0 0 0 0 0 0 0 0 0 0 0
0.0642193 4.49979e-10 2.20797e-10 2.29182e-10 0.509318 0.343224 0 0 0 0 0 0 0 0 0 0 0 0 0 0 0 0 0 0 0 0 0 0 0 0 0 0 0 0 0 0 0 0 0 0 0 0 0 0 0 0 0 0
0.0675157 4.97359e-10 2.44045e-10 2.53314e-10 0.509318 0.379363 0 0 0 0 0 0 0 0 0 0 0 0 0 0 0 0 0 0 0 0 0 0 0 0 0 0 0 0 0 0 0 0 0 0 0 0 0 0 0 0 0 0
0.0709813 5.49729e-10 2.69742e-10 2.79987e-10 0.509318 0.419308 0 0 0 0 0 0 0 0 0 0 0 0 0 0 0 0 0 0 0 0 0 0 0 0 0 0 0 0 0 0 0 0 0 0 0 0 0 0 0 0 0 0
0.0746248 6.07613e-10 2.98145e-10 3.09468e-10 0.509318 0.46346 0 0 0 0 0 0 0 0 0 0 0 0 0 0 0 0 0 0 0 0 0 0 0 0 0 0 0 0 0 0 0 0 0 0 0 0 0 0 0 0 0 0
0.0784553 6.71591e-10 3.29538e-10 3.42053e-10 0.509318 0.51226 0 0 0 0 0 0 0 0 0 0 0 0 0 0 0 0 0 0 0 0 0 0 0 0 0 0 0 0 0 0 0 0 0 0 0 0 0 0 0 0 0 0
0.0824824 7.42307e-10 3.64237e-10 3.7807e-10 0.509318 0.566198 0 0 0 0 0 0 0 0 0 0 0 0 0 0 0 0 0 0 0 0 0 0 0 0 0 0 0 0 0 0 0 0 0 0 0 0 0 0 0 0 0 0
0.0867162 8.20468e-10 4.02589e-10 4.17879e-10 0.509318 0.625816 0 0 0 0 0 0 0 0 0 0 0 0 0 0 0 0 0 0 0 0 0 0 0 0 0 0 0 0 0 0 0 0 0 0 0 0 0 0 0 0 0 0
0.0911674 9.0686e-10 4.4498e-10 4.6188e-10 0.509318 0.691712 0 0 0 0 0 0 0 0 0 0 0 0 0 0 0 0 0 0 0 0 0 0 0 0 0 0 0 0 0 0 0 0 0 0 0 0 0 0 0 0 0 0
0.095847 1.00235e-09 4.91834e-10 5.10513e-10 0.509318 0.764546 0 0 0 0 0 0 0 0 0 0 0 0 0 0 0 0 0 0 0 0 0 0 0 0 0 0 0 0 0 0 0 0 0 0 0 0 0 0 0 0 0 0
0.100767 1.09268e-09 5.36606e-10 5.56074e-10 0.508908 0.831874 0 0 0 0 0 0 0 0 0 0 0 0 0 0 0 0 0 0 0 0 0 0 0 0 0 0 0 0 0 0 0 0 0 0 0 0 0 0 0 0 0 0
0.105939 1.10335e-09 5.44625e-10 5.58729e-10 0.506391 0.832655 0 0 0 0 0 0 0 0 0 0 0 0 0 0 0 0 0 0 0 0 0 0 0 0 0 0 0 0 0 0 0 0 0 0 0 0 0 0 0 0 0 0
0.111377 1.114e-09 5.52942e-10 5.61056e-10 0.503642 0.834377 0 0 0 0 0 0 0 0 0 0 0 0 0 0 0 0 0 0 0 0 0 0 0 0 0 0 0 0 0 0 0 0 0 0 0 0 0 0 0 0 0 0
0.117094 1.12469e-09 5.61253e-10 5.6344e-10 0.500972 0.834353 0 0 0 0 0 0 0 0 0 0 0 0 0 0 0 0 0 0 0 0 0 0 0 0 0 0 0 0 0 0 0 0 0 0 0 0 0 0 0 0 0 0
0.123105 1.1353e-09 5.70261e-10 5.65036e-10 0.497699 0.833151 0 0 0 0 0 0 0 0 0 0 0 0 0 0 0 0 0 0 0 0 0 0 0 0 0 0 0 0 0 0 0 0 0 0 0 0 0 0 0 0 0 0
0.129424 1.14561e-09 5.80032e-10 5.65574e-10 0.493689 0.830828 0 0 0 0 0 0 0 0 0 0 0 0 0 0 0 0 0 0 0 0 0 0 0 0 0 0 0 0 0 0 0 0 0 0 0 0 0 0 0 0 0 0
0.136067 1.1566e-09 5.8971e-10 5.66892e-10 0.490136 0.827246 0 0 0 0 0 0 0 0 0 0 0 0 0 0 0 0 0 0 0 0 0 0 0 0 0 0 0 0 0 0 0 0 0 0 0 0 0 0 0 0 0 0
0.143051 1.16823e-09 6.01866e-10 5.66368e-10 0.484807 0.821746 0 0 0 0 0 0 0 0 0 0 0 0 0 0 0 0 0 0 0 0 0 0 0 0 0 0 0 0 0 0 0 0 0 0 0 0 0 0 0 0 0 0
0.150394 1.18029e-09 6.17337e-10 5.62949e-10 0.47696 0.820542 0 0 0 0 0 0 0 0 0 0 0 0 0 0 0 0 0 0 0 0 0 0 0 0 0 0 0 0 0 0 0 0 0 0 0 0 0 0 0 0 0 0
0.158114 1.18334e-09 6.29411e-10 5.53929e-10 0.468107 0.827194 0 0 0 0 0 0 0 0 0 0 0 0 0 0 0 0 0 0 0 0 0 0 0 0 0 0 0 0 0 0 0 0 0 0 0 0 0 0 0 0 0 0
0.16623 1.15979e-09 6.09342e-10 5.50448e-10 0.47461 0.820364 0 0 0 0 0 0 0 0 0 0 0 0 0 0 0 0 0 0 0 0 0 0 0 0 0 0 0 0 0 0 0 0 0 0 0 0 0 0 0 0 0 0
0.174762 1.17798e-09 5.59919e-10 6.18063e-10 0.524679 0.750412 0 0 0 0 0 0 0 0 0 0 0 0 0 0 0 0 0 0 0 0 0 0 0 0 0 0 0 0 0 0 0 0 0 0 0 0 0 0 0 0 0 0
0.183733 1.30124e-09 4.87693e-10 8.13546e-10 0.625209 0.589955 0 0 0 0 0 0 0 0 0 0 0 0 0 0 0 0 0 0 0 0 0 0 0 0 0 0 0 0 0 0 0 0 0 0 0 0 0 0 0 0 0 0
0.193164 1.47381e-09 4.11932e-10 1.06188e-09 0.720499 0.473892 0 0 0 0 0 0 0 0 0 0 0 0 0 0 0 0 0 0 0 0 0 0 0 0 0 0 0 0 0 0 0 0 0 0 0 0 0 0 0 0 0 0
0.203079 1.62151e-09 3.78484e-10 1.24303e-09 0.766586 0.461676 0 0 0 0 0 0 0 0 0 0 0 0 0 0 0 0 0 0 0 0 0 0 0 0 0 0 0 0 0 0 0 0 0 0 0 0 0 0 0 0 0 0
0.213503 1.70136e-09 3.53988e-10 1.34737e-09 0.791938 0.521821 0 0 0 0 0 0 0 0 0 0 0 0 0 0 0 0 0 0 0 0 0 0 0 0 0 0 0 0 0 0 0 0 0 0 0 0 0 0 0 0 0 0
0.224463 1.75307e-09 3.43912e-10 1.40916e-09 0.803823 0.55852 0 0 0 0 0 0 0 0 0 0 0 0 0 0 0 0 0 0 0 0 0 0 0 0 0 0 0 0 0 0 0 0 0 0 0 0 0 0 0 0 0 0
0.235984 1.75368e-09 3.34545e-10 1.41914e-09 0.809233 0.619607 0 0 0 0 0 0 0 0 0 0 0 0 0 0 0 0 0 0 0 0 0 0 0 0 0 0 0 0 0 0 0 0 0 0 0 0 0 0 0 0 0 0
0.248097 1.6973e-09 3.10849e-10 1.38645e-09 0.816856 0.631143 0 0 0 0 0 0 0 0 0 0 0 0 0 0 0 0 0 0 0 0 0 0 0 0 0 0 0 0 0 0 0 0 0 0 0 0 0 0 0 0 0 0
0.260832 1.63141e-09 2.87717e-10 1.34369e-09 0.823639 0.630026 0 0 0 0 0 0 0 0 0 0 0 0 0 0 0 0 0 0 0 0 0 0 0 0 0 0 0 0 0 0 0 0 0 0 0 0 0 0 0 0 0 0
0.274221 1.57912e-09 2.76584e-10 1.30254e-09 0.824849 0.638091 0 0 0 0 0 0 0 0 0 0 0 0 0 0 0 0 0 0 0 0 0 0 0 0 0 0 0 0 0 0 0 0 0 0 0 0 0 0 0 0 0 0
0.288297 1.5157e-09 2.72573e-10 1.24313e-09 0.820167 0.660103 0 0 0 0 0 0 0 0 0 0 0 0 0 0 0 0 0 0 0 0 0 0 0 0 0 0 0 0 0 0 0 0 0 0 0 0 0 0 0 0 0 0
0.303095 1.41681e-09 2.63977e-10 1.15283e-09 0.813682 0.67009 0 0 0 0 0 0 0 0 0 0 0 0 0 0 0 0 0 0 0 0 0 0 0 0 0 0 0 0 0 0 0 0 0 0 0 0 0 0 0 0 0 0
0.318653 1.29665e-09 2.46782e-10 1.04987e-09 0.809678 0.659841 0 0 0 0 0 0 0 0 0 0 0 0 0 0 0 0 0 0 0 0 0 0 0 0 0 0 0 0 0 0 0 0 0 0 0 0 0 0 0 0 0 0
0.335009 1.18603e-09 2.2708e-10 9.58949e-10 0.808537 0.634073 0 0 0 0 0 0 0 0 0 0 0 0 0 0 0 0 0 0 0 0 0 0 0 0 0 0 0 0 0 0 0 0 0 0 0 0 0 0 0 0 0 0
0.352205 1.09788e-09 2.11507e-10 8.86373e-10 0.80735 0.602231 0 0 0 0 0 0 0 0 0 0 0 0 0 0 0 0 0 0 0 0 0 0 0 0 0 0 0 0 0 0 0 0 0 0 0 0 0 0 0 0 0 0
0.370284 1.0249e-09 2.01366e-10 8.23533e-10 0.803526 0.57835 0 0 0 0 0 0 0 0 0 0 0 0 0 0 0 0 0 0 0 0 0 0 0 0 0 0 0 0 0 0 0 0 0 0 0 0 0 0 0 0 0 0
0.389291 9.52782e-10 1.94262e-10 7.58519e-10 0.79611 0.568886 0 0 0 0 0 0 0 0 0 0 0 0 0 0 0 0 0 0 0 0 0 0 0 0 0 0 0 0 0 0 0 0 0 0 0 0 0 0 0 0 0 0
0.409273 8.73549e-10 1.86977e-10 6.86573e-10 0.785958 0.571871 0 0 0 0 0 0 0 0 0 0 0 0 0 0 0 0 0 0 0 0 0 0 0 0 0 0 0 0 0 0 0 0 0 0 0 0 0 0 0 0 0 0
0.430281 7.86374e-10 1.77429e-10 6.08944e-10 0.77437 0.580517 0 0 0 0 0 0 0 0 0 0 0 0 0 0 0 0 0 0 0 0 0 0 0 0 0 0 0 0 0 0 0 0 0 0 0 0 0 0 0 0 0 0
0.452368 6.97335e-10 1.6536e-10 5.31975e-10 0.762869 0.585057 0 0 0 0 0 0 0 0 0 0 0 0 0 0 0 0 0 0 0 0 0 0 0 0 0 0 0 0 0 0 0 0 0 0 0 0 0 0 0 0 0 0
0.475588 6.13505e-10 1.51944e-10 4.61561e-10 0.752335 0.577166 0 0 0 0 0 0 0 0 0 0 0 0 0 0 0 0 0 0 0 0 0 0 0 0 0 0 0 0 0 0 0 0 0 0 0 0 0 0 0 0 0 0
0.5 5.3914e-10 1.38611e-10 4.00529e-10 0.742903 0.552565 0 0 0 0 0 0 0 0 0 0 0 0 0 0 0 0 0 0 0 0 0 0 0 0 0 0 0 0 0 0 0 0 0 0 0 0 0 0 0 0 0 0
0.525665 4.75058e-10 1.26402e-10 3.48656e-10 0.733923 0.512751 0 0 0 0 0 0 0 0 0 0 0 0 0 0 0 0 0 0 0 0 0 0 0 0 0 0 0 0 0 0 0 0 0 0 0 0 0 0 0 0 0 0
0.552648 4.19753e-10 1.15648e-10 3.04105e-10 0.724485 0.463861 0 0 0 0 0 0 0 0 0 0 0 0 0 0 0 0 0 0 0 0 0 0 0 0 0 0 0 0 0 0 0 0 0 0 0 0 0 0 0 0 0 0
0.581015 3.71094e-10 1.06303e-10 2.64791e-10 0.713541 0.41319 0 0 0 0 0 0 0 0 0 0 0 0 0 0 0 0 0 0 0 0 0 0 0 0 0 0 0 0 0 0 0 0 0 0 0 0 0 0 0 0 0 0
0.610839 3.27816e-10 9.81302e-11 2.29686e-10 0.700655 0.365249 0 0 0 0 0 0 0 0 0 0 0 0 0 0 0 0 0 0 0 0 0 0 0 0 0 0 0 0 0 0 0 0 0 0 0 0 0 0 0 0 0 0
0.642193 2.8903e-10 9.08532e-11 1.98177e-10 0.685662 0.322267 0 0 0 0 0 0 0 0 0 0 0 0 0 0 0 0 0 0 0 0 0 0 0 0 0 0 0 0 0 0 0 0 0 0 0 0 0 0 0 0 0 0
0.675157 2.54108e-10 8.43046e-11 1.69804e-10 0.668233 0.284897 0 0 0 0 0 0 0 0 0 0 0 0 0 0 0 0 0 0 0 0 0 0 0 0 0 0 0 0 0 0 0 0 0 0 0 0 0 0 0 0 0 0
0.709813 2.22779e-10 7.83358e-11 1.44443e-10 0.648369 0.252623 0 0 0 0 0 0 0 0 0 0 0 0 0 0 0 0 0 0 0 0 0 0 0 0 0 0 0 0 0 0 0 0 0 0 0 0 0 0 0 0 0 0
0.746248 1.94906e-10 7.28447e-11 1.22061e-10 0.626257 0.224746 0 0 0 0 0 0 0 0 0 0 0 0 0 0 0 0 0 0 0 0 0 0 0 0 0 0 0 0 0 0 0 0 0 0 0 0 0 0 0 0 0 0
0.784553 1.70264e-10 6.77553e-11 1.02509e-10 0.602057 0.20058 0 0 0 0 0 0 0 0 0 0 0 0 0 0 0 0 0 0 0 0 0 0 0 0 0 0 0 0 0 0 0 0 0 0 0 0 0 0 0 0 0 0
0.824824 1.48681e-10 6.30408e-11 8.56404e-11 0.576 0.179588 0 0 0 0 0 0 0 0 0 0 0 0 0 0 0 0 0 0 0 0 0 0 0 0 0 0 0 0 0 0 0 0 0 0 0 0 0 0 0 0 0 0
0.867162 1.2989e-10 5.86591e-11 7.12306e-11 0.548393 0.161195 0 0 0 0 0 0 0 0 0 0 0 0 0 0 0 0 0 0 0 0 0 0 0 0 0 0 0 0 0 0 0 0 0 0 0 0 0 0 0 0 0 0
0.911674 1.13637e-10 5.46379e-11 5.89991e-11 0.519189 0.144969 0 0 0 0 0 0 0 0 0 0 0 0 0 0 0 0 0 0 0 0 0 0 0 0 0 0 0 0 0 0 0 0 0 0 0 0 0 0 0 0 0 0
0.95847 9.96284e-11 5.0946e-11 4.86825e-11 0.48864 0.130586 0 0 0 0 0 0 0 0 0 0 0 0 0 0 0 0 0 0 0 0 0 0 0 0 0 0 0 0 0 0 0 0 0 0 0 0 0 0 0 0 0 0
1.00767 8.7489e-11 4.75249e-11 3.99641e-11 0.45679 0.117796 0 0 0 0 0 0 0 0 0 0 0 0 0 0 0 0 0 0 0 0 0 0 0 0 0 0 0 0 0 0 0 0 0 0 0 0 0 0 0 0 0 0
1.05939 7.80982e-11 4.53547e-11 3.27435e-11 0.419261 0.106373 0 0 0 0 0 0 0 0 0 0 0 0 0 0 0 0 0 0 0 0 0 0 0 0 0 0 0 0 0 0 0 0 0 0 0 0 0 0 0 0 0 0
1.11377 7.0338e-11 4.35013e-11 2.68367e-11 0.381539 0.0961286 0 0 0 0 0 0 0 0 0 0 0 0 0 0 0 0 0 0 0 0 0 0 0 0 0 0 0 0 0 0 0 0 0 0 0 0 0 0 0 0 0 0
1.17094 6.39543e-11 4.19344e-11 2.20198e-11 0.344306 0.0869163 0 0 0 0 0 0 0 0 0 0 0 0 0 0 0 0 0 0 0 0 0 0 0 0 0 0 0 0 0 0 0 0 0 0 0 0 0 0 0 0 0 0
1.23105 5.85867e-11 4.05388e-11 1.80478e-11 0.308054 0.0786252 0 0 0 0 0 0 0 0 0 0 0 0 0 0 0 0 0 0 0 0 0 0 0 0 0 0 0 0 0 0 0 0 0 0 0 0 0 0 0 0 0 0
1.29424 5.39529e-11 3.91605e-11 1.47924e-11 0.274173 0.0711528 0 0 0 0 0 0 0 0 0 0 0 0 0 0 0 0 0 0 0 0 0 0 0 0 0 0 0 0 0 0 0 0 0 0 0 0 0 0 0 0 0 0
1.36067 4.99556e-11 3.77812e-11 1.21745e-11 0.243706 0.0644116 0 0 0 0 0 0 0 0 0 0 0 0 0 0 0 0 0 0 0 0 0 0 0 0 0 0 0 0 0 0 0 0 0 0 0 0 0 0 0 0 0 0
1.43051 4.62743e-11 3.63741e-11 9.90018e-12 0.213946 0.0583068 0 0 0 0 0 0 0 0 0 0 0 0 0 0 0 0 0 0 0 0 0 0 0 0 0 0 0 0 0 0 0 0 0 0 0 0 0 0 0 0 0 0
1.50394 4.31125e-11 3.50241e-11 8.08844e-12 0.187612 0.052789 0 0 0 0 0 0 0 0 0 0 0 0 0 0 0 0 0 0 0 0 0 0 0 0 0 0 0 0 0 0 0 0 0 0 0 0 0 0 0 0 0 0
1.58114 4.0382e-11 3.3767e-11 6.61501e-12 0.163811 0.0478033 0 0 0 0 0 0 0 0 0 0 0 0 0 0 0 0 0 0 0 0 0 0 0 0 0 0 0 0 0 0 0 0 0 0 0 0 0 0 0 0 0 0
1.6623 3.8045e-11 3.26363e-11 5.40877e-12 0.142168 0.0432821 0 0 0 0 0 0 0 0 0 0 0 0 0 0 0 0 0 0 0 0 0 0 0 0 0 0 0 0 0 0 0 0 0 0 0 0 0 0 0 0 0 0
1.74763 3.60895e-11 3.16679e-11 4.42164e-12 0.122519 0.0391862 0 0 0 0 0 0 0 0 0 0 0 0 0 0 0 0 0 0 0 0 0 0 0 0 0 0 0 0 0 0 0 0 0 0 0 0 0 0 0 0 0 0
1.83733 3.45126e-11 3.08997e-11 3.61282e-12 0.104681 0.0354731 0 0 0 0 0 0 0 0 0 0 0 0 0 0 0 0 0 0 0 0 0 0 0 0 0 0 0 0 0 0 0 0 0 0 0 0 0 0 0 0 0 0
1.93164 3.32968e-11 3.0346e-11 2.95078e-12 0.0886207 0.0321151 0 0 0 0 0 0 0 0 0 0 0 0 0 0 0 0 0 0 0 0 0 0 0 0 0 0 0 0 0 0 0 0 0 0 0 0 0 0 0 0 0 0
2.03079 3.24103e-11 2.99988e-11 2.4115e-12 0.0744054 0.0290735 0 0 0 0 0 0 0 0 0 0 0 0 0 0 0 0 0 0 0 0 0 0 0 0 0 0 0 0 0 0 0 0 0 0 0 0 0 0 0 0 0 0
2.13503 3.17821e-11 2.98094e-11 1.97271e-12 0.0620698 0.0263138 0 0 0 0 0 0 0 0 0 0 0 0 0 0 0 0 0 0 0 0 0 0 0 0 0 0 0 0 0 0 0 0 0 0 0 0 0 0 0 0 0 0
2.24463 3.12912e-11 2.96759e-11 1.61536e-12 0.0516235 0.0238113 0 0 0 0 0 0 0 0 0 0 0 0 0 0 0 0 0 0 0 0 0 0 0 0 0 0 0 0 0 0 0 0 0 0 0 0 0 0 0 0 0 0
2.35984 3.08919e-11 2.95684e-11 1.32352e-12 0.0428435 0.0215478 0 0 0 0 0 0 0 0 0 0 0 0 0 0 0 0 0 0 0 0 0 0 0 0 0 0 0 0 0 0 0 0 0 0 0 0 0 0 0 0 0 0
2.48097 3.0607e-11 2.95221e-11 1.08482e-12 0.0354437 0.0194946 0 0 0 0 0 0 0 0 0 0 0 0 0 0 0 0 0 0 0 0 0 0 0 0 0 0 0 0 0 0 0 0 0 0 0 0 0 0 0 0 0 0
2.60832 3.04302e-11 2.95404e-11 8.89812e-13 0.0292411 0.0176339 0 0 0 0 0 0 0 0 0 0 0 0 0 0 0 0 0 0 0 0 0 0 0 0 0 0 0 0 0 0 0 0 0 0 0 0 0 0 0 0 0 0
2.74221 3.03904e-11 2.966e-11 7.30443e-13 0.0240353 0.0159486 0 0 0 0 0 0 0 0 0 0 0 0 0 0 0 0 0 0 0 0 0 0 0 0 0 0 0 0 0 0 0 0 0 0 0 0 0 0 0 0 0 0
2.88297 3.04839e-11 2.98833e-11 6.00654e-13 0.019704 0.0144208 0 0 0 0 0 0 0 0 0 0 0 0 0 0 0 0 0 0 0 0 0 0 0 0 0 0 0 0 0 0 0 0 0 0 0 0 0 0 0 0 0 0
3.03095 3.06982e-11 3.02024e-11 4.95864e-13 0.0161529 0.0130379 0 0 0 0 0 0 0 0 0 0 0 0 0 0 0 0 0 0 0 0 0 0 0 0 0 0 0 0 0 0 0 0 0 0 0 0 0 0 0 0 0 0
3.18653 3.06599e-11 3.02495e-11 4.10363e-13 0.0133844 0.0117847 0 0 0 0 0 0 0 0 0 0 0 0 0 0 0 0 0 0 0 0 0 0 0 0 0 0 0 0 0 0 0 0 0 0 0 0 0 0 0 0 0 0
3.35009 3.12493e-11 3.09139e-11 3.35333e-13 0.0107309 0.0106487 0 0 0 0 0 0 0 0 0 0 0 0 0 0 0 0 0 0 0 0 0 0 0 0 0 0 0 0 0 0 0 0 0 0 0 0 0 0 0 0 0 0
3.52205 3.10409e-11 3.07491e-11 2.91881e-13 0.00940309 0.00961958 0 0 0 0 0 0 0 0 0 0 0 0 0 0 0 0 0 0 0 0 0 0 0 0 0 0 0 0 0 0 0 0 0 0 0 0 0 0 0 0 0 0
3.70284 2.88668e-11 2.86295e-11 2.3736e-13 0.00822258 0.0086881 0 0 0 0 0 0 0 0 0 0 0 0 0 0 0 0 0 0 0 0 0 0 0 0 0 0 0 0 0 0 0 0 0 0 0 0 0 0 0 0 0 0
3.89291 2.8175e-11 2.79806e-11 1.94419e-13 0.00690043 0.00784337 0 0 0 0 0 0 0 0 0 0 0 0 0 0 0 0 0 0 0 0 0 0 0 0 0 0 0 0 0 0 0 0 0 0 0 0 0 0 0 0 0 0
4.09273 2.76237e-11 2.74644e-11 1.59365e-13 0.00576913 0.00707685 0 0 0 0 0 0 0 0 0 0 0 0 0 0 0 0 0 0 0 0 0 0 0 0 0 0 0 0 0 0 0 0 0 0 0 0 0 0 0 0 0 0
4.30281 2.72126e-11 2.70819e-11 1.30693e-13 0.00480265 0.00638186 0 0 0 0 0 0 0 0 0 0 0 0 0 0 0 0 0 0 0 0 0 0 0 0 0 0 0 0 0 0 0 0 0 0 0 0 0 0 0 0 0 0
4.52368 2.69484e-11 2.68411e-11 1.0729e-13 0.00398133 0.00575259 0 0 0 0 0 0 0 0 0 0 0 0 0 0 0 0 0 0 0 0 0 0 0 0 0 0 0 0 0 0 0 0 0 0 0 0 0 0 0 0 0 0
4.75588 2.67945e-11 2.67062e-11 8.82335e-14 0.00329297 0.00518145 0 0 0 0 0 0 0 0 0 0 0 0 0 0 0 0 0 0 0 0 0 0 0 0 0 0 0 0 0 0 0 0 0 0 0 0 0 0 0 0 0 0
5 2.66748e-11 2.66021e-11 7.27092e-14 0.00272576 0.00466189 0 0 0 0 0 0 0 0 0 0 0 0 0 0 0 0 0 0 0 0 0 0 0 0 0 0 0 0 0 0 0 0 0 0 0 0 0 0 0 0 0 0
5.25665 2.65222e-11 2.64622e-11 5.99835e-14 0.00226163 0.00418957 0 0 0 0 0 0 0 0 0 0 0 0 0 0 0 0 0 0 0 0 0 0 0 0 0 0 0 0 0 0 0 0 0 0 0 0 0 0 0 0 0 0
5.52648 2.63407e-11 2.62913e-11 4.94831e-14 0.00187857 0.0037619 0 0 0 0 0 0 0 0 0 0 0 0 0 0 0 0 0 0 0 0 0 0 0 0 0 0 0 0 0 0 0 0 0 0 0 0 0 0 0 0 0 0
5.81015 2.61097e-11 2.60689e-11 4.07763e-14 0.00156173 0.00337195 0 0 0 0 0 0 0 0 0 0 0 0 0 0 0 0 0 0 0 0 0 0 0 0 0 0 0 0 0 0 0 0 0 0 0 0 0 0 0 0 0 0
6.10839 2.58585e-11 2.5825e-11 3.35315e-14 0.00129673 0.00301741 0 0 0 0 0 0 0 0 0 0 0 0 0 0 0 0 0 0 0 0 0 0 0 0 0 0 0 0 0 0 0 0 1.4013e-45 0 5.60519e-45 0 1.4013e-44 0 3.50325e-44 0 8.26766e-44 0
6.42193 2.55793e-11 2.55518e-11 2.74746e-14 0.00107409 0.00269387 0 0 0 0 0 0 0 0 0 0 0 0 0 0 0 0 0 0 0 0 0 0 0 0 1.4013e-45 0 7.00649e-45 0 2.38221e-44 0 7.84727e-44 0 2.28412e-43 0 6.31986e-43 0 1.59608e-42 0 3.7793e-42 0 8.61098e-42 0
6.75157 2.53718e-11 2.53494e-11 2.23341e-14 0.000880273 0.00239562 0 0 0 0 0 0 0 0 0 0 0 0 0 0 0 0 0 0 1.4013e-45 0 9.80909e-45 0 5.04467e-44 0 2.158e-43 0 8.11352e-43 0 2.66667e-42 0 8.10371e-42 0 2.23563e-41 0 5.8975e-41 0 1.42379e-40 0 3.23197e-40 0 7.07301e-40 0
7.09813 2.49399e-11 2.49218e-11 1.81453e-14 0.000727561 0.00211477 0 0 0 0 0 0 0 0 0 0 0 0 0 0 2.8026e-45 0 2.8026e-44 0 2.0459e-43 0 1.15607e-42 0 5.27449e-42 0 2.07841e-41 0 7.3222e-41 0 2.26918e-40 0 6.53308e-40 0 1.71516e-39 0 4.31513e-39 0 9.97883e-39 0 2.17631e-38 0 4.58406e-38 0
7.46248 2.45855e-11 2.45711e-11 1.43778e-14 0.000584809 0.00184139 0 0 0 0 0 0 0 0 0 0 1.4013e-45 0 2.66247e-44 0 3.41917e-43 0 3.00999e-42 0 1.95369e-41 0 1.01457e-40 0 4.29848e-40 0 1.5839e-39 0 5.24739e-39 0 1.53883e-38 0 4.20741e-38 0 1.05374e-37 0 2.53432e-37 0 5.62563e-37 0 1.18108e-36 0 2.3989e-36 0
7.84553 2.4217e-11 2.42062e-11 1.0879e-14 0.000449229 0.00158063 0 0 0 0 0 0 0 0 2.8026e-45 0 1.42932e-43 0 2.71712e-42 0 3.14451e-41 0 2.48637e-40 0 1.47306e-39 0 7.05865e-39 0 2.78701e-38 0 9.63599e-38 0 3.01102e-37 0 8.37813e-37 0 2.18095e-36 0 5.22273e-36 0 1.20342e-35 0 2.56932e-35 0 5.20234e-35 0 1.02072e-34 0
8.24824 2.69611e-11 2.69531e-11 8.0002e-15 0.000296731 0.00135897 0 0 0 0 0 0 2.8026e-45 0 4.2039e-43 0 1.53162e-41 0 2.51747e-40 0 2.58454e-39 0 1.84737e-38 0 1.00343e-37 0 4.45413e-37 0 1.6446e-36 0 5.35196e-36 0 1.58187e-35 0 4.18703e-35 0 1.0402e-34 0 2.38701e-34 0 5.28047e-34 0 1.0864e-33 0 2.12526e-33 0 4.03488e-33 0
8.67162 3.2719e-11 3.2712e-11 6.93487e-15 0.000211953 0.00118279 0 0 0 0 0 0 4.65231e-43 0 4.61714e-41 0 1.41133e-39 0 2.02338e-38 0 1.85403e-37 0 1.20388e-36 0 6.02049e-36 0 2.48488e-35 0 8.60806e-35 0 2.64447e-34 0 7.41339e-34 0 1.87116e-33 0 4.4466e-33 0 9.7983e-33 0 2.08514e-32 0 4.14148e-32 0 7.8406e-32 0 1.44269e-31 0
9.11674 4.48879e-11 4.48797e-11 8.24853e-15 0.000183758 0.00100908 0 0 0 0 8.26766e-44 0 5.73551e-41 0 4.54458e-39 0 1.17552e-37 0 1.47985e-36 0 1.21698e-35 0 7.21244e-35 0 3.33428e-34 0 1.28415e-33 0 4.18668e-33 0 1.2176e-32 0 3.24583e-32 0 7.83049e-32 0 1.78382e-31 0 3.782e-31 0 7.75697e-31 0 1.48992e-30 0 2.73415e-30 0 4.88334e-30 0
9.5847 5.47482e-11 5.47367e-11 1.14493e-14 0.000209127 0.000902535 0 0 0 0 9.89457e-42 0 4.9817e-39 0 3.18851e-37 0 7.03638e-36 0 7.82761e-35 0 5.80791e-34 0 3.15563e-33 0 1.35376e-32 0 4.88162e-32 0 1.50231e-31 0 4.14722e-31 0 1.05387e-30 0 2.43544e-30 0 5.32945e-30 0 1.08923e-29 0 2.15703e-29 0 4.01316e-29 0 7.14947e-29 0 1.24128e-28 0
10.0767 5.30428e-11 5.30302e-11 1.26084e-14 0.000237703 0.000856568 0 0 1.12104e-44 0 7.42004e-40 0 2.75702e-37 0 1.44034e-35 0 2.73286e-34 0 2.7028e-33 0 1.81848e-32 0 9.09675e-32 0 3.63465e-31 0 1.23109e-30 0 3.58631e-30 0 9.42139e-30 0 2.28755e-29 0 5.07456e-29 0 1.0688e-28 0 2.10949e-28 0 4.04043e-28 0 7.29278e-28 0 1.26309e-27 0 2.13468e-27 0
10.5939 4.5182e-11 4.51708e-11 1.11974e-14 0.000247829 0.000842007 0 0 9.79508e-43 0 3.90802e-38 0 1.08771e-35 0 4.68441e-34 0 7.69845e-33 0 6.80785e-32 0 4.17334e-31 0 1.92986e-30 0 7.2066e-30 0 2.29979e-29 0 6.3588e-29 0 1.59354e-28 0 3.70517e-28 0 7.90571e-28 0 1.60563e-27 0 3.06555e-27 0 5.68824e-27 0 9.97522e-27 0 1.68197e-26 0 2.7707e-26 0
11.1377 3.77516e-11 3.77422e-11 9.41179e-15 0.000249308 0.00086228 1.4013e-45 0 6.85683e-41 0 1.63072e-36 0 3.4481e-34 0 1.23577e-32 0 1.77145e-31 0 1.40838e-30 0 7.90214e-30 0 3.39091e-29 0 1.18736e-28 0 3.58044e-28 0 9.42017e-28 0 2.25718e-27 0 5.0364e-27 0 1.03558e-26 0 2.03173e-26 0 3.7585e-26 0 6.7667e-26 0 1.15455e-25 0 1.89771e-25 0 3.05082e-25 0
11.7094 3.03113e-11 3.03039e-11 7.35895e-15 0.000242779 0.000867583 7.28675e-44 0 3.67017e-39 0 5.3367e-35 0 8.68857e-33 0 2.61467e-31 0 3.29115e-30 0 2.3647e-29 0 1.21964e-28 0 4.87437e-28 0 1.60551e-27 0 4.58735e-27 0 1.15126e-26 0 2.64332e-26 0 5.67135e-26 0 1.12581e-25 0 2.13726e-25 0 3.83675e-25 0 6.71208e-25 0 1.11574e-24 0 1.78996e-24 0 2.81167e-24 0
12.3105 2.43383e-11 2.43328e-11 5.48236e-15 0.000225257 0.00086318 5.34735e-42 0 1.58093e-37 0 1.43967e-33 0 1.82792e-31 0 4.65843e-30 0 5.18165e-29 0 3.38129e-28 0 1.60973e-27 0 6.01261e-27 0 1.86845e-26 0 5.07187e-26 0 1.21694e-25 0 2.68301e-25 0 5.5459e-25 0 1.06466e-24 0 1.95889e-24 0 3.41752e-24 0 5.81763e-24 0 9.43355e-24 0 1.47888e-23 0 2.27237e-23 0
12.9424 2.21152e-11 2.21112e-11 3.98563e-15 0.000180221 0.000825858 3.50469e-40 0 6.26782e-36 0 3.65727e-32 0 3.66555e-30 0 7.97557e-29 0 7.88695e-28 0 4.69625e-27 0 2.07174e-26 0 7.25608e-26 0 2.13343e-25 0 5.51558e-25 0 1.26804e-24 0 2.68982e-24 0 5.36631e-24 0 9.979e-24 0 1.78221e-23 0 3.02591e-23 0 5.01894e-23 0 7.94862e-23 0 1.21904e-22 0 1.83423e-22 0
