# 0.000812916 1 96 : grain size, compostion index, size index
# Heating and cooling timescale: 5.08391e-06 5.10273e+15
# Ratio of heating to cooling to determine stochastic cutoff: 100
# Equilibrium emission is recorded even for those grains in the stochastic regime.
# Emission spectrum was computed for: 
# Type: IRSF
# Scales: 0.25 0.5 1 1.5 2 2.5 3 3.5 4 4.5 5 5.5 6 6.5 7 7.5 8 8.5 9 9.5 10
# StochasticallyHeated: 0 0 0 0 0 0 0 0 0 0 0 0 0 0 0 0 0 0 0 0 0
# Temperature: -1
# Wavelength  CExt  CAbs  CSca  Albedo G EqEm1 StEm1 EqEm2 StEm2 EqEm3 StEm3 EqEm4 StEm4 EqEm5 StEm5 EqEm6 StEm6 EqEm7 StEm7 EqEm8 StEm8 EqEm9 StEm9 EqEm10 StEm10 EqEm11 StEm11 EqEm12 StEm12 EqEm13 StEm13 EqEm14 StEm14 EqEm15 StEm15 EqEm16 StEm16 EqEm17 StEm17 EqEm18 StEm18 EqEm19 StEm19 EqEm20 StEm20 EqEm21 StEm21
0.05 4.18827e-06 1.47481e-06 2.71346e-06 0.647871 0.855052 0 0 0 0 0 0 0 0 0 0 0 0 0 0 0 0 0 0 0 0 0 0 0 0 0 0 0 0 0 0 0 0 0 0 0 0 0 0 0 0 0 0
0.0525665 4.19011e-06 1.45143e-06 2.73868e-06 0.653605 0.842678 0 0 0 0 0 0 0 0 0 0 0 0 0 0 0 0 0 0 0 0 0 0 0 0 0 0 0 0 0 0 0 0 0 0 0 0 0 0 0 0 0 0
0.0552647 4.19203e-06 1.43395e-06 2.75808e-06 0.657934 0.832412 0 0 0 0 0 0 0 0 0 0 0 0 0 0 0 0 0 0 0 0 0 0 0 0 0 0 0 0 0 0 0 0 0 0 0 0 0 0 0 0 0 0
0.0581015 4.19389e-06 1.42639e-06 2.7675e-06 0.659889 0.826125 0 0 0 0 0 0 0 0 0 0 0 0 0 0 0 0 0 0 0 0 0 0 0 0 0 0 0 0 0 0 0 0 0 0 0 0 0 0 0 0 0 0
0.0610839 4.19578e-06 1.40666e-06 2.78911e-06 0.664743 0.817465 0 0 0 0 0 0 0 0 0 0 0 0 0 0 0 0 0 0 0 0 0 0 0 0 0 0 0 0 0 0 0 0 0 0 0 0 0 0 0 0 0 0
0.0642193 4.19808e-06 1.35681e-06 2.84127e-06 0.676803 0.799378 0 0 0 0 0 0 0 0 0 0 0 0 0 0 0 0 0 0 0 0 0 0 0 0 0 0 0 0 0 0 0 0 0 0 0 0 0 0 0 0 0 0
0.0675157 4.20093e-06 1.30767e-06 2.89326e-06 0.688719 0.779619 0 0 0 0 0 0 0 0 0 0 0 0 0 0 0 0 0 0 0 0 0 0 0 0 0 0 0 0 0 0 0 0 0 0 0 0 0 0 0 0 0 0
0.0709813 4.20397e-06 1.30399e-06 2.89997e-06 0.689818 0.772607 0 0 0 0 0 0 0 0 0 0 0 0 0 0 0 0 0 0 0 0 0 0 0 0 0 0 0 0 0 0 0 0 0 0 0 0 0 0 0 0 0 0
0.0746248 4.2069e-06 1.32526e-06 2.88165e-06 0.68498 0.773991 0 0 0 0 0 0 0 0 0 0 0 0 0 0 0 0 0 0 0 0 0 0 0 0 0 0 0 0 0 0 0 0 0 0 0 0 0 0 0 0 0 0
0.0784553 4.2097e-06 1.35432e-06 2.85538e-06 0.678286 0.778892 0 0 0 0 0 0 0 0 0 0 0 0 0 0 0 0 0 0 0 0 0 0 0 0 0 0 0 0 0 0 0 0 0 0 0 0 0 0 0 0 0 0
0.0824824 4.21248e-06 1.38742e-06 2.82506e-06 0.67064 0.784754 0 0 0 0 0 0 0 0 0 0 0 0 0 0 0 0 0 0 0 0 0 0 0 0 0 0 0 0 0 0 0 0 0 0 0 0 0 0 0 0 0 0
0.0867162 4.21532e-06 1.39631e-06 2.819e-06 0.668752 0.783675 0 0 0 0 0 0 0 0 0 0 0 0 0 0 0 0 0 0 0 0 0 0 0 0 0 0 0 0 0 0 0 0 0 0 0 0 0 0 0 0 0 0
0.0911674 4.2185e-06 1.39168e-06 2.82682e-06 0.670101 0.778604 0 0 0 0 0 0 0 0 0 0 0 0 0 0 0 0 0 0 0 0 0 0 0 0 0 0 0 0 0 0 0 0 0 0 0 0 0 0 0 0 0 0
0.095847 4.22176e-06 1.39975e-06 2.82201e-06 0.668445 0.776879 0 0 0 0 0 0 0 0 0 0 0 0 0 0 0 0 0 0 0 0 0 0 0 0 0 0 0 0 0 0 0 0 0 0 0 0 0 0 0 0 0 0
0.100767 4.22405e-06 1.45066e-06 2.77339e-06 0.656572 0.788206 0 0 0 0 0 0 0 0 0 0 0 0 0 0 0 0 0 0 0 0 0 0 0 0 0 0 0 0 0 0 0 0 0 0 0 0 0 0 0 0 0 0
0.105939 4.22568e-06 1.50125e-06 2.72443e-06 0.644731 0.802692 0 0 0 0 0 0 0 0 0 0 0 0 0 0 0 0 0 0 0 0 0 0 0 0 0 0 0 0 0 0 0 0 0 0 0 0 0 0 0 0 0 0
0.111377 4.2258e-06 1.59174e-06 2.63406e-06 0.623328 0.830348 0 0 0 0 0 0 0 0 0 0 0 0 0 0 0 0 0 0 0 0 0 0 0 0 0 0 0 0 0 0 0 0 0 0 0 0 0 0 0 0 0 0
0.117094 4.22574e-06 1.68384e-06 2.5419e-06 0.601527 0.862365 0 0 0 0 0 0 0 0 0 0 0 0 0 0 0 0 0 0 0 0 0 0 0 0 0 0 0 0 0 0 0 0 0 0 0 0 0 0 0 0 0 0
0.123105 4.22694e-06 1.74378e-06 2.48317e-06 0.587462 0.884783 0 0 0 0 0 0 0 0 0 0 0 0 0 0 0 0 0 0 0 0 0 0 0 0 0 0 0 0 0 0 0 0 0 0 0 0 0 0 0 0 0 0
0.129424 4.22863e-06 1.79503e-06 2.4336e-06 0.575505 0.904556 0 0 0 0 0 0 0 0 0 0 0 0 0 0 0 0 0 0 0 0 0 0 0 0 0 0 0 0 0 0 0 0 0 0 0 0 0 0 0 0 0 0
0.136067 4.23037e-06 1.83637e-06 2.394e-06 0.565907 0.920586 0 0 0 0 0 0 0 0 0 0 0 0 0 0 0 0 0 0 0 0 0 0 0 0 0 0 0 0 0 0 0 0 0 0 0 0 0 0 0 0 0 0
0.143051 4.23159e-06 1.86859e-06 2.363e-06 0.558418 0.933088 0 0 0 0 0 0 0 0 0 0 0 0 0 0 0 0 0 0 0 0 0 0 0 0 0 0 0 0 0 0 0 0 0 0 0 0 0 0 0 0 0 0
0.150394 4.23176e-06 1.88654e-06 2.34522e-06 0.554195 0.941145 0 0 0 0 0 0 0 0 0 0 0 0 0 0 0 0 0 0 0 0 0 0 0 0 0 0 0 0 0 0 0 0 0 0 0 0 0 0 0 0 0 0
0.158114 4.2318e-06 1.87927e-06 2.35253e-06 0.555917 0.942023 0 0 0 0 0 0 0 0 0 0 0 0 0 0 0 0 0 0 0 0 0 0 0 0 0 0 0 0 0 0 0 0 0 0 0 0 0 0 0 0 0 0
0.16623 4.23365e-06 1.83373e-06 2.39992e-06 0.566869 0.931382 0 0 0 0 0 0 0 0 0 0 0 0 0 0 0 0 0 0 0 0 0 0 0 0 0 0 0 0 0 0 0 0 0 0 0 0 0 0 0 0 0 0
0.174762 4.23835e-06 1.74613e-06 2.49221e-06 0.588015 0.905308 0 0 0 0 0 0 0 0 0 0 0 0 0 0 0 0 0 0 0 0 0 0 0 0 0 0 0 0 0 0 0 0 0 0 0 0 0 0 0 0 0 0
0.183733 4.24429e-06 1.63699e-06 2.6073e-06 0.614307 0.870121 0 0 0 0 0 0 0 0 0 0 0 0 0 0 0 0 0 0 0 0 0 0 0 0 0 0 0 0 0 0 0 0 0 0 0 0 0 0 0 0 0 0
0.193164 4.25096e-06 1.52436e-06 2.7266e-06 0.641408 0.833922 0 0 0 0 0 0 0 0 0 0 0 0 0 0 0 0 0 0 0 0 0 0 0 0 0 0 0 0 0 0 0 0 0 0 0 0 0 0 0 0 0 0
0.203079 4.25811e-06 1.4272e-06 2.83091e-06 0.664827 0.804035 0 0 0 0 0 0 0 0 0 0 0 0 0 0 0 0 0 0 0 0 0 0 0 0 0 0 0 0 0 0 0 0 0 0 0 0 0 0 0 0 0 0
0.213503 4.26595e-06 1.34445e-06 2.9215e-06 0.684842 0.779761 0 0 0 0 0 0 0 0 0 0 0 0 0 0 0 0 0 0 0 0 0 0 0 0 0 0 0 0 0 0 0 0 0 0 0 0 0 0 0 0 0 0
0.224463 4.27513e-06 1.29123e-06 2.98389e-06 0.697966 0.76304 0 0 0 0 0 0 0 0 0 0 0 0 0 0 0 0 0 0 0 0 0 0 0 0 0 0 0 0 0 0 0 0 0 0 0 0 0 0 0 0 0 0
0.235984 4.28545e-06 1.26388e-06 3.02158e-06 0.705077 0.751835 0 0 0 0 0 0 0 0 0 0 0 0 0 0 0 0 0 0 0 0 0 0 0 0 0 0 0 0 0 0 0 0 0 0 0 0 0 0 0 0 0 0
0.248097 4.29622e-06 1.27616e-06 3.02006e-06 0.702957 0.74822 0 0 0 0 0 0 0 0 0 0 0 0 0 0 0 0 0 0 0 0 0 0 0 0 0 0 0 0 0 0 0 0 0 0 0 0 0 0 0 0 0 0
0.260832 4.30425e-06 1.31233e-06 2.99192e-06 0.695109 0.750275 0 0 0 0 0 0 0 0 0 0 0 0 0 0 0 0 0 0 0 0 0 0 0 0 0 0 0 0 0 0 0 0 0 0 0 0 0 0 0 0 0 0
0.274221 4.30889e-06 1.35319e-06 2.95571e-06 0.685955 0.754264 0 0 0 0 0 0 0 0 0 0 0 0 0 0 0 0 0 0 0 0 0 0 0 0 0 0 0 0 0 0 0 0 0 0 0 0 0 0 0 0 0 0
0.288297 4.31019e-06 1.40347e-06 2.90672e-06 0.674384 0.763407 0 0 0 0 0 0 0 0 0 0 0 0 0 0 0 0 0 0 0 0 0 0 0 0 0 0 0 0 0 0 0 0 0 0 0 0 0 0 0 0 0 0
0.303095 4.31225e-06 1.43822e-06 2.87403e-06 0.66648 0.770413 0 0 0 0 0 0 0 0 0 0 0 0 0 0 0 0 0 0 0 0 0 0 0 0 0 0 0 0 0 0 0 0 0 0 0 0 0 0 0 0 0 0
0.318653 4.31475e-06 1.46679e-06 2.84796e-06 0.660052 0.776588 0 0 0 0 0 0 0 0 0 0 0 0 0 0 0 0 0 0 0 0 0 0 0 0 0 0 0 0 0 0 0 0 0 0 0 0 0 0 0 0 0 0
0.335009 4.31794e-06 1.48986e-06 2.82809e-06 0.654961 0.781914 0 0 0 0 0 0 0 0 0 0 0 0 0 0 0 0 0 0 0 0 0 0 0 0 0 0 0 0 0 0 0 0 0 0 0 0 0 0 0 0 0 0
0.352205 4.32194e-06 1.50647e-06 2.81547e-06 0.651437 0.785679 0 0 0 0 0 0 0 0 0 0 0 0 0 0 0 0 0 0 0 0 0 0 0 0 0 0 0 0 0 0 0 0 0 0 0 0 0 0 0 0 0 0
0.370284 4.32654e-06 1.51808e-06 2.80845e-06 0.649123 0.788003 0 0 0 0 0 0 0 0 0 0 0 0 0 0 0 0 0 0 0 0 0 0 0 0 0 0 0 0 0 0 0 0 0 0 0 0 0 0 0 0 0 0
0.389291 4.33154e-06 1.52533e-06 2.80621e-06 0.647854 0.788889 0 0 0 0 0 0 0 0 0 0 0 0 0 0 0 0 0 0 0 0 0 0 0 0 0 0 0 0 0 0 0 0 0 0 0 0 0 0 0 0 0 0
0.409273 4.33674e-06 1.53133e-06 2.80541e-06 0.646894 0.789413 0 0 0 0 0 0 0 0 0 0 0 0 0 0 0 0 0 0 0 0 0 0 0 0 0 0 0 0 0 0 0 0 0 0 0 0 0 0 0 0 0 0
0.430281 4.34206e-06 1.53678e-06 2.80528e-06 0.646072 0.789773 0 0 0 0 0 0 0 0 0 0 0 0 0 0 0 0 0 0 0 0 0 0 0 0 0 0 0 0 0 0 0 0 0 0 0 0 0 0 0 0 0 0
0.452368 4.34771e-06 1.54238e-06 2.80533e-06 0.645243 0.79032 0 0 0 0 0 0 0 0 0 0 0 0 0 0 0 0 0 0 0 0 0 0 0 0 0 0 0 0 0 0 0 0 0 0 0 0 0 0 0 0 0 0
0.475588 4.35359e-06 1.54773e-06 2.80586e-06 0.644493 0.79081 0 0 0 0 0 0 0 0 0 0 0 0 0 0 0 0 0 0 0 0 0 0 0 0 0 0 0 0 0 0 0 0 0 0 0 0 0 0 0 0 0 0
0.5 4.35985e-06 1.55226e-06 2.80758e-06 0.643964 0.791043 0 0 0 0 0 0 0 0 0 0 0 0 0 0 0 0 0 0 0 0 0 0 0 0 0 0 0 0 0 0 0 0 0 0 0 0 0 0 0 0 0 0
0.525665 4.36648e-06 1.55631e-06 2.81017e-06 0.643578 0.791116 0 0 0 0 0 0 0 0 0 0 0 0 0 0 0 0 0 0 0 0 0 0 0 0 0 0 0 0 0 0 0 0 0 0 0 0 0 0 0 0 0 0
0.552648 4.37332e-06 1.56011e-06 2.81322e-06 0.643268 0.791067 0 0 0 0 0 0 0 0 0 0 0 0 0 0 0 0 0 0 0 0 0 0 0 0 0 0 0 0 0 0 0 0 0 0 0 0 0 0 0 0 0 0
0.581015 4.38074e-06 1.56158e-06 2.81915e-06 0.643534 0.790234 0 0 0 0 0 0 0 0 0 0 0 0 0 0 0 0 0 0 0 0 0 0 0 0 0 0 0 0 0 0 0 0 0 0 0 0 0 0 0 0 0 0
0.610839 4.38835e-06 1.56304e-06 2.82531e-06 0.64382 0.78936 0 0 0 0 0 0 0 0 0 0 0 0 0 0 0 0 0 0 0 0 0 0 0 0 0 0 0 0 0 0 0 0 0 0 0 0 0 0 0 0 0 0
0.642193 4.39619e-06 1.56447e-06 2.83173e-06 0.644131 0.788441 0 0 0 0 0 0 0 0 0 0 0 0 0 0 0 0 0 0 0 0 0 0 0 0 0 0 0 0 0 0 0 0 0 0 0 0 0 0 0 0 0 0
0.675157 4.40434e-06 1.56504e-06 2.8393e-06 0.644659 0.787207 0 0 0 0 0 0 0 0 0 0 0 0 0 0 0 0 0 0 0 0 0 0 0 0 0 0 0 0 0 0 0 0 0 0 0 0 0 0 0 0 0 0
0.709813 4.41278e-06 1.56482e-06 2.84796e-06 0.64539 0.785677 0 0 0 0 0 0 0 0 0 0 0 0 0 0 0 0 0 0 0 0 0 0 0 0 0 0 0 0 0 0 0 0 0 0 0 0 0 0 0 0 0 0
0.746248 4.42143e-06 1.56423e-06 2.8572e-06 0.646216 0.783991 0 0 0 0 0 0 0 0 0 0 0 0 0 0 0 0 0 0 0 0 0 0 0 0 0 0 0 0 0 0 0 0 0 0 0 0 0 0 0 0 0 0
0.784553 4.43027e-06 1.56356e-06 2.86671e-06 0.647073 0.782258 0 0 0 0 0 0 0 0 0 0 0 0 0 0 0 0 0 0 0 0 0 0 0 0 0 0 0 0 0 0 0 0 0 0 0 0 0 0 0 0 0 0
0.824824 4.43929e-06 1.56283e-06 2.87646e-06 0.647955 0.78047 0 0 0 0 0 0 0 0 0 0 0 0 0 0 0 0 0 0 0 0 0 0 0 0 0 0 0 0 0 0 0 0 0 0 0 0 0 0 0 0 0 0
0.867162 4.44847e-06 1.56201e-06 2.88646e-06 0.648866 0.77863 0 0 0 0 0 0 0 0 0 0 0 0 0 0 0 0 0 0 0 0 0 0 0 0 0 0 0 0 0 0 0 0 0 0 0 0 0 0 0 0 0 0
0.911674 4.4578e-06 1.56122e-06 2.89658e-06 0.649779 0.776774 0 0 0 0 0 0 0 0 0 0 0 0 0 0 0 0 0 0 0 0 0 0 0 0 0 0 0 0 0 0 0 0 0 0 0 0 0 0 0 0 0 0
0.95847 4.46721e-06 1.56069e-06 2.90653e-06 0.650636 0.774956 0 0 0 0 0 0 0 0 0 0 0 0 0 0 0 0 0 0 0 0 0 0 0 0 0 0 0 0 0 0 0 0 0 0 0 0 0 0 0 0 0 0
1.00767 4.47681e-06 1.56014e-06 2.91667e-06 0.651506 0.773121 0 0 0 0 0 0 0 0 0 0 0 0 0 0 0 0 0 0 0 0 0 0 0 0 0 0 0 0 0 0 0 0 0 0 0 0 0 0 0 0 0 0
1.05939 4.48652e-06 1.56006e-06 2.92647e-06 0.65228 0.771381 0 0 0 0 0 0 0 0 0 0 0 0 0 0 0 0 0 0 0 0 0 0 0 0 0 0 0 0 0 0 0 0 0 0 0 0 0 0 0 0 0 0
1.11377 4.49641e-06 1.55983e-06 2.93657e-06 0.653094 0.769591 0 0 0 0 0 0 0 0 0 0 0 0 0 0 0 0 0 0 0 0 0 0 0 0 0 0 0 0 0 0 0 0 0 0 0 0 0 0 0 0 0 0
1.17094 4.50656e-06 1.56004e-06 2.94652e-06 0.653829 0.767889 0 0 0 0 0 0 0 0 0 0 0 0 0 0 0 0 0 0 0 0 0 0 0 0 0 0 0 0 0 0 0 0 0 0 0 0 0 0 0 0 0 0
1.23105 4.51655e-06 1.56022e-06 2.95633e-06 0.654555 0.766143 0 0 0 0 0 0 0 0 0 0 0 0 0 0 0 0 0 0 0 0 0 0 0 0 0 0 0 0 0 0 0 0 0 0 0 0 0 0 0 0 0 0
1.29424 4.52609e-06 1.55978e-06 2.96631e-06 0.65538 0.764194 0 0 0 0 0 0 0 0 0 0 0 0 0 0 0 0 0 0 0 0 0 0 0 0 0 0 0 0 0 0 0 0 0 0 0 0 0 0 0 0 0 0
1.36067 4.53672e-06 1.55925e-06 2.97747e-06 0.656304 0.762276 0 0 0 0 0 0 0 0 0 0 0 0 0 0 0 0 0 0 0 0 0 0 0 0 0 0 0 0 0 0 0 0 0 0 0 0 0 0 0 0 0 0
1.43051 4.55126e-06 1.55855e-06 2.9927e-06 0.657555 0.760509 0 0 0 0 0 0 0 0 0 0 0 0 0 0 0 0 0 0 0 0 0 0 0 0 0 0 0 0 0 0 0 0 0 0 0 0 0 0 0 0 0 0
1.50394 4.56075e-06 1.55744e-06 3.00331e-06 0.658512 0.758406 0 0 0 0 0 0 0 0 0 0 0 0 0 0 0 0 0 0 0 0 0 0 0 0 0 0 0 0 0 0 0 0 0 0 0 0 0 0 0 0 0 0
1.58114 4.56523e-06 1.5554e-06 3.00983e-06 0.659294 0.755829 0 0 0 0 0 0 0 0 0 0 0 0 0 0 0 0 0 0 0 0 0 0 0 0 0 0 0 0 0 0 0 0 0 0 0 0 0 0 0 0 0 0
1.6623 4.58988e-06 1.55192e-06 3.03796e-06 0.661882 0.753983 0 0 0 0 0 0 0 0 0 0 0 0 0 0 0 0 0 0 0 0 0 0 0 0 0 0 0 0 0 0 0 0 0 0 0 0 0 0 0 0 0 0
1.74763 4.58924e-06 1.54706e-06 3.04218e-06 0.662893 0.750652 0 0 0 0 0 0 0 0 0 0 0 0 0 0 0 0 0 0 0 0 0 0 0 0 0 0 0 0 0 0 0 0 0 0 0 0 0 0 0 0 0 0
1.83733 4.60681e-06 1.54126e-06 3.06555e-06 0.665439 0.747948 0 0 0 0 0 0 0 0 0 0 0 0 0 0 0 0 0 0 0 0 0 0 0 0 0 0 0 0 0 0 0 0 0 0 0 0 0 0 0 0 0 0
1.93164 4.61976e-06 1.53447e-06 3.08529e-06 0.667846 0.744898 0 0 0 0 0 0 0 0 0 0 0 0 0 0 0 0 0 0 0 0 0 0 0 0 0 0 0 0 0 0 0 0 0 0 0 0 0 0 0 0 0 0
2.03079 4.62789e-06 1.52624e-06 3.10165e-06 0.670208 0.741187 0 0 0 0 0 0 0 0 0 0 0 0 0 0 0 0 0 0 0 0 0 0 0 0 0 0 0 0 0 0 0 0 0 0 0 0 0 0 0 0 0 0
2.13503 4.64313e-06 1.51633e-06 3.1268e-06 0.673426 0.737572 0 0 0 0 0 0 0 0 0 0 0 0 0 0 0 0 0 0 0 0 0 0 0 0 0 0 0 0 0 0 0 0 0 0 0 0 0 0 0 0 0 0
2.24463 4.66314e-06 1.50526e-06 3.15788e-06 0.6772 0.73442 0 0 0 0 0 0 0 0 0 0 0 0 0 0 0 0 0 0 0 0 0 0 0 0 0 0 0 0 0 0 0 0 0 0 0 0 0 0 0 0 0 0
2.35984 4.64514e-06 1.49383e-06 3.15131e-06 0.678411 0.728278 0 0 0 0 0 0 0 0 0 0 0 0 0 0 0 0 0 0 0 0 0 0 0 0 0 0 0 0 0 0 0 0 0 0 0 0 0 0 0 0 0 0
2.48097 4.71729e-06 1.48281e-06 3.23448e-06 0.685665 0.727817 0 0 0 0 0 0 0 0 0 0 0 0 0 0 0 0 0 0 0 0 0 0 0 0 0 0 0 0 0 0 0 0 0 0 0 0 0 0 0 0 0 0
2.60832 4.65668e-06 1.46998e-06 3.1867e-06 0.684328 0.719179 0 0 0 0 0 0 0 0 0 0 0 0 0 0 0 0 0 0 0 0 0 0 0 0 0 0 0 0 0 0 0 0 0 0 0 0 0 0 0 0 0 0
2.74221 4.72318e-06 1.45471e-06 3.26847e-06 0.692007 0.718473 0 0 0 0 0 0 0 0 0 0 0 0 0 0 0 0 0 0 0 0 0 0 0 0 0 0 0 0 0 0 0 0 0 0 0 0 0 0 0 0 0 0
2.88297 4.75597e-06 1.4365e-06 3.31947e-06 0.697959 0.71471 0 0 0 0 0 0 0 0 0 0 0 0 0 0 0 0 0 0 0 0 0 0 0 0 0 0 0 0 0 0 0 0 0 0 0 0 0 0 0 0 0 0
3.03095 4.67403e-06 1.43145e-06 3.24258e-06 0.693745 0.702128 0 0 0 0 0 0 0 0 0 0 0 0 0 0 0 0 0 0 0 0 0 0 0 0 0 0 0 0 0 0 0 0 0 0 0 0 0 0 0 0 0 0
3.18653 4.77233e-06 1.4097e-06 3.36264e-06 0.70461 0.70536 0 0 0 0 0 0 0 0 0 0 0 0 0 0 0 0 0 0 0 0 0 0 0 0 0 0 0 0 0 0 0 0 0 0 0 0 0 0 0 0 0 0
3.35009 4.82111e-06 1.40013e-06 3.42098e-06 0.709583 0.702786 0 0 0 0 0 0 0 0 0 0 0 0 0 0 0 0 0 0 0 0 0 0 0 0 0 0 0 0 0 0 0 0 0 0 0 0 0 0 0 0 0 0
3.52205 4.71971e-06 1.38026e-06 3.33945e-06 0.707554 0.689619 0 0 0 0 0 0 0 0 0 0 0 0 0 0 0 0 0 0 0 0 0 0 0 0 0 0 0 0 0 0 0 0 0 0 0 0 0 0 0 0 0 0
3.70284 4.75686e-06 1.3657e-06 3.39116e-06 0.712899 0.686389 0 0 0 0 0 0 0 0 0 0 0 0 0 0 0 0 0 0 0 0 0 0 0 0 0 0 0 0 0 0 0 0 0 0 0 0 0 0 0 0 0 0
3.89291 4.89514e-06 1.36006e-06 3.53507e-06 0.722161 0.68981 0 0 0 0 0 0 0 0 0 0 0 0 0 0 0 0 0 0 0 0 0 0 0 0 0 0 0 0 0 0 0 0 0 0 0 0 0 0 0 0 0 0
4.09273 4.88071e-06 1.35429e-06 3.52643e-06 0.722523 0.682378 0 0 0 0 0 0 0 0 0 0 0 0 0 0 0 0 0 0 0 0 0 0 0 0 0 0 0 0 0 0 0 0 0 0 0 0 0 0 0 0 0 0
4.30281 4.74579e-06 1.34171e-06 3.40408e-06 0.717284 0.664113 0 0 0 0 0 0 0 0 0 0 0 0 0 0 0 0 0 0 0 0 0 0 0 0 0 0 0 0 0 0 0 0 0 0 0 0 0 0 0 0 0 0
4.52368 4.75921e-06 1.32235e-06 3.43686e-06 0.722149 0.660991 0 0 0 0 0 0 0 0 0 0 0 0 0 0 0 0 0 0 0 0 0 0 0 0 0 0 0 0 0 0 0 0 0 0 0 0 0 0 0 0 0 0
4.75588 4.90875e-06 1.30662e-06 3.60213e-06 0.733818 0.669629 0 0 0 0 0 0 0 0 0 0 0 0 0 0 0 0 0 0 0 0 0 0 0 0 0 0 0 0 0 0 0 0 0 0 0 0 0 0 0 0 0 0
5 4.99099e-06 1.29698e-06 3.69401e-06 0.740135 0.666891 0 0 0 0 0 0 0 0 0 0 0 0 0 0 0 0 0 0 0 0 0 0 0 0 0 0 0 0 0 0 0 0 0 0 0 0 0 0 0 0 0 0
5.25665 4.91446e-06 1.29583e-06 3.61864e-06 0.736324 0.648735 0 0 0 0 0 0 0 0 0 0 0 0 0 0 0 0 0 0 0 0 0 0 0 0 0 0 0 0 0 0 0 0 0 0 0 0 0 0 0 0 0 0
5.52648 4.8078e-06 1.29336e-06 3.51444e-06 0.730988 0.638977 0 0 0 0 0 0 0 0 0 0 0 0 0 0 0 0 0 0 0 0 0 0 0 0 0 0 0 0 0 0 0 0 0 0 0 0 0 0 0 0 0 0
5.81015 4.81921e-06 1.25806e-06 3.56115e-06 0.738949 0.641633 0 0 0 0 0 0 0 0 0 0 0 0 0 0 0 0 0 0 0 0 0 0 0 0 0 0 0 0 0 0 0 0 0 0 0 0 0 0 0 0 0 0
6.10839 4.944e-06 1.20835e-06 3.73565e-06 0.755593 0.648571 0 0 0 0 0 0 0 0 0 0 0 0 0 0 0 0 0 0 0 0 0 0 0 0 0 0 0 0 0 0 0 0 0 0 0 0 0 0 0 0 0 0
6.42193 5.14768e-06 1.2494e-06 3.89828e-06 0.757288 0.651655 0 0 0 0 0 0 0 0 0 0 0 0 0 0 0 0 0 0 0 0 0 0 0 0 0 0 0 0 0 0 0 0 0 0 0 0 0 0 0 0 0 0
6.75157 5.16325e-06 1.23499e-06 3.92826e-06 0.760812 0.638433 0 0 0 0 0 0 0 0 0 0 0 0 0 0 0 0 0 0 0 0 0 0 0 0 0 0 0 0 0 0 0 0 0 0 0 0 0 0 0 0 0 0
7.09813 5.10821e-06 1.23324e-06 3.87497e-06 0.758577 0.633532 0 0 0 0 0 0 0 0 0 0 0 0 0 0 0 0 0 0 0 0 0 0 0 0 0 0 0 0 0 0 0 0 0 0 0 0 0 0 0 0 0 0
7.46248 4.90444e-06 1.18441e-06 3.72003e-06 0.758502 0.595814 0 0 0 0 0 0 0 0 0 0 0 0 0 0 0 0 0 0 0 0 0 0 0 0 0 0 0 0 0 0 0 0 0 0 0 0 0 0 0 0 0 0
7.84553 4.77054e-06 1.23242e-06 3.53813e-06 0.741661 0.573949 0 0 0 0 0 0 0 0 0 0 0 0 0 0 0 0 0 0 0 0 0 0 0 0 0 0 0 0 0 0 0 0 0 0 0 0 0 0 0 0 0 0
8.24824 4.92886e-06 1.17332e-06 3.75555e-06 0.76195 0.586518 0 0 0 0 0 0 0 0 0 0 0 0 0 0 0 0 0 0 0 0 0 0 0 0 0 0 0 0 0 0 0 0 0 0 0 0 0 0 0 0 0 0
8.67162 5.02899e-06 1.23033e-06 3.79865e-06 0.755352 0.603531 0 0 0 0 0 0 0 0 0 0 0 0 0 0 0 0 0 0 0 0 0 0 0 0 0 0 0 0 0 0 0 0 0 0 0 0 0 0 0 0 0 0
9.11674 5.37428e-06 1.20748e-06 4.1668e-06 0.775323 0.621877 0 0 0 0 0 0 0 0 0 0 0 0 0 0 0 0 0 0 0 0 0 0 0 0 0 0 0 0 0 0 0 0 0 0 0 0 0 0 0 0 0 0
9.5847 5.40272e-06 1.23235e-06 4.17037e-06 0.771902 0.628005 0 0 0 0 0 0 0 0 0 0 0 0 0 0 0 0 0 0 0 0 0 0 0 0 0 0 0 0 0 0 0 0 0 0 0 0 0 0 0 0 0 0
10.0767 5.49241e-06 1.26561e-06 4.2268e-06 0.769571 0.632686 0 0 0 0 0 0 0 0 0 0 0 0 0 0 0 0 0 0 0 0 0 0 0 0 0 0 0 0 0 0 0 0 0 0 0 0 0 0 0 0 0 0
10.5939 5.32238e-06 1.30073e-06 4.02165e-06 0.755611 0.605774 0 0 0 0 0 0 0 0 0 0 0 0 0 0 0 0 0 0 0 0 0 0 0 0 0 0 0 0 0 0 0 0 0 0 0 0 0 0 0 0 0 0
11.1377 5.10763e-06 1.34056e-06 3.76707e-06 0.737537 0.601294 0 0 0 0 0 0 0 0 0 0 0 0 0 0 0 0 0 0 0 0 0 0 0 0 0 0 0 0 0 0 0 0 0 0 0 0 0 0 0 0 0 0
11.7094 5.10972e-06 1.38102e-06 3.7287e-06 0.729727 0.58128 0 0 0 0 0 0 0 0 0 0 0 0 0 0 0 0 0 0 0 0 0 0 0 0 0 0 0 0 0 0 0 0 0 0 0 0 0 0 0 0 1.4013e-45 0
12.3105 4.87137e-06 1.33495e-06 3.53642e-06 0.725961 0.526285 0 0 0 0 0 0 0 0 0 0 0 0 0 0 0 0 0 0 0 0 0 0 0 0 0 0 0 0 0 0 0 0 2.8026e-45 0 7.00649e-45 0 2.38221e-44 0 7.00649e-44 0 1.87774e-43 0
12.9424 4.95315e-06 1.42543e-06 3.52771e-06 0.712216 0.513555 0 0 0 0 0 0 0 0 0 0 0 0 0 0 0 0 0 0 0 0 0 0 0 0 1.4013e-45 0 7.00649e-45 0 3.08286e-44 0 1.21913e-43 0 4.28797e-43 0 1.38308e-42 0 4.00491e-42 0 1.13547e-41 0 2.91134e-41 0
13.6067 5.15196e-06 1.41784e-06 3.73412e-06 0.724796 0.527385 0 0 0 0 0 0 0 0 0 0 0 0 0 0 0 0 0 0 1.4013e-45 0 7.00649e-45 0 4.48416e-44 0 2.45227e-43 0 1.17149e-42 0 4.77422e-42 0 1.77278e-41 0 5.86556e-41 0 1.78877e-40 0 4.9193e-40 0 1.32564e-39 0 3.24622e-39 0
14.3051 5.39751e-06 1.47404e-06 3.92347e-06 0.726904 0.534656 0 0 0 0 0 0 0 0 0 0 0 0 0 0 1.4013e-45 0 1.26117e-44 0 1.42932e-43 0 1.11964e-42 0 7.00089e-42 0 3.55495e-41 0 1.57695e-40 0 6.00267e-40 0 2.09051e-39 0 6.52411e-39 0 1.88419e-38 0 4.93197e-38 0 1.26626e-37 0 2.96815e-37 0
15.0394 5.52602e-06 1.45126e-06 4.07476e-06 0.737377 0.540839 0 0 0 0 0 0 0 0 0 0 0 0 7.00649e-45 0 1.52742e-43 0 2.07112e-42 0 1.99265e-41 0 1.41565e-40 0 8.09611e-40 0 3.79778e-39 0 1.5665e-38 0 5.58617e-38 0 1.83047e-37 0 5.40381e-37 0 1.48189e-36 0 3.7009e-36 0 9.07438e-36 0 2.04041e-35 0
15.8114 5.75349e-06 1.44834e-06 4.30515e-06 0.748267 0.555645 0 0 0 0 0 0 0 0 0 0 2.8026e-44 0 1.05238e-42 0 2.13754e-41 0 2.54317e-40 0 2.19109e-39 0 1.41453e-38 0 7.42947e-38 0 3.23175e-37 0 1.24392e-36 0 4.16885e-36 0 1.28914e-35 0 3.60979e-35 0 9.42336e-35 0 2.25057e-34 0 5.28181e-34 0 1.14157e-33 0
16.623 5.91813e-06 1.50204e-06 4.41609e-06 0.746197 0.560454 0 0 0 0 0 0 0 0 4.90454e-44 0 4.33141e-42 0 1.37118e-40 0 2.40431e-39 0 2.5348e-38 0 1.96591e-37 0 1.1587e-36 0 5.61236e-36 0 2.27223e-35 0 8.18894e-35 0 2.58707e-34 0 7.571e-34 0 2.01606e-33 0 5.02205e-33 0 1.1495e-32 0 2.58767e-32 0 5.38624e-32 0
17.4762 5.84357e-06 1.4931e-06 4.35047e-06 0.744488 0.556727 0 0 0 0 0 0 2.10195e-44 0 6.96025e-42 0 4.99634e-40 0 1.33606e-38 0 2.03699e-37 0 1.91424e-36 0 1.34332e-35 0 7.26064e-35 0 3.25609e-34 0 1.23127e-33 0 4.16814e-33 0 1.24489e-32 0 3.45707e-32 0 8.77587e-32 0 2.09081e-31 0 4.59603e-31 0 9.94443e-31 0 1.99716e-30 0
18.3733 5.68252e-06 1.46165e-06 4.22086e-06 0.742781 0.550941 0 0 0 0 0 0 3.1277e-42 0 7.62915e-40 0 4.44517e-38 0 1.01247e-36 0 1.35138e-35 0 1.13835e-34 0 7.26354e-34 0 3.61546e-33 0 1.50683e-32 0 5.3397e-32 0 1.70314e-31 0 4.82214e-31 0 1.27397e-30 0 3.09021e-30 0 7.05675e-30 0 1.4927e-29 0 3.1103e-29 0 6.03738e-29 0
19.3164 5.50817e-06 1.45517e-06 4.05299e-06 0.735815 0.541135 0 0 0 0 1.16308e-43 0 3.57796e-40 0 6.67242e-38 0 3.18788e-36 0 6.23327e-35 0 7.33102e-34 0 5.56518e-33 0 3.24379e-32 0 1.49292e-31 0 5.80327e-31 0 1.9333e-30 0 5.82691e-30 0 1.56804e-29 0 3.95073e-29 0 9.17737e-29 0 2.01292e-28 0 4.10494e-28 0 8.25223e-28 0 1.55079e-27 0
