# 0.00029854 1 157 : grain size, compostion index, size index
# Heating and cooling timescale: 2.28475e-05 1.73082e+14
# Ratio of heating to cooling to determine stochastic cutoff: 100
# Equilibrium emission is recorded even for those grains in the stochastic regime.
# Emission spectrum was computed for: 
# Type: IRSF
# Scales: 0.25 0.5 1 1.5 2 2.5 3 3.5 4 4.5 5 5.5 6 6.5 7 7.5 8 8.5 9 9.5 10
# StochasticallyHeated: 0 0 0 0 0 0 0 0 0 0 0 0 0 0 0 0 0 0 0 0 0
# Temperature: -1
# Wavelength  CExt  CAbs  CSca  Albedo G EqEm1 StEm1 EqEm2 StEm2 EqEm3 StEm3 EqEm4 StEm4 EqEm5 StEm5 EqEm6 StEm6 EqEm7 StEm7 EqEm8 StEm8 EqEm9 StEm9 EqEm10 StEm10 EqEm11 StEm11 EqEm12 StEm12 EqEm13 StEm13 EqEm14 StEm14 EqEm15 StEm15 EqEm16 StEm16 EqEm17 StEm17 EqEm18 StEm18 EqEm19 StEm19 EqEm20 StEm20 EqEm21 StEm21
0.05 1.43715e-07 6.39525e-08 7.97623e-08 0.555004 0.214695 0 0 0 0 0 0 0 0 0 0 0 0 0 0 0 0 0 0 0 0 0 0 0 0 0 0 0 0 0 0 0 0 0 0 0 0 0 0 0 0 0 0
0.0525665 1.58847e-07 7.06864e-08 8.81609e-08 0.555004 0.237301 0 0 0 0 0 0 0 0 0 0 0 0 0 0 0 0 0 0 0 0 0 0 0 0 0 0 0 0 0 0 0 0 0 0 0 0 0 0 0 0 0 0
0.0552647 1.75573e-07 7.81293e-08 9.74438e-08 0.555004 0.262288 0 0 0 0 0 0 0 0 0 0 0 0 0 0 0 0 0 0 0 0 0 0 0 0 0 0 0 0 0 0 0 0 0 0 0 0 0 0 0 0 0 0
0.0581015 1.9406e-07 8.6356e-08 1.07704e-07 0.555004 0.289905 0 0 0 0 0 0 0 0 0 0 0 0 0 0 0 0 0 0 0 0 0 0 0 0 0 0 0 0 0 0 0 0 0 0 0 0 0 0 0 0 0 0
0.0610839 2.14494e-07 9.54488e-08 1.19045e-07 0.555004 0.320431 0 0 0 0 0 0 0 0 0 0 0 0 0 0 0 0 0 0 0 0 0 0 0 0 0 0 0 0 0 0 0 0 0 0 0 0 0 0 0 0 0 0
0.0642193 2.37079e-07 1.05499e-07 1.3158e-07 0.555004 0.354171 0 0 0 0 0 0 0 0 0 0 0 0 0 0 0 0 0 0 0 0 0 0 0 0 0 0 0 0 0 0 0 0 0 0 0 0 0 0 0 0 0 0
0.0675157 2.62042e-07 1.16608e-07 1.45434e-07 0.555004 0.391463 0 0 0 0 0 0 0 0 0 0 0 0 0 0 0 0 0 0 0 0 0 0 0 0 0 0 0 0 0 0 0 0 0 0 0 0 0 0 0 0 0 0
0.0709813 2.89634e-07 1.28886e-07 1.60748e-07 0.555004 0.432682 0 0 0 0 0 0 0 0 0 0 0 0 0 0 0 0 0 0 0 0 0 0 0 0 0 0 0 0 0 0 0 0 0 0 0 0 0 0 0 0 0 0
0.0746248 3.20131e-07 1.42457e-07 1.77674e-07 0.555004 0.478242 0 0 0 0 0 0 0 0 0 0 0 0 0 0 0 0 0 0 0 0 0 0 0 0 0 0 0 0 0 0 0 0 0 0 0 0 0 0 0 0 0 0
0.0784553 3.53839e-07 1.57457e-07 1.96382e-07 0.555004 0.528598 0 0 0 0 0 0 0 0 0 0 0 0 0 0 0 0 0 0 0 0 0 0 0 0 0 0 0 0 0 0 0 0 0 0 0 0 0 0 0 0 0 0
0.0824824 3.91097e-07 1.74036e-07 2.1706e-07 0.555004 0.584257 0 0 0 0 0 0 0 0 0 0 0 0 0 0 0 0 0 0 0 0 0 0 0 0 0 0 0 0 0 0 0 0 0 0 0 0 0 0 0 0 0 0
0.0867162 4.32277e-07 1.92362e-07 2.39916e-07 0.555004 0.645777 0 0 0 0 0 0 0 0 0 0 0 0 0 0 0 0 0 0 0 0 0 0 0 0 0 0 0 0 0 0 0 0 0 0 0 0 0 0 0 0 0 0
0.0911674 4.77794e-07 2.12616e-07 2.65178e-07 0.555004 0.713774 0 0 0 0 0 0 0 0 0 0 0 0 0 0 0 0 0 0 0 0 0 0 0 0 0 0 0 0 0 0 0 0 0 0 0 0 0 0 0 0 0 0
0.095847 5.28104e-07 2.35004e-07 2.931e-07 0.555004 0.788931 0 0 0 0 0 0 0 0 0 0 0 0 0 0 0 0 0 0 0 0 0 0 0 0 0 0 0 0 0 0 0 0 0 0 0 0 0 0 0 0 0 0
0.100767 5.74926e-07 2.55877e-07 3.19049e-07 0.55494 0.858816 0 0 0 0 0 0 0 0 0 0 0 0 0 0 0 0 0 0 0 0 0 0 0 0 0 0 0 0 0 0 0 0 0 0 0 0 0 0 0 0 0 0
0.105939 5.75404e-07 2.56359e-07 3.19045e-07 0.554471 0.862628 0 0 0 0 0 0 0 0 0 0 0 0 0 0 0 0 0 0 0 0 0 0 0 0 0 0 0 0 0 0 0 0 0 0 0 0 0 0 0 0 0 0
0.111377 5.75874e-07 2.56981e-07 3.18894e-07 0.553756 0.867528 0 0 0 0 0 0 0 0 0 0 0 0 0 0 0 0 0 0 0 0 0 0 0 0 0 0 0 0 0 0 0 0 0 0 0 0 0 0 0 0 0 0
0.117094 5.76351e-07 2.57555e-07 3.18796e-07 0.553128 0.870639 0 0 0 0 0 0 0 0 0 0 0 0 0 0 0 0 0 0 0 0 0 0 0 0 0 0 0 0 0 0 0 0 0 0 0 0 0 0 0 0 0 0
0.123105 5.76816e-07 2.58431e-07 3.18384e-07 0.551969 0.872572 0 0 0 0 0 0 0 0 0 0 0 0 0 0 0 0 0 0 0 0 0 0 0 0 0 0 0 0 0 0 0 0 0 0 0 0 0 0 0 0 0 0
0.129424 5.77287e-07 2.59463e-07 3.17824e-07 0.550547 0.873485 0 0 0 0 0 0 0 0 0 0 0 0 0 0 0 0 0 0 0 0 0 0 0 0 0 0 0 0 0 0 0 0 0 0 0 0 0 0 0 0 0 0
0.136067 5.77772e-07 2.60101e-07 3.17671e-07 0.549821 0.873197 0 0 0 0 0 0 0 0 0 0 0 0 0 0 0 0 0 0 0 0 0 0 0 0 0 0 0 0 0 0 0 0 0 0 0 0 0 0 0 0 0 0
0.143051 5.78266e-07 2.6129e-07 3.16976e-07 0.548149 0.870904 0 0 0 0 0 0 0 0 0 0 0 0 0 0 0 0 0 0 0 0 0 0 0 0 0 0 0 0 0 0 0 0 0 0 0 0 0 0 0 0 0 0
0.150394 5.78808e-07 2.63237e-07 3.1557e-07 0.545208 0.872038 0 0 0 0 0 0 0 0 0 0 0 0 0 0 0 0 0 0 0 0 0 0 0 0 0 0 0 0 0 0 0 0 0 0 0 0 0 0 0 0 0 0
0.158114 5.7944e-07 2.6578e-07 3.13659e-07 0.541315 0.878263 0 0 0 0 0 0 0 0 0 0 0 0 0 0 0 0 0 0 0 0 0 0 0 0 0 0 0 0 0 0 0 0 0 0 0 0 0 0 0 0 0 0
0.16623 5.80176e-07 2.68436e-07 3.1174e-07 0.537319 0.885908 0 0 0 0 0 0 0 0 0 0 0 0 0 0 0 0 0 0 0 0 0 0 0 0 0 0 0 0 0 0 0 0 0 0 0 0 0 0 0 0 0 0
0.174762 5.80937e-07 2.7082e-07 3.10117e-07 0.533821 0.89285 0 0 0 0 0 0 0 0 0 0 0 0 0 0 0 0 0 0 0 0 0 0 0 0 0 0 0 0 0 0 0 0 0 0 0 0 0 0 0 0 0 0
0.183733 5.81687e-07 2.71438e-07 3.10249e-07 0.533361 0.899044 0 0 0 0 0 0 0 0 0 0 0 0 0 0 0 0 0 0 0 0 0 0 0 0 0 0 0 0 0 0 0 0 0 0 0 0 0 0 0 0 0 0
0.193164 5.83995e-07 2.64535e-07 3.19459e-07 0.547024 0.904289 0 0 0 0 0 0 0 0 0 0 0 0 0 0 0 0 0 0 0 0 0 0 0 0 0 0 0 0 0 0 0 0 0 0 0 0 0 0 0 0 0 0
0.203079 5.84405e-07 2.65501e-07 3.18904e-07 0.54569 0.908733 0 0 0 0 0 0 0 0 0 0 0 0 0 0 0 0 0 0 0 0 0 0 0 0 0 0 0 0 0 0 0 0 0 0 0 0 0 0 0 0 0 0
0.213503 5.83982e-07 2.69017e-07 3.14965e-07 0.539341 0.912618 0 0 0 0 0 0 0 0 0 0 0 0 0 0 0 0 0 0 0 0 0 0 0 0 0 0 0 0 0 0 0 0 0 0 0 0 0 0 0 0 0 0
0.224463 5.83687e-07 2.71579e-07 3.12108e-07 0.534718 0.915796 0 0 0 0 0 0 0 0 0 0 0 0 0 0 0 0 0 0 0 0 0 0 0 0 0 0 0 0 0 0 0 0 0 0 0 0 0 0 0 0 0 0
0.235984 5.83509e-07 2.74127e-07 3.09382e-07 0.53021 0.918192 0 0 0 0 0 0 0 0 0 0 0 0 0 0 0 0 0 0 0 0 0 0 0 0 0 0 0 0 0 0 0 0 0 0 0 0 0 0 0 0 0 0
0.248097 5.83529e-07 2.76318e-07 3.07211e-07 0.526471 0.92004 0 0 0 0 0 0 0 0 0 0 0 0 0 0 0 0 0 0 0 0 0 0 0 0 0 0 0 0 0 0 0 0 0 0 0 0 0 0 0 0 0 0
0.260832 5.83816e-07 2.78106e-07 3.0571e-07 0.523641 0.921429 0 0 0 0 0 0 0 0 0 0 0 0 0 0 0 0 0 0 0 0 0 0 0 0 0 0 0 0 0 0 0 0 0 0 0 0 0 0 0 0 0 0
0.274221 5.84298e-07 2.79549e-07 3.04749e-07 0.521564 0.922531 0 0 0 0 0 0 0 0 0 0 0 0 0 0 0 0 0 0 0 0 0 0 0 0 0 0 0 0 0 0 0 0 0 0 0 0 0 0 0 0 0 0
0.288297 5.84937e-07 2.80716e-07 3.04221e-07 0.520091 0.923425 0 0 0 0 0 0 0 0 0 0 0 0 0 0 0 0 0 0 0 0 0 0 0 0 0 0 0 0 0 0 0 0 0 0 0 0 0 0 0 0 0 0
0.303095 5.85678e-07 2.81693e-07 3.03985e-07 0.519031 0.92412 0 0 0 0 0 0 0 0 0 0 0 0 0 0 0 0 0 0 0 0 0 0 0 0 0 0 0 0 0 0 0 0 0 0 0 0 0 0 0 0 0 0
0.318653 5.86533e-07 2.82538e-07 3.03996e-07 0.518292 0.924584 0 0 0 0 0 0 0 0 0 0 0 0 0 0 0 0 0 0 0 0 0 0 0 0 0 0 0 0 0 0 0 0 0 0 0 0 0 0 0 0 0 0
0.335009 5.87475e-07 2.83299e-07 3.04176e-07 0.517769 0.924825 0 0 0 0 0 0 0 0 0 0 0 0 0 0 0 0 0 0 0 0 0 0 0 0 0 0 0 0 0 0 0 0 0 0 0 0 0 0 0 0 0 0
0.352205 5.88491e-07 2.84012e-07 3.04479e-07 0.517389 0.925209 0 0 0 0 0 0 0 0 0 0 0 0 0 0 0 0 0 0 0 0 0 0 0 0 0 0 0 0 0 0 0 0 0 0 0 0 0 0 0 0 0 0
0.370284 5.89571e-07 2.84678e-07 3.04893e-07 0.517144 0.925212 0 0 0 0 0 0 0 0 0 0 0 0 0 0 0 0 0 0 0 0 0 0 0 0 0 0 0 0 0 0 0 0 0 0 0 0 0 0 0 0 0 0
0.389291 5.90721e-07 2.85342e-07 3.05379e-07 0.51696 0.924921 0 0 0 0 0 0 0 0 0 0 0 0 0 0 0 0 0 0 0 0 0 0 0 0 0 0 0 0 0 0 0 0 0 0 0 0 0 0 0 0 0 0
0.409273 5.91941e-07 2.86007e-07 3.05934e-07 0.516831 0.925172 0 0 0 0 0 0 0 0 0 0 0 0 0 0 0 0 0 0 0 0 0 0 0 0 0 0 0 0 0 0 0 0 0 0 0 0 0 0 0 0 0 0
0.430281 5.93206e-07 2.86671e-07 3.06535e-07 0.516744 0.924035 0 0 0 0 0 0 0 0 0 0 0 0 0 0 0 0 0 0 0 0 0 0 0 0 0 0 0 0 0 0 0 0 0 0 0 0 0 0 0 0 0 0
0.452368 5.9455e-07 2.87361e-07 3.07189e-07 0.516675 0.924447 0 0 0 0 0 0 0 0 0 0 0 0 0 0 0 0 0 0 0 0 0 0 0 0 0 0 0 0 0 0 0 0 0 0 0 0 0 0 0 0 0 0
0.475588 5.95957e-07 2.88063e-07 3.07894e-07 0.516638 0.92266 0 0 0 0 0 0 0 0 0 0 0 0 0 0 0 0 0 0 0 0 0 0 0 0 0 0 0 0 0 0 0 0 0 0 0 0 0 0 0 0 0 0
0.5 5.97435e-07 2.88793e-07 3.08642e-07 0.516612 0.922832 0 0 0 0 0 0 0 0 0 0 0 0 0 0 0 0 0 0 0 0 0 0 0 0 0 0 0 0 0 0 0 0 0 0 0 0 0 0 0 0 0 0
0.525665 5.98979e-07 2.89545e-07 3.09434e-07 0.516602 0.921119 0 0 0 0 0 0 0 0 0 0 0 0 0 0 0 0 0 0 0 0 0 0 0 0 0 0 0 0 0 0 0 0 0 0 0 0 0 0 0 0 0 0
0.552648 6.00602e-07 2.9032e-07 3.10283e-07 0.516619 0.919741 0 0 0 0 0 0 0 0 0 0 0 0 0 0 0 0 0 0 0 0 0 0 0 0 0 0 0 0 0 0 0 0 0 0 0 0 0 0 0 0 0 0
0.581015 6.02308e-07 2.91144e-07 3.11164e-07 0.516619 0.919644 0 0 0 0 0 0 0 0 0 0 0 0 0 0 0 0 0 0 0 0 0 0 0 0 0 0 0 0 0 0 0 0 0 0 0 0 0 0 0 0 0 0
0.610839 6.041e-07 2.92006e-07 3.12094e-07 0.516627 0.916315 0 0 0 0 0 0 0 0 0 0 0 0 0 0 0 0 0 0 0 0 0 0 0 0 0 0 0 0 0 0 0 0 0 0 0 0 0 0 0 0 0 0
0.642193 6.05979e-07 2.92891e-07 3.13088e-07 0.516665 0.91486 0 0 0 0 0 0 0 0 0 0 0 0 0 0 0 0 0 0 0 0 0 0 0 0 0 0 0 0 0 0 0 0 0 0 0 0 0 0 0 0 0 0
0.675157 6.07953e-07 2.93827e-07 3.14126e-07 0.516695 0.914234 0 0 0 0 0 0 0 0 0 0 0 0 0 0 0 0 0 0 0 0 0 0 0 0 0 0 0 0 0 0 0 0 0 0 0 0 0 0 0 0 0 0
0.709813 6.10033e-07 2.94823e-07 3.15211e-07 0.51671 0.910529 0 0 0 0 0 0 0 0 0 0 0 0 0 0 0 0 0 0 0 0 0 0 0 0 0 0 0 0 0 0 0 0 0 0 0 0 0 0 0 0 0 0
0.746248 6.12221e-07 2.95868e-07 3.16354e-07 0.516731 0.907568 0 0 0 0 0 0 0 0 0 0 0 0 0 0 0 0 0 0 0 0 0 0 0 0 0 0 0 0 0 0 0 0 0 0 0 0 0 0 0 0 0 0
0.784553 6.14535e-07 2.9698e-07 3.17555e-07 0.51674 0.906512 0 0 0 0 0 0 0 0 0 0 0 0 0 0 0 0 0 0 0 0 0 0 0 0 0 0 0 0 0 0 0 0 0 0 0 0 0 0 0 0 0 0
0.824824 6.16957e-07 2.98141e-07 3.18815e-07 0.516755 0.904113 0 0 0 0 0 0 0 0 0 0 0 0 0 0 0 0 0 0 0 0 0 0 0 0 0 0 0 0 0 0 0 0 0 0 0 0 0 0 0 0 0 0
0.867162 6.19499e-07 2.99363e-07 3.20136e-07 0.516766 0.899328 0 0 0 0 0 0 0 0 0 0 0 0 0 0 0 0 0 0 0 0 0 0 0 0 0 0 0 0 0 0 0 0 0 0 0 0 0 0 0 0 0 0
0.911674 6.22199e-07 3.00674e-07 3.21524e-07 0.516755 0.893386 0 0 0 0 0 0 0 0 0 0 0 0 0 0 0 0 0 0 0 0 0 0 0 0 0 0 0 0 0 0 0 0 0 0 0 0 0 0 0 0 0 0
0.95847 6.25037e-07 3.02083e-07 3.22954e-07 0.516696 0.889477 0 0 0 0 0 0 0 0 0 0 0 0 0 0 0 0 0 0 0 0 0 0 0 0 0 0 0 0 0 0 0 0 0 0 0 0 0 0 0 0 0 0
1.00767 6.28036e-07 3.03598e-07 3.24438e-07 0.516592 0.88754 0 0 0 0 0 0 0 0 0 0 0 0 0 0 0 0 0 0 0 0 0 0 0 0 0 0 0 0 0 0 0 0 0 0 0 0 0 0 0 0 0 0
1.05939 6.31762e-07 3.05917e-07 3.25845e-07 0.515772 0.886757 0 0 0 0 0 0 0 0 0 0 0 0 0 0 0 0 0 0 0 0 0 0 0 0 0 0 0 0 0 0 0 0 0 0 0 0 0 0 0 0 0 0
1.11377 6.35811e-07 3.08428e-07 3.27383e-07 0.514907 0.882844 0 0 0 0 0 0 0 0 0 0 0 0 0 0 0 0 0 0 0 0 0 0 0 0 0 0 0 0 0 0 0 0 0 0 0 0 0 0 0 0 0 0
1.17094 6.40528e-07 3.1099e-07 3.29539e-07 0.514479 0.874264 0 0 0 0 0 0 0 0 0 0 0 0 0 0 0 0 0 0 0 0 0 0 0 0 0 0 0 0 0 0 0 0 0 0 0 0 0 0 0 0 0 0
1.23105 6.47704e-07 3.1332e-07 3.34384e-07 0.516261 0.865971 0 0 0 0 0 0 0 0 0 0 0 0 0 0 0 0 0 0 0 0 0 0 0 0 0 0 0 0 0 0 0 0 0 0 0 0 0 0 0 0 0 0
1.29424 6.60437e-07 3.15906e-07 3.44531e-07 0.521672 0.860932 0 0 0 0 0 0 0 0 0 0 0 0 0 0 0 0 0 0 0 0 0 0 0 0 0 0 0 0 0 0 0 0 0 0 0 0 0 0 0 0 0 0
1.36067 6.73495e-07 3.18172e-07 3.55323e-07 0.52758 0.858396 0 0 0 0 0 0 0 0 0 0 0 0 0 0 0 0 0 0 0 0 0 0 0 0 0 0 0 0 0 0 0 0 0 0 0 0 0 0 0 0 0 0
1.43051 6.82243e-07 3.20986e-07 3.61257e-07 0.529514 0.857918 0 0 0 0 0 0 0 0 0 0 0 0 0 0 0 0 0 0 0 0 0 0 0 0 0 0 0 0 0 0 0 0 0 0 0 0 0 0 0 0 0 0
1.50394 6.82999e-07 3.23593e-07 3.59406e-07 0.526218 0.853238 0 0 0 0 0 0 0 0 0 0 0 0 0 0 0 0 0 0 0 0 0 0 0 0 0 0 0 0 0 0 0 0 0 0 0 0 0 0 0 0 0 0
1.58114 6.78906e-07 3.26411e-07 3.52495e-07 0.51921 0.838453 0 0 0 0 0 0 0 0 0 0 0 0 0 0 0 0 0 0 0 0 0 0 0 0 0 0 0 0 0 0 0 0 0 0 0 0 0 0 0 0 0 0
1.6623 6.7476e-07 3.29086e-07 3.45673e-07 0.512291 0.822973 0 0 0 0 0 0 0 0 0 0 0 0 0 0 0 0 0 0 0 0 0 0 0 0 0 0 0 0 0 0 0 0 0 0 0 0 0 0 0 0 0 0
1.74763 6.74615e-07 3.32354e-07 3.42261e-07 0.507342 0.807218 0 0 0 0 0 0 0 0 0 0 0 0 0 0 0 0 0 0 0 0 0 0 0 0 0 0 0 0 0 0 0 0 0 0 0 0 0 0 0 0 0 0
1.83733 6.79074e-07 3.35231e-07 3.43843e-07 0.506341 0.803746 0 0 0 0 0 0 0 0 0 0 0 0 0 0 0 0 0 0 0 0 0 0 0 0 0 0 0 0 0 0 0 0 0 0 0 0 0 0 0 0 0 0
1.93164 6.86887e-07 3.38542e-07 3.48344e-07 0.507135 0.809226 0 0 0 0 0 0 0 0 0 0 0 0 0 0 0 0 0 0 0 0 0 0 0 0 0 0 0 0 0 0 0 0 0 0 0 0 0 0 0 0 0 0
2.03079 6.95518e-07 3.42086e-07 3.53432e-07 0.508157 0.823603 0 0 0 0 0 0 0 0 0 0 0 0 0 0 0 0 0 0 0 0 0 0 0 0 0 0 0 0 0 0 0 0 0 0 0 0 0 0 0 0 0 0
2.13503 7.01428e-07 3.45622e-07 3.55806e-07 0.507259 0.832187 0 0 0 0 0 0 0 0 0 0 0 0 0 0 0 0 0 0 0 0 0 0 0 0 0 0 0 0 0 0 0 0 0 0 0 0 0 0 0 0 0 0
2.24463 7.0433e-07 3.49124e-07 3.55206e-07 0.504317 0.845927 0 0 0 0 0 0 0 0 0 0 0 0 0 0 0 0 0 0 0 0 0 0 0 0 0 0 0 0 0 0 0 0 0 0 0 0 0 0 0 0 0 0
2.35984 7.04587e-07 3.52504e-07 3.52083e-07 0.499701 0.833317 0 0 0 0 0 0 0 0 0 0 0 0 0 0 0 0 0 0 0 0 0 0 0 0 0 0 0 0 0 0 0 0 0 0 0 0 0 0 0 0 0 0
2.48097 7.04593e-07 3.55455e-07 3.49138e-07 0.495517 0.830347 0 0 0 0 0 0 0 0 0 0 0 0 0 0 0 0 0 0 0 0 0 0 0 0 0 0 0 0 0 0 0 0 0 0 0 0 0 0 0 0 0 0
2.60832 7.04867e-07 3.59078e-07 3.45789e-07 0.490573 0.78872 0 0 0 0 0 0 0 0 0 0 0 0 0 0 0 0 0 0 0 0 0 0 0 0 0 0 0 0 0 0 0 0 0 0 0 0 0 0 0 0 0 0
2.74221 7.09179e-07 3.61977e-07 3.47202e-07 0.489583 0.756638 0 0 0 0 0 0 0 0 0 0 0 0 0 0 0 0 0 0 0 0 0 0 0 0 0 0 0 0 0 0 0 0 0 0 0 0 0 0 0 0 0 0
2.88297 7.16191e-07 3.65205e-07 3.50986e-07 0.490073 0.697691 0 0 0 0 0 0 0 0 0 0 0 0 0 0 0 0 0 0 0 0 0 0 0 0 0 0 0 0 0 0 0 0 0 0 0 0 0 0 0 0 0 0
3.03095 7.26549e-07 3.68009e-07 3.5854e-07 0.493484 0.627393 0 0 0 0 0 0 0 0 0 0 0 0 0 0 0 0 0 0 0 0 0 0 0 0 0 0 0 0 0 0 0 0 0 0 0 0 0 0 0 0 0 0
3.18653 7.40348e-07 3.71825e-07 3.68524e-07 0.497771 0.602403 0 0 0 0 0 0 0 0 0 0 0 0 0 0 0 0 0 0 0 0 0 0 0 0 0 0 0 0 0 0 0 0 0 0 0 0 0 0 0 0 0 0
3.35009 7.55637e-07 3.74233e-07 3.81403e-07 0.504744 0.55933 0 0 0 0 0 0 0 0 0 0 0 0 0 0 0 0 0 0 0 0 0 0 0 0 0 0 0 0 0 0 0 0 0 0 0 0 0 0 0 0 0 0
3.52205 7.64423e-07 3.78097e-07 3.86326e-07 0.505382 0.565163 0 0 0 0 0 0 0 0 0 0 0 0 0 0 0 0 0 0 0 0 0 0 0 0 0 0 0 0 0 0 0 0 0 0 0 0 0 0 0 0 0 0
3.70284 7.85823e-07 3.77553e-07 4.0827e-07 0.519545 0.593487 0 0 0 0 0 0 0 0 0 0 0 0 0 0 0 0 0 0 0 0 0 0 0 0 0 0 0 0 0 0 0 0 0 0 0 0 0 0 0 0 0 0
3.89291 8.04082e-07 3.78227e-07 4.25855e-07 0.529616 0.608668 0 0 0 0 0 0 0 0 0 0 0 0 0 0 0 0 0 0 0 0 0 0 0 0 0 0 0 0 0 0 0 0 0 0 0 0 0 0 0 0 0 0
4.09273 8.22601e-07 3.78928e-07 4.43673e-07 0.539354 0.652876 0 0 0 0 0 0 0 0 0 0 0 0 0 0 0 0 0 0 0 0 0 0 0 0 0 0 0 0 0 0 0 0 0 0 0 0 0 0 0 0 0 0
4.30281 8.39468e-07 3.80117e-07 4.59351e-07 0.547194 0.680471 0 0 0 0 0 0 0 0 0 0 0 0 0 0 0 0 0 0 0 0 0 0 0 0 0 0 0 0 0 0 0 0 0 0 0 0 0 0 0 0 0 0
4.52368 8.51164e-07 3.81081e-07 4.70083e-07 0.552282 0.698891 0 0 0 0 0 0 0 0 0 0 0 0 0 0 0 0 0 0 0 0 0 0 0 0 0 0 0 0 0 0 0 0 0 0 0 0 0 0 0 0 0 0
4.75588 8.57477e-07 3.81687e-07 4.7579e-07 0.554872 0.718269 0 0 0 0 0 0 0 0 0 0 0 0 0 0 0 0 0 0 0 0 0 0 0 0 0 0 0 0 0 0 0 0 0 0 0 0 0 0 0 0 0 0
5 8.5956e-07 3.82164e-07 4.77396e-07 0.555396 0.736963 0 0 0 0 0 0 0 0 0 0 0 0 0 0 0 0 0 0 0 0 0 0 0 0 0 0 0 0 0 0 0 0 0 0 0 0 0 0 0 0 0 0
5.25665 8.58422e-07 3.83046e-07 4.75376e-07 0.553779 0.748787 0 0 0 0 0 0 0 0 0 0 0 0 0 0 0 0 0 0 0 0 0 0 0 0 0 0 0 0 0 0 0 0 0 0 0 0 0 0 0 0 0 0
5.52648 8.54021e-07 3.84464e-07 4.69557e-07 0.549819 0.75299 0 0 0 0 0 0 0 0 0 0 0 0 0 0 0 0 0 0 0 0 0 0 0 0 0 0 0 0 0 0 0 0 0 0 0 0 0 0 0 0 0 0
5.81015 8.45406e-07 3.85129e-07 4.60276e-07 0.544445 0.75301 0 0 0 0 0 0 0 0 0 0 0 0 0 0 0 0 0 0 0 0 0 0 0 0 0 0 0 0 0 0 0 0 0 0 0 0 0 0 0 0 0 0
6.10839 8.31775e-07 3.83913e-07 4.47862e-07 0.538441 0.75657 0 0 0 0 0 0 0 0 0 0 0 0 0 0 0 0 0 0 0 0 0 0 0 0 0 0 0 0 0 0 0 0 0 0 0 0 0 0 0 0 0 0
6.42193 8.14104e-07 3.81243e-07 4.32861e-07 0.531702 0.762533 0 0 0 0 0 0 0 0 0 0 0 0 0 0 0 0 0 0 0 0 0 0 0 0 0 0 0 0 0 0 0 0 0 0 0 0 0 0 0 0 0 0
6.75157 7.91752e-07 3.78592e-07 4.13161e-07 0.521831 0.762705 0 0 0 0 0 0 0 0 0 0 0 0 0 0 0 0 0 0 0 0 0 0 0 0 0 0 0 0 0 0 0 0 0 0 0 0 0 0 0 0 0 0
7.09813 7.69253e-07 3.76459e-07 3.92794e-07 0.510617 0.749481 0 0 0 0 0 0 0 0 0 0 0 0 0 0 0 0 0 0 0 0 0 0 0 0 0 0 0 0 0 0 0 0 0 0 0 0 0 0 0 0 0 0
7.46248 7.35129e-07 3.72435e-07 3.62695e-07 0.493375 0.737632 0 0 0 0 0 0 0 0 0 0 0 0 0 0 0 0 0 0 0 0 0 0 0 0 0 0 0 0 0 0 0 0 0 0 0 0 0 0 0 0 1.4013e-45 0
7.84553 6.81609e-07 3.6255e-07 3.19059e-07 0.468097 0.742562 0 0 0 0 0 0 0 0 0 0 0 0 0 0 0 0 0 0 0 0 0 0 0 0 0 0 0 0 0 0 1.4013e-45 0 4.2039e-45 0 1.4013e-44 0 3.78351e-44 0 1.02295e-43 0 2.53635e-43 0
8.24824 6.05099e-07 3.57289e-07 2.47811e-07 0.409537 0.72517 0 0 0 0 0 0 0 0 0 0 0 0 0 0 0 0 0 0 0 0 0 0 1.4013e-45 0 4.2039e-45 0 1.96182e-44 0 7.56701e-44 0 2.57839e-43 0 7.91734e-43 0 2.29393e-42 0 6.05641e-42 0 1.57072e-41 0 3.7381e-41 0
8.67162 5.7369e-07 3.68119e-07 2.05571e-07 0.358332 0.692538 0 0 0 0 0 0 0 0 0 0 0 0 0 0 0 0 0 0 4.2039e-45 0 3.22299e-44 0 1.80768e-43 0 8.37976e-43 0 3.31687e-42 0 1.22207e-41 0 3.91425e-41 0 1.13857e-40 0 3.12959e-40 0 7.87964e-40 0 1.95071e-39 0 4.4499e-39 0
9.11674 5.9976e-07 3.96216e-07 2.03544e-07 0.339376 0.653727 0 0 0 0 0 0 0 0 0 0 0 0 0 0 9.80909e-45 0 1.12104e-43 0 8.82818e-43 0 5.51411e-42 0 2.88962e-41 0 1.24091e-40 0 4.59362e-40 0 1.58784e-39 0 4.80474e-39 0 1.3266e-38 0 3.47079e-38 0 8.35349e-38 0 1.97848e-37 0 4.33514e-37 0
9.5847 6.77687e-07 4.29155e-07 2.48532e-07 0.366736 0.6257 0 0 0 0 0 0 0 0 0 0 4.2039e-45 0 1.17709e-43 0 1.79787e-42 0 1.82155e-41 0 1.30043e-40 0 7.43095e-40 0 3.59162e-39 0 1.43645e-38 0 4.98831e-38 0 1.62295e-37 0 4.65255e-37 0 1.22243e-36 0 3.05155e-36 0 7.03619e-36 0 1.59779e-35 0 3.36943e-35 0
10.0767 7.40784e-07 4.48941e-07 2.91843e-07 0.393965 0.602875 0 0 0 0 0 0 0 0 1.4013e-44 0 7.76319e-43 0 1.82561e-41 0 2.45121e-40 0 2.21796e-39 0 1.43854e-38 0 7.54953e-38 0 3.37877e-37 0 1.26289e-36 0 4.12698e-36 0 1.26756e-35 0 3.45162e-35 0 8.65116e-35 0 2.06525e-34 0 4.57167e-34 0 9.97391e-34 0 2.02807e-33 0
10.5939 7.72787e-07 4.56306e-07 3.16481e-07 0.409532 0.575613 0 0 0 0 0 0 1.4013e-44 0 2.29813e-42 0 1.06025e-40 0 2.13796e-39 0 2.52879e-38 0 2.05486e-37 0 1.21649e-36 0 5.88778e-36 0 2.44914e-35 0 8.58352e-35 0 2.64742e-34 0 7.69779e-34 0 1.99608e-33 0 4.7835e-33 0 1.09444e-32 0 2.33049e-32 0 4.89437e-32 0 9.61315e-32 0
11.1377 7.92962e-07 4.5847e-07 3.34492e-07 0.421825 0.548947 0 0 0 0 1.4013e-45 0 2.20564e-42 0 2.91086e-40 0 1.11361e-38 0 1.93924e-37 0 2.03311e-36 0 1.49145e-35 0 8.09513e-35 0 3.62771e-34 0 1.40757e-33 0 4.64011e-33 0 1.35457e-32 0 3.73865e-32 0 9.25386e-32 0 2.125e-31 0 4.66935e-31 0 9.58259e-31 0 1.94088e-30 0 3.68854e-30 0
11.7094 8.03555e-07 4.54732e-07 3.48824e-07 0.4341 0.518208 0 0 0 0 2.43826e-43 0 2.73032e-40 0 2.83869e-38 0 9.08984e-37 0 1.37679e-35 0 1.28698e-34 0 8.5657e-34 0 4.28068e-33 0 1.78286e-32 0 6.47446e-32 0 2.01358e-31 0 5.57862e-31 0 1.46525e-30 0 3.46978e-30 0 7.65087e-30 0 1.61777e-29 0 3.20552e-29 0 6.27263e-29 0 1.15529e-28 0
12.3105 8.01552e-07 4.44532e-07 3.5702e-07 0.445411 0.487905 0 0 0 0 3.26222e-41 0 2.59952e-38 0 2.15439e-36 0 5.82451e-35 0 7.72581e-34 0 6.4752e-33 0 3.92874e-32 0 1.81505e-31 0 7.05082e-31 0 2.40426e-30 0 7.07438e-30 0 1.86483e-29 0 4.67248e-29 0 1.06086e-28 0 2.25061e-28 0 4.58805e-28 0 8.79246e-28 0 1.66505e-27 0 2.97658e-27 0
12.9424 7.58401e-07 4.30237e-07 3.28165e-07 0.432706 0.465295 0 0 2.24208e-44 0 3.36594e-39 0 1.93568e-36 0 1.293e-34 0 2.97593e-33 0 3.47931e-32 0 2.62859e-31 0 1.46047e-30 0 6.26149e-30 0 2.27643e-29 0 7.31115e-29 0 2.04084e-28 0 5.13105e-28 0 1.22925e-27 0 2.68141e-27 0 5.4835e-27 0 1.07965e-26 0 2.00435e-26 0 3.67916e-26 0 6.39325e-26 0
13.6067 7.15654e-07 4.20355e-07 2.95299e-07 0.412629 0.459053 0 0 3.3435e-42 0 2.75737e-37 0 1.16274e-34 0 6.32637e-33 0 1.24933e-31 0 1.29542e-30 0 8.8667e-30 0 4.53075e-29 0 1.80921e-28 0 6.17584e-28 0 1.87364e-27 0 4.97442e-27 0 1.19561e-26 0 2.74472e-26 0 5.76348e-26 0 1.13818e-25 0 2.16805e-25 0 3.90518e-25 0 6.95887e-25 0 1.17705e-24 0
14.3051 6.68488e-07 4.09425e-07 2.59063e-07 0.387536 0.447387 1.4013e-45 0 3.77569e-40 0 1.7919e-35 0 5.62522e-33 0 2.51808e-31 0 4.29873e-30 0 3.97631e-29 0 2.47769e-28 0 1.16914e-27 0 4.36342e-27 0 1.40282e-26 0 4.03143e-26 0 1.02049e-25 0 2.34998e-25 0 5.18025e-25 0 1.04908e-24 0 2.00403e-24 0 3.69912e-24 0 6.4743e-24 0 1.12161e-23 0 1.84907e-23 0
15.0394 6.26625e-07 4.03492e-07 2.23132e-07 0.356086 0.397742 3.01279e-43 0 3.37955e-38 0 9.48114e-34 0 2.24792e-31 0 8.35805e-30 0 1.24226e-28 0 1.03082e-27 0 5.87426e-27 0 2.56966e-26 0 8.99311e-26 0 2.731e-25 0 7.45411e-25 0 1.80324e-24 0 3.98678e-24 0 8.45566e-24 0 1.6544e-23 0 3.06206e-23 0 5.48545e-23 0 9.34194e-23 0 1.57555e-22 0 2.53481e-22 0
