# 1e-05 0 98 : grain size, compostion index, size index
# Heating and cooling timescale: 0.0395636 103039
# Ratio of heating to cooling to determine stochastic cutoff: 100
# Equilibrium emission is recorded even for those grains in the stochastic regime.
# Emission spectrum was computed for: 
# Type: IRSF
# Scales: 0.25 0.5 1 1.5 2 2.5 3 3.5 4 4.5 5 5.5 6 6.5 7 7.5 8 8.5 9 9.5 10
# StochasticallyHeated: 0 0 0 0 0 0 0 0 0 0 0 0 0 0 0 0 0 0 0 0 0
# Temperature: -1
# Wavelength  CExt  CAbs  CSca  Albedo G EqEm1 StEm1 EqEm2 StEm2 EqEm3 StEm3 EqEm4 StEm4 EqEm5 StEm5 EqEm6 StEm6 EqEm7 StEm7 EqEm8 StEm8 EqEm9 StEm9 EqEm10 StEm10 EqEm11 StEm11 EqEm12 StEm12 EqEm13 StEm13 EqEm14 StEm14 EqEm15 StEm15 EqEm16 StEm16 EqEm17 StEm17 EqEm18 StEm18 EqEm19 StEm19 EqEm20 StEm20 EqEm21 StEm21
0.05 2.02437e-10 9.00349e-11 1.12402e-10 0.555245 0.00576547 0 0 0 0 0 0 0 0 0 0 0 0 0 0 0 0 0 0 0 0 0 0 0 0 0 0 0 0 0 0 0 0 0 0 0 0 0 0 0 0 0 0
0.0525665 2.23753e-10 9.95151e-11 1.24238e-10 0.555245 0.00637255 0 0 0 0 0 0 0 0 0 0 0 0 0 0 0 0 0 0 0 0 0 0 0 0 0 0 0 0 0 0 0 0 0 0 0 0 0 0 0 0 0 0
0.0552647 2.47313e-10 1.09994e-10 1.37319e-10 0.555245 0.00704355 0 0 0 0 0 0 0 0 0 0 0 0 0 0 0 0 0 0 0 0 0 0 0 0 0 0 0 0 0 0 0 0 0 0 0 0 0 0 0 0 0 0
0.0581015 2.73354e-10 1.21575e-10 1.51778e-10 0.555245 0.0077852 0 0 0 0 0 0 0 0 0 0 0 0 0 0 0 0 0 0 0 0 0 0 0 0 0 0 0 0 0 0 0 0 0 0 0 0 0 0 0 0 0 0
0.0610839 3.02136e-10 1.34377e-10 1.6776e-10 0.555245 0.00860494 0 0 0 0 0 0 0 0 0 0 0 0 0 0 0 0 0 0 0 0 0 0 0 0 0 0 0 0 0 0 0 0 0 0 0 0 0 0 0 0 0 0
0.0642193 3.3395e-10 1.48526e-10 1.85424e-10 0.555245 0.009511 0 0 0 0 0 0 0 0 0 0 0 0 0 0 0 0 0 0 0 0 0 0 0 0 0 0 0 0 0 0 0 0 0 0 0 0 0 0 0 0 0 0
0.0675157 3.69113e-10 1.64165e-10 2.04948e-10 0.555245 0.0105125 0 0 0 0 0 0 0 0 0 0 0 0 0 0 0 0 0 0 0 0 0 0 0 0 0 0 0 0 0 0 0 0 0 0 0 0 0 0 0 0 0 0
0.0709813 4.07979e-10 1.81451e-10 2.26528e-10 0.555245 0.0116194 0 0 0 0 0 0 0 0 0 0 0 0 0 0 0 0 0 0 0 0 0 0 0 0 0 0 0 0 0 0 0 0 0 0 0 0 0 0 0 0 0 0
0.0746248 4.50937e-10 2.00557e-10 2.50381e-10 0.555245 0.0128428 0 0 0 0 0 0 0 0 0 0 0 0 0 0 0 0 0 0 0 0 0 0 0 0 0 0 0 0 0 0 0 0 0 0 0 0 0 0 0 0 0 0
0.0784553 4.98419e-10 2.21674e-10 2.76745e-10 0.555245 0.0141951 0 0 0 0 0 0 0 0 0 0 0 0 0 0 0 0 0 0 0 0 0 0 0 0 0 0 0 0 0 0 0 0 0 0 0 0 0 0 0 0 0 0
0.0824824 5.509e-10 2.45015e-10 3.05884e-10 0.555245 0.0156898 0 0 0 0 0 0 0 0 0 0 0 0 0 0 0 0 0 0 0 0 0 0 0 0 0 0 0 0 0 0 0 0 0 0 0 0 0 0 0 0 0 0
0.0867162 6.08907e-10 2.70814e-10 3.38093e-10 0.555245 0.0173419 0 0 0 0 0 0 0 0 0 0 0 0 0 0 0 0 0 0 0 0 0 0 0 0 0 0 0 0 0 0 0 0 0 0 0 0 0 0 0 0 0 0
0.0911674 6.73022e-10 2.9933e-10 3.73692e-10 0.555245 0.0191679 0 0 0 0 0 0 0 0 0 0 0 0 0 0 0 0 0 0 0 0 0 0 0 0 0 0 0 0 0 0 0 0 0 0 0 0 0 0 0 0 0 0
0.095847 7.43888e-10 3.30848e-10 4.1304e-10 0.555245 0.0211862 0 0 0 0 0 0 0 0 0 0 0 0 0 0 0 0 0 0 0 0 0 0 0 0 0 0 0 0 0 0 0 0 0 0 0 0 0 0 0 0 0 0
0.100767 8.08838e-10 3.62374e-10 4.46464e-10 0.551982 0.0235692 0 0 0 0 0 0 0 0 0 0 0 0 0 0 0 0 0 0 0 0 0 0 0 0 0 0 0 0 0 0 0 0 0 0 0 0 0 0 0 0 0 0
0.105939 8.06593e-10 3.77267e-10 4.29326e-10 0.532271 0.0256046 0 0 0 0 0 0 0 0 0 0 0 0 0 0 0 0 0 0 0 0 0 0 0 0 0 0 0 0 0 0 0 0 0 0 0 0 0 0 0 0 0 0
0.111377 8.09782e-10 3.83346e-10 4.26435e-10 0.526605 0.0289403 0 0 0 0 0 0 0 0 0 0 0 0 0 0 0 0 0 0 0 0 0 0 0 0 0 0 0 0 0 0 0 0 0 0 0 0 0 0 0 0 0 0
0.117094 8.12529e-10 3.98492e-10 4.14037e-10 0.509566 0.0274507 0 0 0 0 0 0 0 0 0 0 0 0 0 0 0 0 0 0 0 0 0 0 0 0 0 0 0 0 0 0 0 0 0 0 0 0 0 0 0 0 0 0
0.123105 8.21033e-10 4.19745e-10 4.01288e-10 0.48876 0.0236555 0 0 0 0 0 0 0 0 0 0 0 0 0 0 0 0 0 0 0 0 0 0 0 0 0 0 0 0 0 0 0 0 0 0 0 0 0 0 0 0 0 0
0.129424 8.13201e-10 4.38083e-10 3.75118e-10 0.461286 0.0199126 0 0 0 0 0 0 0 0 0 0 0 0 0 0 0 0 0 0 0 0 0 0 0 0 0 0 0 0 0 0 0 0 0 0 0 0 0 0 0 0 0 0
0.136067 8.34721e-10 4.48141e-10 3.86581e-10 0.463125 0.0168557 0 0 0 0 0 0 0 0 0 0 0 0 0 0 0 0 0 0 0 0 0 0 0 0 0 0 0 0 0 0 0 0 0 0 0 0 0 0 0 0 0 0
0.143051 8.76038e-10 4.43545e-10 4.32493e-10 0.493692 0.0143876 0 0 0 0 0 0 0 0 0 0 0 0 0 0 0 0 0 0 0 0 0 0 0 0 0 0 0 0 0 0 0 0 0 0 0 0 0 0 0 0 0 0
0.150394 8.73379e-10 4.34888e-10 4.38491e-10 0.502062 0.0122986 0 0 0 0 0 0 0 0 0 0 0 0 0 0 0 0 0 0 0 0 0 0 0 0 0 0 0 0 0 0 0 0 0 0 0 0 0 0 0 0 0 0
0.158114 8.04162e-10 4.23292e-10 3.8087e-10 0.473624 0.01055 0 0 0 0 0 0 0 0 0 0 0 0 0 0 0 0 0 0 0 0 0 0 0 0 0 0 0 0 0 0 0 0 0 0 0 0 0 0 0 0 0 0
0.16623 7.24521e-10 4.14169e-10 3.10352e-10 0.428355 0.00908216 0 0 0 0 0 0 0 0 0 0 0 0 0 0 0 0 0 0 0 0 0 0 0 0 0 0 0 0 0 0 0 0 0 0 0 0 0 0 0 0 0 0
0.174762 6.80162e-10 4.08663e-10 2.71499e-10 0.399169 0.00782097 0 0 0 0 0 0 0 0 0 0 0 0 0 0 0 0 0 0 0 0 0 0 0 0 0 0 0 0 0 0 0 0 0 0 0 0 0 0 0 0 0 0
0.183733 6.76751e-10 4.05554e-10 2.71197e-10 0.400734 0.00667218 0 0 0 0 0 0 0 0 0 0 0 0 0 0 0 0 0 0 0 0 0 0 0 0 0 0 0 0 0 0 0 0 0 0 0 0 0 0 0 0 0 0
0.193164 7.16292e-10 4.07034e-10 3.09257e-10 0.431748 0.00556038 0 0 0 0 0 0 0 0 0 0 0 0 0 0 0 0 0 0 0 0 0 0 0 0 0 0 0 0 0 0 0 0 0 0 0 0 0 0 0 0 0 0
0.203079 7.85561e-10 4.15196e-10 3.70365e-10 0.471466 0.00446034 0 0 0 0 0 0 0 0 0 0 0 0 0 0 0 0 0 0 0 0 0 0 0 0 0 0 0 0 0 0 0 0 0 0 0 0 0 0 0 0 0 0
0.213503 8.64511e-10 4.2861e-10 4.35901e-10 0.504217 0.00342932 0 0 0 0 0 0 0 0 0 0 0 0 0 0 0 0 0 0 0 0 0 0 0 0 0 0 0 0 0 0 0 0 0 0 0 0 0 0 0 0 0 0
0.224463 9.31577e-10 4.39002e-10 4.92575e-10 0.528754 0.00254317 0 0 0 0 0 0 0 0 0 0 0 0 0 0 0 0 0 0 0 0 0 0 0 0 0 0 0 0 0 0 0 0 0 0 0 0 0 0 0 0 0 0
0.235984 9.70857e-10 4.39806e-10 5.3105e-10 0.546992 0.00182186 0 0 0 0 0 0 0 0 0 0 0 0 0 0 0 0 0 0 0 0 0 0 0 0 0 0 0 0 0 0 0 0 0 0 0 0 0 0 0 0 0 0
0.248097 9.79249e-10 4.3234e-10 5.46909e-10 0.558499 0.00138916 0 0 0 0 0 0 0 0 0 0 0 0 0 0 0 0 0 0 0 0 0 0 0 0 0 0 0 0 0 0 0 0 0 0 0 0 0 0 0 0 0 0
0.260832 9.63098e-10 4.21204e-10 5.41894e-10 0.562657 0.00141961 0 0 0 0 0 0 0 0 0 0 0 0 0 0 0 0 0 0 0 0 0 0 0 0 0 0 0 0 0 0 0 0 0 0 0 0 0 0 0 0 0 0
0.274221 9.43347e-10 4.19112e-10 5.24235e-10 0.555718 0.00187131 0 0 0 0 0 0 0 0 0 0 0 0 0 0 0 0 0 0 0 0 0 0 0 0 0 0 0 0 0 0 0 0 0 0 0 0 0 0 0 0 0 0
0.288297 9.34861e-10 4.32976e-10 5.01885e-10 0.536856 0.00251556 0 0 0 0 0 0 0 0 0 0 0 0 0 0 0 0 0 0 0 0 0 0 0 0 0 0 0 0 0 0 0 0 0 0 0 0 0 0 0 0 0 0
0.303095 9.3837e-10 4.56838e-10 4.81531e-10 0.513157 0.0028362 0 0 0 0 0 0 0 0 0 0 0 0 0 0 0 0 0 0 0 0 0 0 0 0 0 0 0 0 0 0 0 0 0 0 0 0 0 0 0 0 0 0
0.318653 9.50911e-10 4.824e-10 4.68511e-10 0.492697 0.00297223 0 0 0 0 0 0 0 0 0 0 0 0 0 0 0 0 0 0 0 0 0 0 0 0 0 0 0 0 0 0 0 0 0 0 0 0 0 0 0 0 0 0
0.335009 9.68238e-10 5.03755e-10 4.64483e-10 0.47972 0.00293231 0 0 0 0 0 0 0 0 0 0 0 0 0 0 0 0 0 0 0 0 0 0 0 0 0 0 0 0 0 0 0 0 0 0 0 0 0 0 0 0 0 0
0.352205 9.79253e-10 5.16048e-10 4.63205e-10 0.473018 0.00278811 0 0 0 0 0 0 0 0 0 0 0 0 0 0 0 0 0 0 0 0 0 0 0 0 0 0 0 0 0 0 0 0 0 0 0 0 0 0 0 0 0 0
0.370284 9.79751e-10 5.1877e-10 4.60982e-10 0.470509 0.00261033 0 0 0 0 0 0 0 0 0 0 0 0 0 0 0 0 0 0 0 0 0 0 0 0 0 0 0 0 0 0 0 0 0 0 0 0 0 0 0 0 0 0
0.389291 9.75492e-10 5.15868e-10 4.59624e-10 0.471171 0.00243645 0 0 0 0 0 0 0 0 0 0 0 0 0 0 0 0 0 0 0 0 0 0 0 0 0 0 0 0 0 0 0 0 0 0 0 0 0 0 0 0 0 0
0.409273 9.73293e-10 5.12128e-10 4.61165e-10 0.473819 0.00226652 0 0 0 0 0 0 0 0 0 0 0 0 0 0 0 0 0 0 0 0 0 0 0 0 0 0 0 0 0 0 0 0 0 0 0 0 0 0 0 0 0 0
0.430281 9.76625e-10 5.10633e-10 4.65992e-10 0.477145 0.00210471 0 0 0 0 0 0 0 0 0 0 0 0 0 0 0 0 0 0 0 0 0 0 0 0 0 0 0 0 0 0 0 0 0 0 0 0 0 0 0 0 0 0
0.452368 9.859e-10 5.12879e-10 4.73021e-10 0.479786 0.00193723 0 0 0 0 0 0 0 0 0 0 0 0 0 0 0 0 0 0 0 0 0 0 0 0 0 0 0 0 0 0 0 0 0 0 0 0 0 0 0 0 0 0
0.475588 9.99003e-10 5.19028e-10 4.79975e-10 0.480454 0.00177642 0 0 0 0 0 0 0 0 0 0 0 0 0 0 0 0 0 0 0 0 0 0 0 0 0 0 0 0 0 0 0 0 0 0 0 0 0 0 0 0 0 0
0.5 1.01196e-09 5.28192e-10 4.83767e-10 0.47805 0.00162159 0 0 0 0 0 0 0 0 0 0 0 0 0 0 0 0 0 0 0 0 0 0 0 0 0 0 0 0 0 0 0 0 0 0 0 0 0 0 0 0 0 0
0.525665 1.01969e-09 5.38295e-10 4.81392e-10 0.472098 0.0014751 0 0 0 0 0 0 0 0 0 0 0 0 0 0 0 0 0 0 0 0 0 0 0 0 0 0 0 0 0 0 0 0 0 0 0 0 0 0 0 0 0 0
0.552648 1.01707e-09 5.46508e-10 4.70557e-10 0.462662 0.00134175 0 0 0 0 0 0 0 0 0 0 0 0 0 0 0 0 0 0 0 0 0 0 0 0 0 0 0 0 0 0 0 0 0 0 0 0 0 0 0 0 0 0
0.581015 1.00035e-09 5.49951e-10 4.50399e-10 0.450241 0.00121775 0 0 0 0 0 0 0 0 0 0 0 0 0 0 0 0 0 0 0 0 0 0 0 0 0 0 0 0 0 0 0 0 0 0 0 0 0 0 0 0 0 0
0.610839 9.68633e-10 5.46715e-10 4.21918e-10 0.435581 0.00110516 0 0 0 0 0 0 0 0 0 0 0 0 0 0 0 0 0 0 0 0 0 0 0 0 0 0 0 0 0 0 0 0 0 0 0 0 0 0 0 0 0 0
0.642193 9.23354e-10 5.36181e-10 3.87173e-10 0.419312 0.00100302 0 0 0 0 0 0 0 0 0 0 0 0 0 0 0 0 0 0 0 0 0 0 0 0 0 0 0 0 0 0 0 0 0 0 0 0 0 0 0 0 0 0
0.675157 8.67923e-10 5.19111e-10 3.48812e-10 0.401893 0.000910957 0 0 0 0 0 0 0 0 0 0 0 0 0 0 0 0 0 0 0 0 0 0 0 0 0 0 0 0 0 0 0 0 0 0 0 0 0 0 0 0 0 0
0.709813 8.06377e-10 4.97001e-10 3.09376e-10 0.383662 0.00082817 0 0 0 0 0 0 0 0 0 0 0 0 0 0 0 0 0 0 0 0 0 0 0 0 0 0 0 0 0 0 0 0 0 0 0 0 0 0 0 0 0 0
0.746248 7.42197e-10 4.71446e-10 2.7075e-10 0.364796 0.000754183 0 0 0 0 0 0 0 0 0 0 0 0 0 0 0 0 0 0 0 0 0 0 0 0 0 0 0 0 0 0 0 0 0 0 0 0 0 0 0 0 0 0
0.784553 6.78246e-10 4.43878e-10 2.34368e-10 0.34555 0.000686995 0 0 0 0 0 0 0 0 0 0 0 0 0 0 0 0 0 0 0 0 0 0 0 0 0 0 0 0 0 0 0 0 0 0 0 0 0 0 0 0 0 0
0.824824 6.16385e-10 4.15355e-10 2.01031e-10 0.326144 0.000626788 0 0 0 0 0 0 0 0 0 0 0 0 0 0 0 0 0 0 0 0 0 0 0 0 0 0 0 0 0 0 0 0 0 0 0 0 0 0 0 0 0 0
0.867162 5.57732e-10 3.86627e-10 1.71105e-10 0.306788 0.000572518 0 0 0 0 0 0 0 0 0 0 0 0 0 0 0 0 0 0 0 0 0 0 0 0 0 0 0 0 0 0 0 0 0 0 0 0 0 0 0 0 0 0
0.911674 5.02964e-10 3.5828e-10 1.44684e-10 0.287663 0.000523427 0 0 0 0 0 0 0 0 0 0 0 0 0 0 0 0 0 0 0 0 0 0 0 0 0 0 0 0 0 0 0 0 0 0 0 0 0 0 0 0 0 0
0.95847 4.52291e-10 3.30624e-10 1.21667e-10 0.269001 0.00047944 0 0 0 0 0 0 0 0 0 0 0 0 0 0 0 0 0 0 0 0 0 0 0 0 0 0 0 0 0 0 0 0 0 0 0 0 0 0 0 0 0 0
1.00767 4.05828e-10 3.04006e-10 1.01821e-10 0.250898 0.0004395 0 0 0 0 0 0 0 0 0 0 0 0 0 0 0 0 0 0 0 0 0 0 0 0 0 0 0 0 0 0 0 0 0 0 0 0 0 0 0 0 0 0
1.05939 3.63464e-10 2.78599e-10 8.48641e-11 0.233487 0.000403275 0 0 0 0 0 0 0 0 0 0 0 0 0 0 0 0 0 0 0 0 0 0 0 0 0 0 0 0 0 0 0 0 0 0 0 0 0 0 0 0 0 0
1.11377 3.2493e-10 2.54476e-10 7.04535e-11 0.216827 0.000370298 0 0 0 0 0 0 0 0 0 0 0 0 0 0 0 0 0 0 0 0 0 0 0 0 0 0 0 0 0 0 0 0 0 0 0 0 0 0 0 0 0 0
1.17094 2.9023e-10 2.31888e-10 5.83419e-11 0.201019 0.000339515 0 0 0 0 0 0 0 0 0 0 0 0 0 0 0 0 0 0 0 0 0 0 0 0 0 0 0 0 0 0 0 0 0 0 0 0 0 0 0 0 0 0
1.23105 2.58951e-10 2.10778e-10 4.81723e-11 0.186029 0.000311294 0 0 0 0 0 0 0 0 0 0 0 0 0 0 0 0 0 0 0 0 0 0 0 0 0 0 0 0 0 0 0 0 0 0 0 0 0 0 0 0 0 0
1.29424 2.30912e-10 1.91218e-10 3.96945e-11 0.171903 0.000285362 0 0 0 0 0 0 0 0 0 0 0 0 0 0 0 0 0 0 0 0 0 0 0 0 0 0 0 0 0 0 0 0 0 0 0 0 0 0 0 0 0 0
1.36067 2.05813e-10 1.73162e-10 3.26509e-11 0.158644 0.000261742 0 0 0 0 0 0 0 0 0 0 0 0 0 0 0 0 0 0 0 0 0 0 0 0 0 0 0 0 0 0 0 0 0 0 0 0 0 0 0 0 0 0
1.43051 1.83362e-10 1.56552e-10 2.68098e-11 0.146212 0.000240209 0 0 0 0 0 0 0 0 0 0 0 0 0 0 0 0 0 0 0 0 0 0 0 0 0 0 0 0 0 0 0 0 0 0 0 0 0 0 0 0 0 0
1.50394 1.63361e-10 1.41371e-10 2.199e-11 0.13461 0.000220279 0 0 0 0 0 0 0 0 0 0 0 0 0 0 0 0 0 0 0 0 0 0 0 0 0 0 0 0 0 0 0 0 0 0 0 0 0 0 0 0 0 0
1.58114 1.45553e-10 1.27531e-10 1.80219e-11 0.123817 0.000201732 0 0 0 0 0 0 0 0 0 0 0 0 0 0 0 0 0 0 0 0 0 0 0 0 0 0 0 0 0 0 0 0 0 0 0 0 0 0 0 0 0 0
1.6623 1.29698e-10 1.14942e-10 1.47563e-11 0.113774 0.000184534 0 0 0 0 0 0 0 0 0 0 0 0 0 0 0 0 0 0 0 0 0 0 0 0 0 0 0 0 0 0 0 0 0 0 0 0 0 0 0 0 0 0
1.74763 1.15596e-10 1.03519e-10 1.20765e-11 0.104472 0.000169005 0 0 0 0 0 0 0 0 0 0 0 0 0 0 0 0 0 0 0 0 0 0 0 0 0 0 0 0 0 0 0 0 0 0 0 0 0 0 0 0 0 0
1.83733 1.03061e-10 9.31824e-11 9.8788e-12 0.0958537 0.000154804 0 0 0 0 0 0 0 0 0 0 0 0 0 0 0 0 0 0 0 0 0 0 0 0 0 0 0 0 0 0 0 0 0 0 0 0 0 0 0 0 0 0
1.93164 9.19089e-11 8.38314e-11 8.07753e-12 0.0878863 0.000141793 0 0 0 0 0 0 0 0 0 0 0 0 0 0 0 0 0 0 0 0 0 0 0 0 0 0 0 0 0 0 0 0 0 0 0 0 0 0 0 0 0 0
2.03079 8.19924e-11 7.53894e-11 6.60296e-12 0.0805314 0.000129725 0 0 0 0 0 0 0 0 0 0 0 0 0 0 0 0 0 0 0 0 0 0 0 0 0 0 0 0 0 0 0 0 0 0 0 0 0 0 0 0 0 0
2.13503 7.318e-11 6.77823e-11 5.39767e-12 0.0737589 0.000118657 0 0 0 0 0 0 0 0 0 0 0 0 0 0 0 0 0 0 0 0 0 0 0 0 0 0 0 0 0 0 0 0 0 0 0 0 0 0 0 0 0 0
2.24463 6.53403e-11 6.09289e-11 4.41138e-12 0.067514 0.000108569 0 0 0 0 0 0 0 0 0 0 0 0 0 0 0 0 0 0 0 0 0 0 0 0 0 0 0 0 0 0 0 0 0 0 0 0 0 0 0 0 0 0
2.35984 5.83682e-11 5.47629e-11 3.60529e-12 0.061768 9.92926e-05 0 0 0 0 0 0 0 0 0 0 0 0 0 0 0 0 0 0 0 0 0 0 0 0 0 0 0 0 0 0 0 0 0 0 0 0 0 0 0 0 0 0
2.48097 5.21632e-11 4.92168e-11 2.94641e-12 0.0564843 9.07218e-05 0 0 0 0 0 0 0 0 0 0 0 0 0 0 0 0 0 0 0 0 0 0 0 0 0 0 0 0 0 0 0 0 0 0 0 0 0 0 0 0 0 0
2.60832 4.66406e-11 4.42326e-11 2.40805e-12 0.0516299 8.27967e-05 0 0 0 0 0 0 0 0 0 0 0 0 0 0 0 0 0 0 0 0 0 0 0 0 0 0 0 0 0 0 0 0 0 0 0 0 0 0 0 0 0 0
2.74221 4.17295e-11 3.97612e-11 1.9683e-12 0.0471681 7.55862e-05 0 0 0 0 0 0 0 0 0 0 0 0 0 0 0 0 0 0 0 0 0 0 0 0 0 0 0 0 0 0 0 0 0 0 0 0 0 0 0 0 0 0
2.88297 3.73516e-11 3.5743e-11 1.60858e-12 0.0430659 6.90729e-05 0 0 0 0 0 0 0 0 0 0 0 0 0 0 0 0 0 0 0 0 0 0 0 0 0 0 0 0 0 0 0 0 0 0 0 0 0 0 0 0 0 0
3.03095 3.34595e-11 3.21445e-11 1.31501e-12 0.0393016 6.31538e-05 0 0 0 0 0 0 0 0 0 0 0 0 0 0 0 0 0 0 0 0 0 0 0 0 0 0 0 0 0 0 0 0 0 0 0 0 0 0 0 0 0 0
3.18653 2.9988e-11 2.89131e-11 1.07496e-12 0.0358463 5.76567e-05 0 0 0 0 0 0 0 0 0 0 0 0 0 0 0 0 0 0 0 0 0 0 0 0 0 0 0 0 0 0 0 0 0 0 0 0 0 0 0 0 0 0
3.35009 2.68979e-11 2.60191e-11 8.78821e-13 0.0326725 5.2603e-05 0 0 0 0 0 0 0 0 0 0 0 0 0 0 0 0 0 0 0 0 0 0 0 0 0 0 0 0 0 0 0 0 0 0 0 0 0 0 0 0 0 0
3.52205 2.41459e-11 2.34274e-11 7.18553e-13 0.0297587 4.80102e-05 0 0 0 0 0 0 0 0 0 0 0 0 0 0 0 0 0 0 0 0 0 0 0 0 0 0 0 0 0 0 0 0 0 0 0 0 0 0 0 0 0 0
3.70284 2.1693e-11 2.11055e-11 5.87513e-13 0.0270831 4.38066e-05 0 0 0 0 0 0 0 0 0 0 0 0 0 0 0 0 0 0 0 0 0 0 0 0 0 0 0 0 0 0 0 0 0 0 0 0 0 0 0 0 0 0
3.89291 1.95067e-11 1.90263e-11 4.8041e-13 0.024628 3.9926e-05 0 0 0 0 0 0 0 0 0 0 0 0 0 0 0 0 0 0 0 0 0 0 0 0 0 0 0 0 0 0 0 0 0 0 0 0 0 0 0 0 0 0
4.09273 1.75595e-11 1.71666e-11 3.92888e-13 0.0223747 3.62643e-05 0 0 0 0 0 0 0 0 0 0 0 0 0 0 0 0 0 0 0 0 0 0 0 0 0 0 0 0 0 0 0 0 0 0 0 0 0 0 0 0 0 0
4.30281 1.58247e-11 1.55034e-11 3.21331e-13 0.0203057 3.29535e-05 0 0 0 0 0 0 0 0 0 0 0 0 0 0 0 0 0 0 0 0 0 0 0 0 0 0 0 0 0 0 0 0 0 0 1.4013e-45 0 5.60519e-45 0 1.68156e-44 0 4.48416e-44 0
4.52368 1.42774e-11 1.40146e-11 2.62869e-13 0.0184115 2.99416e-05 0 0 0 0 0 0 0 0 0 0 0 0 0 0 0 0 0 0 0 0 0 0 0 0 0 0 1.4013e-45 0 5.60519e-45 0 2.38221e-44 0 7.70714e-44 0 2.39622e-43 0 7.00649e-43 0 1.87073e-42 0 4.73639e-42 0
4.75588 1.28985e-11 1.26834e-11 2.15056e-13 0.016673 2.71796e-05 0 0 0 0 0 0 0 0 0 0 0 0 0 0 0 0 0 0 0 0 1.4013e-45 0 7.00649e-45 0 3.92364e-44 0 1.76564e-43 0 6.83834e-43 0 2.45507e-42 0 7.67771e-42 0 2.25959e-41 0 6.27754e-41 0 1.59765e-40 0 3.86501e-40 0
5 1.16673e-11 1.14913e-11 1.75935e-13 0.0150794 2.45398e-05 0 0 0 0 0 0 0 0 0 0 0 0 0 0 0 0 2.8026e-45 0 2.10195e-44 0 1.5134e-43 0 8.46384e-43 0 3.9937e-42 0 1.67133e-41 0 6.03679e-41 0 2.03628e-40 0 6.02288e-40 0 1.68144e-39 0 4.44408e-39 0 1.0806e-38 0 2.50381e-38 0
5.25665 1.05699e-11 1.04259e-11 1.43957e-13 0.0136195 2.21678e-05 0 0 0 0 0 0 0 0 0 0 0 0 1.4013e-45 0 2.38221e-44 0 2.63444e-43 0 2.21685e-42 0 1.41489e-41 0 7.27694e-41 0 3.18438e-40 0 1.24259e-39 0 4.21537e-39 0 1.33994e-38 0 3.75888e-38 0 9.98083e-38 0 2.51569e-37 0 5.85734e-37 0 1.30263e-36 0
5.52648 9.58951e-12 9.47171e-12 1.17796e-13 0.0122838 2.00489e-05 0 0 0 0 0 0 0 0 0 0 5.60519e-45 0 1.48538e-43 0 2.35558e-42 0 2.3574e-41 0 1.79115e-40 0 1.04399e-39 0 4.957e-39 0 2.01833e-38 0 7.36929e-38 0 2.35522e-37 0 7.07553e-37 0 1.88738e-36 0 4.77817e-36 0 1.1512e-35 0 2.57201e-35 0 5.50103e-35 0
5.81015 8.71405e-12 8.61765e-12 9.63997e-14 0.0110626 1.8115e-05 0 0 0 0 0 0 0 0 9.80909e-45 0 5.73131e-43 0 1.34693e-41 0 1.86825e-40 0 1.67073e-39 0 1.14976e-38 0 6.14883e-38 0 2.70572e-37 0 1.02869e-36 0 3.52581e-36 0 1.0647e-35 0 3.03131e-35 0 7.70774e-35 0 1.8648e-34 0 4.30404e-34 0 9.24598e-34 0 1.90548e-33 0
6.10839 7.93081e-12 7.85189e-12 7.89234e-14 0.0099515 1.63023e-05 0 0 0 0 0 0 5.60519e-45 0 1.04957e-42 0 4.79104e-41 0 9.66065e-40 0 1.17849e-38 0 9.46984e-38 0 5.93121e-37 0 2.92265e-36 0 1.19632e-35 0 4.26121e-35 0 1.37527e-34 0 3.93479e-34 0 1.06448e-33 0 2.58611e-33 0 5.99266e-33 0 1.32778e-32 0 2.74784e-32 0 5.4665e-32 0
6.42193 7.19139e-12 7.12696e-12 6.44313e-14 0.0089595 1.48144e-05 0 0 0 0 0 0 6.23578e-43 0 8.34908e-41 0 3.1641e-39 0 5.50969e-38 0 5.94851e-37 0 4.31756e-36 0 2.4725e-35 0 1.12707e-34 0 4.30666e-34 0 1.44175e-33 0 4.39439e-33 0 1.19438e-32 0 3.07792e-32 0 7.16052e-32 0 1.59257e-31 0 3.39419e-31 0 6.77919e-31 0 1.3041e-30 0
6.75157 6.60688e-12 6.55408e-12 5.28023e-14 0.00799202 1.32279e-05 0 0 0 0 5.04467e-44 0 5.07214e-41 0 5.3455e-39 0 1.6964e-37 0 2.56933e-36 0 2.46975e-35 0 1.62725e-34 0 8.55752e-34 0 3.62241e-33 0 1.29647e-32 0 4.09156e-32 0 1.18105e-31 0 3.05711e-31 0 7.52234e-31 0 1.67933e-30 0 3.59203e-30 0 7.37791e-30 0 1.42464e-29 0 2.65441e-29 0
7.09813 6.04818e-12 6.00496e-12 4.32236e-14 0.00714655 1.18448e-05 0 0 0 0 4.5304e-42 0 3.26153e-39 0 2.73813e-37 0 7.33976e-36 0 9.73528e-35 0 8.37905e-34 0 5.03522e-33 0 2.44183e-32 0 9.63318e-32 0 3.23964e-31 0 9.66619e-31 0 2.64945e-30 0 6.54686e-30 0 1.54164e-29 0 3.30931e-29 0 6.82054e-29 0 1.35254e-28 0 2.52913e-28 0 4.57127e-28 0
7.46248 5.54807e-12 5.51269e-12 3.53786e-14 0.00637675 1.05694e-05 0 0 2.8026e-45 0 3.23048e-40 0 1.68677e-37 0 1.14064e-35 0 2.60403e-34 0 3.04438e-33 0 2.35886e-32 0 1.29868e-31 0 5.83068e-31 0 2.15115e-30 0 6.81839e-30 0 1.92868e-29 0 5.03248e-29 0 1.18981e-28 0 2.68699e-28 0 5.55679e-28 0 1.10553e-27 0 2.12024e-27 0 3.84533e-27 0 6.75225e-27 0
7.84553 5.09986e-12 5.0709e-12 2.89608e-14 0.00567874 9.34187e-06 0 0 2.69049e-43 0 1.84365e-38 0 7.09208e-36 0 3.90404e-34 0 7.65038e-33 0 7.93231e-32 0 5.56146e-31 0 2.8172e-30 0 1.17542e-29 0 4.06878e-29 0 1.21903e-28 0 3.27751e-28 0 8.16073e-28 0 1.85003e-27 0 4.01509e-27 0 8.01392e-27 0 1.54172e-26 0 2.86426e-26 0 5.04589e-26 0 8.62014e-26 0
8.24824 4.69681e-12 4.67311e-12 2.37063e-14 0.00504732 8.19911e-06 0 0 2.14231e-41 0 8.51246e-37 0 2.4487e-34 0 1.10837e-32 0 1.87831e-31 0 1.73737e-30 0 1.10761e-29 0 5.18337e-29 0 2.01696e-28 0 6.57112e-28 0 1.86604e-27 0 4.78058e-27 0 1.13847e-26 0 2.4798e-26 0 5.18208e-26 0 9.99999e-26 0 1.86331e-25 0 3.3586e-25 0 5.75542e-25 0 9.57852e-25 0
8.67162 4.33609e-12 4.31669e-12 1.94066e-14 0.00447559 7.20916e-06 1.68156e-44 0 1.35686e-39 0 3.21481e-35 0 7.01428e-33 0 2.63569e-31 0 3.89013e-30 0 3.2279e-29 0 1.8799e-28 0 8.15903e-28 0 2.97107e-27 0 9.13717e-27 0 2.46583e-26 0 6.03357e-26 0 1.37726e-25 0 2.88805e-25 0 5.82188e-25 0 1.08798e-24 0 1.96657e-24 0 3.44421e-24 0 5.74893e-24 0 9.33271e-24 0
9.11674 4.01204e-12 3.99615e-12 1.58873e-14 0.00395989 6.32492e-06 1.49939e-42 0 6.92115e-38 0 1.00279e-33 0 1.68208e-31 0 5.29499e-30 0 6.85263e-29 0 5.12797e-28 0 2.74031e-27 0 1.10708e-26 0 3.78485e-26 0 1.10186e-25 0 2.83287e-25 0 6.63536e-25 0 1.45481e-24 0 2.94234e-24 0 5.73174e-24 0 1.03893e-23 0 1.82441e-23 0 3.10899e-23 0 5.06121e-23 0 8.02418e-23 0
9.5847 3.72155e-12 3.70854e-12 1.30061e-14 0.00349481 5.52644e-06 1.05222e-40 0 2.87459e-36 0 2.60885e-32 0 3.40777e-30 0 9.0646e-29 0 1.03526e-27 0 7.02199e-27 0 3.45762e-26 0 1.30482e-25 0 4.20103e-25 0 1.16085e-24 0 2.85005e-24 0 6.40388e-24 0 1.35126e-23 0 2.64053e-23 0 4.97904e-23 0 8.76662e-23 0 1.49772e-22 0 2.48671e-22 0 3.953e-22 0 6.12776e-22 0
10.0767 3.46133e-12 3.45068e-12 1.06491e-14 0.00307659 4.78203e-06 5.92026e-39 0 9.82208e-35 0 5.71266e-31 0 5.88229e-29 0 1.33308e-27 0 1.35181e-26 0 8.3509e-26 0 3.80408e-25 0 1.34543e-24 0 4.09142e-24 0 1.07582e-23 0 2.52798e-23 0 5.46007e-23 0 1.11086e-22 0 2.10091e-22 0 3.84072e-22 0 6.57815e-22 0 1.09483e-21 0 1.77333e-21 0 2.7559e-21 0 4.1816e-21 0
