# 0.00044668 1 164 : grain size, compostion index, size index
# Heating and cooling timescale: 1.04916e-05 6.90177e+17
# Ratio of heating to cooling to determine stochastic cutoff: 100
# Equilibrium emission is recorded even for those grains in the stochastic regime.
# Emission spectrum was computed for: 
# Type: IRSF
# Scales: 0.25 0.5 1 1.5 2 2.5 3 3.5 4 4.5 5 5.5 6 6.5 7 7.5 8 8.5 9 9.5 10
# StochasticallyHeated: 0 0 0 0 0 0 0 0 0 0 0 0 0 0 0 0 0 0 0 0 0
# Temperature: -1
# Wavelength  CExt  CAbs  CSca  Albedo G EqEm1 StEm1 EqEm2 StEm2 EqEm3 StEm3 EqEm4 StEm4 EqEm5 StEm5 EqEm6 StEm6 EqEm7 StEm7 EqEm8 StEm8 EqEm9 StEm9 EqEm10 StEm10 EqEm11 StEm11 EqEm12 StEm12 EqEm13 StEm13 EqEm14 StEm14 EqEm15 StEm15 EqEm16 StEm16 EqEm17 StEm17 EqEm18 StEm18 EqEm19 StEm19 EqEm20 StEm20 EqEm21 StEm21
0.05 3.20341e-07 1.42552e-07 1.77788e-07 0.554997 0.214582 0 0 0 0 0 0 0 0 0 0 0 0 0 0 0 0 0 0 0 0 0 0 0 0 0 0 0 0 0 0 0 0 0 0 0 0 0 0 0 0 0 0
0.0525665 3.54071e-07 1.57563e-07 1.96508e-07 0.554997 0.237176 0 0 0 0 0 0 0 0 0 0 0 0 0 0 0 0 0 0 0 0 0 0 0 0 0 0 0 0 0 0 0 0 0 0 0 0 0 0 0 0 0 0
0.0552647 3.91353e-07 1.74153e-07 2.172e-07 0.554997 0.26215 0 0 0 0 0 0 0 0 0 0 0 0 0 0 0 0 0 0 0 0 0 0 0 0 0 0 0 0 0 0 0 0 0 0 0 0 0 0 0 0 0 0
0.0581015 4.3256e-07 1.92491e-07 2.4007e-07 0.554997 0.289753 0 0 0 0 0 0 0 0 0 0 0 0 0 0 0 0 0 0 0 0 0 0 0 0 0 0 0 0 0 0 0 0 0 0 0 0 0 0 0 0 0 0
0.0610839 4.78107e-07 2.12759e-07 2.65348e-07 0.554997 0.320262 0 0 0 0 0 0 0 0 0 0 0 0 0 0 0 0 0 0 0 0 0 0 0 0 0 0 0 0 0 0 0 0 0 0 0 0 0 0 0 0 0 0
0.0642193 5.28449e-07 2.35161e-07 2.93288e-07 0.554997 0.353984 0 0 0 0 0 0 0 0 0 0 0 0 0 0 0 0 0 0 0 0 0 0 0 0 0 0 0 0 0 0 0 0 0 0 0 0 0 0 0 0 0 0
0.0675157 5.84092e-07 2.59923e-07 3.2417e-07 0.554997 0.391257 0 0 0 0 0 0 0 0 0 0 0 0 0 0 0 0 0 0 0 0 0 0 0 0 0 0 0 0 0 0 0 0 0 0 0 0 0 0 0 0 0 0
0.0709813 6.45594e-07 2.87291e-07 3.58303e-07 0.554997 0.432455 0 0 0 0 0 0 0 0 0 0 0 0 0 0 0 0 0 0 0 0 0 0 0 0 0 0 0 0 0 0 0 0 0 0 0 0 0 0 0 0 0 0
0.0746248 7.13572e-07 3.17542e-07 3.96031e-07 0.554997 0.47799 0 0 0 0 0 0 0 0 0 0 0 0 0 0 0 0 0 0 0 0 0 0 0 0 0 0 0 0 0 0 0 0 0 0 0 0 0 0 0 0 0 0
0.0784553 7.88708e-07 3.50977e-07 4.37731e-07 0.554997 0.52832 0 0 0 0 0 0 0 0 0 0 0 0 0 0 0 0 0 0 0 0 0 0 0 0 0 0 0 0 0 0 0 0 0 0 0 0 0 0 0 0 0 0
0.0824824 8.71755e-07 3.87934e-07 4.83821e-07 0.554997 0.583949 0 0 0 0 0 0 0 0 0 0 0 0 0 0 0 0 0 0 0 0 0 0 0 0 0 0 0 0 0 0 0 0 0 0 0 0 0 0 0 0 0 0
0.0867162 9.63547e-07 4.28781e-07 5.34766e-07 0.554997 0.645437 0 0 0 0 0 0 0 0 0 0 0 0 0 0 0 0 0 0 0 0 0 0 0 0 0 0 0 0 0 0 0 0 0 0 0 0 0 0 0 0 0 0
0.0911674 1.065e-06 4.7393e-07 5.91074e-07 0.554997 0.713398 0 0 0 0 0 0 0 0 0 0 0 0 0 0 0 0 0 0 0 0 0 0 0 0 0 0 0 0 0 0 0 0 0 0 0 0 0 0 0 0 0 0
0.095847 1.17714e-06 5.23832e-07 6.53311e-07 0.554997 0.788516 0 0 0 0 0 0 0 0 0 0 0 0 0 0 0 0 0 0 0 0 0 0 0 0 0 0 0 0 0 0 0 0 0 0 0 0 0 0 0 0 0 0
0.100767 1.28146e-06 5.70337e-07 7.11122e-07 0.554932 0.858367 0 0 0 0 0 0 0 0 0 0 0 0 0 0 0 0 0 0 0 0 0 0 0 0 0 0 0 0 0 0 0 0 0 0 0 0 0 0 0 0 0 0
0.105939 1.28216e-06 5.71243e-07 7.10919e-07 0.554469 0.862224 0 0 0 0 0 0 0 0 0 0 0 0 0 0 0 0 0 0 0 0 0 0 0 0 0 0 0 0 0 0 0 0 0 0 0 0 0 0 0 0 0 0
0.111377 1.28287e-06 5.72477e-07 7.10391e-07 0.553752 0.867173 0 0 0 0 0 0 0 0 0 0 0 0 0 0 0 0 0 0 0 0 0 0 0 0 0 0 0 0 0 0 0 0 0 0 0 0 0 0 0 0 0 0
0.117094 1.28358e-06 5.73605e-07 7.09974e-07 0.553121 0.870322 0 0 0 0 0 0 0 0 0 0 0 0 0 0 0 0 0 0 0 0 0 0 0 0 0 0 0 0 0 0 0 0 0 0 0 0 0 0 0 0 0 0
0.123105 1.28429e-06 5.75408e-07 7.08885e-07 0.551965 0.872287 0 0 0 0 0 0 0 0 0 0 0 0 0 0 0 0 0 0 0 0 0 0 0 0 0 0 0 0 0 0 0 0 0 0 0 0 0 0 0 0 0 0
0.129424 1.28497e-06 5.77544e-07 7.0743e-07 0.55054 0.873226 0 0 0 0 0 0 0 0 0 0 0 0 0 0 0 0 0 0 0 0 0 0 0 0 0 0 0 0 0 0 0 0 0 0 0 0 0 0 0 0 0 0
0.136067 1.2857e-06 5.78812e-07 7.06892e-07 0.549809 0.872958 0 0 0 0 0 0 0 0 0 0 0 0 0 0 0 0 0 0 0 0 0 0 0 0 0 0 0 0 0 0 0 0 0 0 0 0 0 0 0 0 0 0
0.143051 1.28645e-06 5.81289e-07 7.05162e-07 0.548145 0.87068 0 0 0 0 0 0 0 0 0 0 0 0 0 0 0 0 0 0 0 0 0 0 0 0 0 0 0 0 0 0 0 0 0 0 0 0 0 0 0 0 0 0
0.150394 1.28727e-06 5.85454e-07 7.01813e-07 0.545196 0.871858 0 0 0 0 0 0 0 0 0 0 0 0 0 0 0 0 0 0 0 0 0 0 0 0 0 0 0 0 0 0 0 0 0 0 0 0 0 0 0 0 0 0
0.158114 1.2882e-06 5.90897e-07 6.97304e-07 0.5413 0.878153 0 0 0 0 0 0 0 0 0 0 0 0 0 0 0 0 0 0 0 0 0 0 0 0 0 0 0 0 0 0 0 0 0 0 0 0 0 0 0 0 0 0
0.16623 1.28929e-06 5.96537e-07 6.92754e-07 0.537314 0.885875 0 0 0 0 0 0 0 0 0 0 0 0 0 0 0 0 0 0 0 0 0 0 0 0 0 0 0 0 0 0 0 0 0 0 0 0 0 0 0 0 0 0
0.174762 1.29042e-06 6.0158e-07 6.88843e-07 0.533812 0.892883 0 0 0 0 0 0 0 0 0 0 0 0 0 0 0 0 0 0 0 0 0 0 0 0 0 0 0 0 0 0 0 0 0 0 0 0 0 0 0 0 0 0
0.183733 1.29157e-06 6.02701e-07 6.88874e-07 0.53336 0.899141 0 0 0 0 0 0 0 0 0 0 0 0 0 0 0 0 0 0 0 0 0 0 0 0 0 0 0 0 0 0 0 0 0 0 0 0 0 0 0 0 0 0
0.193164 1.29501e-06 5.86611e-07 7.08397e-07 0.547021 0.904445 0 0 0 0 0 0 0 0 0 0 0 0 0 0 0 0 0 0 0 0 0 0 0 0 0 0 0 0 0 0 0 0 0 0 0 0 0 0 0 0 0 0
0.203079 1.29563e-06 5.88618e-07 7.0701e-07 0.545689 0.908947 0 0 0 0 0 0 0 0 0 0 0 0 0 0 0 0 0 0 0 0 0 0 0 0 0 0 0 0 0 0 0 0 0 0 0 0 0 0 0 0 0 0
0.213503 1.29501e-06 5.96559e-07 6.98448e-07 0.539339 0.912897 0 0 0 0 0 0 0 0 0 0 0 0 0 0 0 0 0 0 0 0 0 0 0 0 0 0 0 0 0 0 0 0 0 0 0 0 0 0 0 0 0 0
0.224463 1.29455e-06 6.02325e-07 6.9223e-07 0.534725 0.916157 0 0 0 0 0 0 0 0 0 0 0 0 0 0 0 0 0 0 0 0 0 0 0 0 0 0 0 0 0 0 0 0 0 0 0 0 0 0 0 0 0 0
0.235984 1.29429e-06 6.08035e-07 6.86252e-07 0.530216 0.918684 0 0 0 0 0 0 0 0 0 0 0 0 0 0 0 0 0 0 0 0 0 0 0 0 0 0 0 0 0 0 0 0 0 0 0 0 0 0 0 0 0 0
0.248097 1.29433e-06 6.12883e-07 6.81448e-07 0.526486 0.920568 0 0 0 0 0 0 0 0 0 0 0 0 0 0 0 0 0 0 0 0 0 0 0 0 0 0 0 0 0 0 0 0 0 0 0 0 0 0 0 0 0 0
0.260832 1.29475e-06 6.16758e-07 6.77994e-07 0.523648 0.922058 0 0 0 0 0 0 0 0 0 0 0 0 0 0 0 0 0 0 0 0 0 0 0 0 0 0 0 0 0 0 0 0 0 0 0 0 0 0 0 0 0 0
0.274221 1.29547e-06 6.19795e-07 6.75676e-07 0.521568 0.923298 0 0 0 0 0 0 0 0 0 0 0 0 0 0 0 0 0 0 0 0 0 0 0 0 0 0 0 0 0 0 0 0 0 0 0 0 0 0 0 0 0 0
0.288297 1.29643e-06 6.22161e-07 6.74268e-07 0.520096 0.924304 0 0 0 0 0 0 0 0 0 0 0 0 0 0 0 0 0 0 0 0 0 0 0 0 0 0 0 0 0 0 0 0 0 0 0 0 0 0 0 0 0 0
0.303095 1.29755e-06 6.24078e-07 6.73472e-07 0.519034 0.925135 0 0 0 0 0 0 0 0 0 0 0 0 0 0 0 0 0 0 0 0 0 0 0 0 0 0 0 0 0 0 0 0 0 0 0 0 0 0 0 0 0 0
0.318653 1.29881e-06 6.25646e-07 6.73168e-07 0.518294 0.925832 0 0 0 0 0 0 0 0 0 0 0 0 0 0 0 0 0 0 0 0 0 0 0 0 0 0 0 0 0 0 0 0 0 0 0 0 0 0 0 0 0 0
0.335009 1.30022e-06 6.26996e-07 6.73228e-07 0.517778 0.926395 0 0 0 0 0 0 0 0 0 0 0 0 0 0 0 0 0 0 0 0 0 0 0 0 0 0 0 0 0 0 0 0 0 0 0 0 0 0 0 0 0 0
0.352205 1.30175e-06 6.28231e-07 6.73523e-07 0.517396 0.92686 0 0 0 0 0 0 0 0 0 0 0 0 0 0 0 0 0 0 0 0 0 0 0 0 0 0 0 0 0 0 0 0 0 0 0 0 0 0 0 0 0 0
0.370284 1.30337e-06 6.29336e-07 6.74037e-07 0.517148 0.927249 0 0 0 0 0 0 0 0 0 0 0 0 0 0 0 0 0 0 0 0 0 0 0 0 0 0 0 0 0 0 0 0 0 0 0 0 0 0 0 0 0 0
0.389291 1.3051e-06 6.30417e-07 6.74683e-07 0.516959 0.927543 0 0 0 0 0 0 0 0 0 0 0 0 0 0 0 0 0 0 0 0 0 0 0 0 0 0 0 0 0 0 0 0 0 0 0 0 0 0 0 0 0 0
0.409273 1.3069e-06 6.31454e-07 6.75451e-07 0.516832 0.927742 0 0 0 0 0 0 0 0 0 0 0 0 0 0 0 0 0 0 0 0 0 0 0 0 0 0 0 0 0 0 0 0 0 0 0 0 0 0 0 0 0 0
0.430281 1.3088e-06 6.32489e-07 6.76312e-07 0.516742 0.927829 0 0 0 0 0 0 0 0 0 0 0 0 0 0 0 0 0 0 0 0 0 0 0 0 0 0 0 0 0 0 0 0 0 0 0 0 0 0 0 0 0 0
0.452368 1.31082e-06 6.33552e-07 6.77268e-07 0.516675 0.927842 0 0 0 0 0 0 0 0 0 0 0 0 0 0 0 0 0 0 0 0 0 0 0 0 0 0 0 0 0 0 0 0 0 0 0 0 0 0 0 0 0 0
0.475588 1.31292e-06 6.34621e-07 6.78304e-07 0.516636 0.92792 0 0 0 0 0 0 0 0 0 0 0 0 0 0 0 0 0 0 0 0 0 0 0 0 0 0 0 0 0 0 0 0 0 0 0 0 0 0 0 0 0 0
0.5 1.31514e-06 6.35727e-07 6.79413e-07 0.516609 0.927705 0 0 0 0 0 0 0 0 0 0 0 0 0 0 0 0 0 0 0 0 0 0 0 0 0 0 0 0 0 0 0 0 0 0 0 0 0 0 0 0 0 0
0.525665 1.31744e-06 6.36845e-07 6.80593e-07 0.516603 0.927517 0 0 0 0 0 0 0 0 0 0 0 0 0 0 0 0 0 0 0 0 0 0 0 0 0 0 0 0 0 0 0 0 0 0 0 0 0 0 0 0 0 0
0.552648 1.31986e-06 6.38e-07 6.81861e-07 0.516616 0.927461 0 0 0 0 0 0 0 0 0 0 0 0 0 0 0 0 0 0 0 0 0 0 0 0 0 0 0 0 0 0 0 0 0 0 0 0 0 0 0 0 0 0
0.581015 1.32242e-06 6.39234e-07 6.83188e-07 0.516619 0.926691 0 0 0 0 0 0 0 0 0 0 0 0 0 0 0 0 0 0 0 0 0 0 0 0 0 0 0 0 0 0 0 0 0 0 0 0 0 0 0 0 0 0
0.610839 1.3251e-06 6.40513e-07 6.84591e-07 0.516632 0.926769 0 0 0 0 0 0 0 0 0 0 0 0 0 0 0 0 0 0 0 0 0 0 0 0 0 0 0 0 0 0 0 0 0 0 0 0 0 0 0 0 0 0
0.642193 1.32791e-06 6.41823e-07 6.86086e-07 0.516666 0.925434 0 0 0 0 0 0 0 0 0 0 0 0 0 0 0 0 0 0 0 0 0 0 0 0 0 0 0 0 0 0 0 0 0 0 0 0 0 0 0 0 0 0
0.675157 1.33086e-06 6.4321e-07 6.87652e-07 0.516696 0.925643 0 0 0 0 0 0 0 0 0 0 0 0 0 0 0 0 0 0 0 0 0 0 0 0 0 0 0 0 0 0 0 0 0 0 0 0 0 0 0 0 0 0
0.709813 1.33398e-06 6.44697e-07 6.89286e-07 0.516713 0.924009 0 0 0 0 0 0 0 0 0 0 0 0 0 0 0 0 0 0 0 0 0 0 0 0 0 0 0 0 0 0 0 0 0 0 0 0 0 0 0 0 0 0
0.746248 1.33726e-06 6.46255e-07 6.9101e-07 0.516734 0.923573 0 0 0 0 0 0 0 0 0 0 0 0 0 0 0 0 0 0 0 0 0 0 0 0 0 0 0 0 0 0 0 0 0 0 0 0 0 0 0 0 0 0
0.784553 1.34072e-06 6.47907e-07 6.9281e-07 0.516746 0.922603 0 0 0 0 0 0 0 0 0 0 0 0 0 0 0 0 0 0 0 0 0 0 0 0 0 0 0 0 0 0 0 0 0 0 0 0 0 0 0 0 0 0
0.824824 1.34433e-06 6.49643e-07 6.94688e-07 0.516754 0.920254 0 0 0 0 0 0 0 0 0 0 0 0 0 0 0 0 0 0 0 0 0 0 0 0 0 0 0 0 0 0 0 0 0 0 0 0 0 0 0 0 0 0
0.867162 1.34816e-06 6.51461e-07 6.96695e-07 0.516776 0.920668 0 0 0 0 0 0 0 0 0 0 0 0 0 0 0 0 0 0 0 0 0 0 0 0 0 0 0 0 0 0 0 0 0 0 0 0 0 0 0 0 0 0
0.911674 1.35217e-06 6.53433e-07 6.98735e-07 0.516752 0.918025 0 0 0 0 0 0 0 0 0 0 0 0 0 0 0 0 0 0 0 0 0 0 0 0 0 0 0 0 0 0 0 0 0 0 0 0 0 0 0 0 0 0
0.95847 1.35643e-06 6.5556e-07 7.00867e-07 0.516701 0.914947 0 0 0 0 0 0 0 0 0 0 0 0 0 0 0 0 0 0 0 0 0 0 0 0 0 0 0 0 0 0 0 0 0 0 0 0 0 0 0 0 0 0
1.00767 1.36092e-06 6.57877e-07 7.0304e-07 0.516593 0.914928 0 0 0 0 0 0 0 0 0 0 0 0 0 0 0 0 0 0 0 0 0 0 0 0 0 0 0 0 0 0 0 0 0 0 0 0 0 0 0 0 0 0
1.05939 1.36649e-06 6.61702e-07 7.04786e-07 0.515764 0.912772 0 0 0 0 0 0 0 0 0 0 0 0 0 0 0 0 0 0 0 0 0 0 0 0 0 0 0 0 0 0 0 0 0 0 0 0 0 0 0 0 0 0
1.11377 1.37256e-06 6.65819e-07 7.06737e-07 0.514906 0.908209 0 0 0 0 0 0 0 0 0 0 0 0 0 0 0 0 0 0 0 0 0 0 0 0 0 0 0 0 0 0 0 0 0 0 0 0 0 0 0 0 0 0
1.17094 1.37905e-06 6.7016e-07 7.0889e-07 0.514042 0.906714 0 0 0 0 0 0 0 0 0 0 0 0 0 0 0 0 0 0 0 0 0 0 0 0 0 0 0 0 0 0 0 0 0 0 0 0 0 0 0 0 0 0
1.23105 1.38599e-06 6.74688e-07 7.11307e-07 0.513211 0.906376 0 0 0 0 0 0 0 0 0 0 0 0 0 0 0 0 0 0 0 0 0 0 0 0 0 0 0 0 0 0 0 0 0 0 0 0 0 0 0 0 0 0
1.29424 1.39324e-06 6.79177e-07 7.14064e-07 0.51252 0.902506 0 0 0 0 0 0 0 0 0 0 0 0 0 0 0 0 0 0 0 0 0 0 0 0 0 0 0 0 0 0 0 0 0 0 0 0 0 0 0 0 0 0
1.36067 1.40067e-06 6.83485e-07 7.1719e-07 0.512032 0.8952 0 0 0 0 0 0 0 0 0 0 0 0 0 0 0 0 0 0 0 0 0 0 0 0 0 0 0 0 0 0 0 0 0 0 0 0 0 0 0 0 0 0
1.43051 1.40859e-06 6.88148e-07 7.20442e-07 0.511464 0.890606 0 0 0 0 0 0 0 0 0 0 0 0 0 0 0 0 0 0 0 0 0 0 0 0 0 0 0 0 0 0 0 0 0 0 0 0 0 0 0 0 0 0
1.50394 1.41679e-06 6.9276e-07 7.24032e-07 0.511037 0.89123 0 0 0 0 0 0 0 0 0 0 0 0 0 0 0 0 0 0 0 0 0 0 0 0 0 0 0 0 0 0 0 0 0 0 0 0 0 0 0 0 0 0
1.58114 1.42548e-06 6.97539e-07 7.27939e-07 0.510663 0.891541 0 0 0 0 0 0 0 0 0 0 0 0 0 0 0 0 0 0 0 0 0 0 0 0 0 0 0 0 0 0 0 0 0 0 0 0 0 0 0 0 0 0
1.6623 1.43463e-06 7.02528e-07 7.321e-07 0.510307 0.888252 0 0 0 0 0 0 0 0 0 0 0 0 0 0 0 0 0 0 0 0 0 0 0 0 0 0 0 0 0 0 0 0 0 0 0 0 0 0 0 0 0 0
1.74763 1.44487e-06 7.07796e-07 7.37078e-07 0.510133 0.879525 0 0 0 0 0 0 0 0 0 0 0 0 0 0 0 0 0 0 0 0 0 0 0 0 0 0 0 0 0 0 0 0 0 0 0 0 0 0 0 0 0 0
1.83733 1.45847e-06 7.13433e-07 7.45039e-07 0.510835 0.869651 0 0 0 0 0 0 0 0 0 0 0 0 0 0 0 0 0 0 0 0 0 0 0 0 0 0 0 0 0 0 0 0 0 0 0 0 0 0 0 0 0 0
1.93164 1.47931e-06 7.19983e-07 7.5933e-07 0.513299 0.864799 0 0 0 0 0 0 0 0 0 0 0 0 0 0 0 0 0 0 0 0 0 0 0 0 0 0 0 0 0 0 0 0 0 0 0 0 0 0 0 0 0 0
2.03079 1.49964e-06 7.26851e-07 7.7279e-07 0.515317 0.864964 0 0 0 0 0 0 0 0 0 0 0 0 0 0 0 0 0 0 0 0 0 0 0 0 0 0 0 0 0 0 0 0 0 0 0 0 0 0 0 0 0 0
2.13503 1.51163e-06 7.34425e-07 7.77202e-07 0.514149 0.865531 0 0 0 0 0 0 0 0 0 0 0 0 0 0 0 0 0 0 0 0 0 0 0 0 0 0 0 0 0 0 0 0 0 0 0 0 0 0 0 0 0 0
2.24463 1.51474e-06 7.42129e-07 7.72615e-07 0.510063 0.859058 0 0 0 0 0 0 0 0 0 0 0 0 0 0 0 0 0 0 0 0 0 0 0 0 0 0 0 0 0 0 0 0 0 0 0 0 0 0 0 0 0 0
2.35984 1.5133e-06 7.50148e-07 7.6315e-07 0.504296 0.84603 0 0 0 0 0 0 0 0 0 0 0 0 0 0 0 0 0 0 0 0 0 0 0 0 0 0 0 0 0 0 0 0 0 0 0 0 0 0 0 0 0 0
2.48097 1.51262e-06 7.58114e-07 7.54507e-07 0.498808 0.832504 0 0 0 0 0 0 0 0 0 0 0 0 0 0 0 0 0 0 0 0 0 0 0 0 0 0 0 0 0 0 0 0 0 0 0 0 0 0 0 0 0 0
2.60832 1.51616e-06 7.66489e-07 7.49671e-07 0.494454 0.817317 0 0 0 0 0 0 0 0 0 0 0 0 0 0 0 0 0 0 0 0 0 0 0 0 0 0 0 0 0 0 0 0 0 0 0 0 0 0 0 0 0 0
2.74221 1.52392e-06 7.74555e-07 7.49362e-07 0.491734 0.818682 0 0 0 0 0 0 0 0 0 0 0 0 0 0 0 0 0 0 0 0 0 0 0 0 0 0 0 0 0 0 0 0 0 0 0 0 0 0 0 0 0 0
2.88297 1.53416e-06 7.82761e-07 7.51399e-07 0.489779 0.826177 0 0 0 0 0 0 0 0 0 0 0 0 0 0 0 0 0 0 0 0 0 0 0 0 0 0 0 0 0 0 0 0 0 0 0 0 0 0 0 0 0 0
3.03095 1.54491e-06 7.90832e-07 7.54073e-07 0.488103 0.842874 0 0 0 0 0 0 0 0 0 0 0 0 0 0 0 0 0 0 0 0 0 0 0 0 0 0 0 0 0 0 0 0 0 0 0 0 0 0 0 0 0 0
3.18653 1.5544e-06 7.98321e-07 7.56083e-07 0.486413 0.849019 0 0 0 0 0 0 0 0 0 0 0 0 0 0 0 0 0 0 0 0 0 0 0 0 0 0 0 0 0 0 0 0 0 0 0 0 0 0 0 0 0 0
3.35009 1.56218e-06 8.06404e-07 7.5578e-07 0.483797 0.86037 0 0 0 0 0 0 0 0 0 0 0 0 0 0 0 0 0 0 0 0 0 0 0 0 0 0 0 0 0 0 0 0 0 0 0 0 0 0 0 0 0 0
3.52205 1.57084e-06 8.13107e-07 7.57734e-07 0.482375 0.840459 0 0 0 0 0 0 0 0 0 0 0 0 0 0 0 0 0 0 0 0 0 0 0 0 0 0 0 0 0 0 0 0 0 0 0 0 0 0 0 0 0 0
3.70284 1.57951e-06 8.19618e-07 7.5989e-07 0.481093 0.832534 0 0 0 0 0 0 0 0 0 0 0 0 0 0 0 0 0 0 0 0 0 0 0 0 0 0 0 0 0 0 0 0 0 0 0 0 0 0 0 0 0 0
3.89291 1.58651e-06 8.26606e-07 7.599e-07 0.478977 0.782719 0 0 0 0 0 0 0 0 0 0 0 0 0 0 0 0 0 0 0 0 0 0 0 0 0 0 0 0 0 0 0 0 0 0 0 0 0 0 0 0 0 0
4.09273 1.59602e-06 8.3306e-07 7.62959e-07 0.478039 0.739083 0 0 0 0 0 0 0 0 0 0 0 0 0 0 0 0 0 0 0 0 0 0 0 0 0 0 0 0 0 0 0 0 0 0 0 0 0 0 0 0 0 0
4.30281 1.60857e-06 8.39397e-07 7.6917e-07 0.478171 0.681891 0 0 0 0 0 0 0 0 0 0 0 0 0 0 0 0 0 0 0 0 0 0 0 0 0 0 0 0 0 0 0 0 0 0 0 0 0 0 0 0 0 0
4.52368 1.62482e-06 8.44752e-07 7.80068e-07 0.480095 0.617103 0 0 0 0 0 0 0 0 0 0 0 0 0 0 0 0 0 0 0 0 0 0 0 0 0 0 0 0 0 0 0 0 0 0 0 0 0 0 0 0 0 0
4.75588 1.64661e-06 8.51639e-07 7.9497e-07 0.482792 0.625961 0 0 0 0 0 0 0 0 0 0 0 0 0 0 0 0 0 0 0 0 0 0 0 0 0 0 0 0 0 0 0 0 0 0 0 0 0 0 0 0 0 0
5 1.66854e-06 8.56783e-07 8.1176e-07 0.486508 0.620273 0 0 0 0 0 0 0 0 0 0 0 0 0 0 0 0 0 0 0 0 0 0 0 0 0 0 0 0 0 0 0 0 0 0 0 0 0 0 0 0 0 0
5.25665 1.69333e-06 8.61499e-07 8.31836e-07 0.491241 0.665502 0 0 0 0 0 0 0 0 0 0 0 0 0 0 0 0 0 0 0 0 0 0 0 0 0 0 0 0 0 0 0 0 0 0 0 0 0 0 0 0 0 0
5.52648 1.7189e-06 8.67276e-07 8.51629e-07 0.495449 0.709641 0 0 0 0 0 0 0 0 0 0 0 0 0 0 0 0 0 0 0 0 0 0 0 0 0 0 0 0 0 0 0 0 0 0 0 0 0 0 0 0 0 0
5.81015 1.74135e-06 8.71746e-07 8.69607e-07 0.499386 0.74201 0 0 0 0 0 0 0 0 0 0 0 0 0 0 0 0 0 0 0 0 0 0 0 0 0 0 0 0 0 0 0 0 0 0 0 0 0 0 0 0 0 0
6.10839 1.76211e-06 8.75375e-07 8.86736e-07 0.503224 0.775864 0 0 0 0 0 0 0 0 0 0 0 0 0 0 0 0 0 0 0 0 0 0 0 0 0 0 0 0 0 0 0 0 0 0 0 0 0 0 0 0 0 0
6.42193 1.78036e-06 8.78932e-07 9.01426e-07 0.506317 0.798183 0 0 0 0 0 0 0 0 0 0 0 0 0 0 0 0 0 0 0 0 0 0 0 0 0 0 0 0 0 0 0 0 0 0 0 0 0 0 0 0 0 0
6.75157 1.79059e-06 8.81178e-07 9.0941e-07 0.507883 0.815742 0 0 0 0 0 0 0 0 0 0 0 0 0 0 0 0 0 0 0 0 0 0 0 0 0 0 0 0 0 0 0 0 0 0 0 0 0 0 0 0 0 0
7.09813 1.79481e-06 8.81938e-07 9.12872e-07 0.508618 0.831057 0 0 0 0 0 0 0 0 0 0 0 0 0 0 0 0 0 0 0 0 0 0 0 0 0 0 0 0 0 0 0 0 0 0 0 0 0 0 0 0 0 0
7.46248 1.78356e-06 8.7897e-07 9.04588e-07 0.507182 0.845488 0 0 0 0 0 0 0 0 0 0 0 0 0 0 0 0 0 0 0 0 0 0 0 0 0 0 0 0 0 0 0 0 0 0 0 0 0 0 0 0 0 0
7.84553 1.74168e-06 8.69484e-07 8.72199e-07 0.50078 0.857382 0 0 0 0 0 0 0 0 0 0 0 0 0 0 0 0 0 0 0 0 0 0 0 0 0 0 0 0 0 0 0 0 0 0 0 0 0 0 0 0 0 0
8.24824 1.60593e-06 8.58252e-07 7.47682e-07 0.465575 0.842648 0 0 0 0 0 0 0 0 0 0 0 0 0 0 0 0 0 0 0 0 0 0 0 0 0 0 0 0 0 0 0 0 0 0 0 0 1.4013e-45 0 4.2039e-45 0 1.26117e-44 0
8.67162 1.5025e-06 8.62602e-07 6.39893e-07 0.425887 0.815067 0 0 0 0 0 0 0 0 0 0 0 0 0 0 0 0 0 0 0 0 0 0 0 0 0 0 1.4013e-45 0 4.2039e-45 0 1.4013e-44 0 4.48416e-44 0 1.31722e-43 0 3.54529e-43 0 8.99634e-43 0 2.20564e-42 0
9.11674 1.49342e-06 8.83318e-07 6.10098e-07 0.408525 0.776481 0 0 0 0 0 0 0 0 0 0 0 0 0 0 0 0 0 0 0 0 1.4013e-45 0 9.80909e-45 0 5.1848e-44 0 2.10195e-43 0 7.67912e-43 0 2.50692e-42 0 7.66931e-42 0 2.12044e-41 0 5.43017e-41 0 1.31714e-40 0 3.08933e-40 0
9.5847 1.60525e-06 9.17235e-07 6.88014e-07 0.428603 0.745741 0 0 0 0 0 0 0 0 0 0 0 0 0 0 0 0 7.00649e-45 0 5.74532e-44 0 3.71344e-43 0 1.91558e-42 0 8.64601e-42 0 3.31575e-41 0 1.136e-40 0 3.50106e-40 0 1.01387e-39 0 2.66753e-39 0 6.52489e-39 0 1.51565e-38 0 3.41001e-38 0
10.0767 1.70443e-06 9.43119e-07 7.61312e-07 0.446666 0.726873 0 0 0 0 0 0 0 0 0 0 0 0 7.00649e-45 0 1.20512e-43 0 1.24716e-42 0 9.41953e-42 0 5.58726e-41 0 2.65582e-40 0 1.11364e-39 0 3.99946e-39 0 1.29031e-38 0 3.76399e-38 0 1.03488e-37 0 2.59717e-37 0 6.08132e-37 0 1.35567e-36 0 2.93168e-36 0
10.5939 1.76027e-06 9.60271e-07 7.99997e-07 0.454475 0.705889 0 0 0 0 0 0 0 0 1.4013e-45 0 5.1848e-44 0 1.32283e-42 0 1.87298e-41 0 1.72873e-40 0 1.18357e-39 0 6.43559e-39 0 2.83486e-38 0 1.10837e-37 0 3.73962e-37 0 1.13942e-36 0 3.15456e-36 0 8.25529e-36 0 1.98077e-35 0 4.4493e-35 0 9.53778e-35 0 1.98635e-34 0
11.1377 1.8006e-06 9.73783e-07 8.26813e-07 0.459188 0.691113 0 0 0 0 0 0 1.4013e-45 0 1.70958e-43 0 8.29709e-42 0 1.80206e-40 0 2.24083e-39 0 1.85558e-38 0 1.15653e-37 0 5.78955e-37 0 2.37219e-36 0 8.67737e-36 0 2.75897e-35 0 7.96122e-35 0 2.0972e-34 0 5.23644e-34 0 1.20387e-33 0 2.59943e-33 0 5.36866e-33 0 1.07875e-32 0
11.7094 1.84035e-06 9.88717e-07 8.51631e-07 0.462755 0.676589 0 0 0 0 0 0 1.69557e-43 0 2.54798e-41 0 1.02227e-39 0 1.91061e-38 0 2.10072e-37 0 1.56896e-36 0 8.94314e-36 0 4.13835e-35 0 1.5828e-34 0 5.43459e-34 0 1.63305e-33 0 4.47467e-33 0 1.1243e-32 0 2.68458e-32 0 5.92609e-32 0 1.23238e-31 0 2.4567e-31 0 4.77101e-31 0
12.3105 1.89051e-06 1.00393e-06 8.86577e-07 0.468962 0.665223 0 0 0 0 1.96182e-44 0 2.50258e-41 0 2.93853e-39 0 9.84478e-38 0 1.59487e-36 0 1.55987e-35 0 1.05608e-34 0 5.52929e-34 0 2.37423e-33 0 8.50505e-33 0 2.74954e-32 0 7.83e-32 0 2.04245e-31 0 4.90612e-31 0 1.12273e-30 0 2.38439e-30 0 4.78441e-30 0 9.22166e-30 0 1.73377e-29 0
12.9424 1.89775e-06 1.00899e-06 8.88759e-07 0.468323 0.659871 0 0 0 0 3.16693e-42 0 2.82653e-39 0 2.62994e-37 0 7.4227e-36 0 1.04961e-34 0 9.18409e-34 0 5.6636e-33 0 2.73503e-32 0 1.09374e-31 0 3.68141e-31 0 1.12387e-30 0 3.04108e-30 0 7.56986e-30 0 1.74218e-29 0 3.82893e-29 0 7.83805e-29 0 1.52017e-28 0 2.83765e-28 0 5.17316e-28 0
13.6067 1.86607e-06 1.00727e-06 8.58796e-07 0.460218 0.660843 0 0 1.4013e-45 0 3.88284e-40 0 2.48754e-37 0 1.855e-35 0 4.44769e-34 0 5.52626e-33 0 4.34956e-32 0 2.4543e-31 0 1.09751e-30 0 4.10178e-30 0 1.30118e-29 0 3.76161e-29 0 9.69567e-29 0 2.30834e-28 0 5.10071e-28 0 1.07874e-27 0 2.13235e-27 0 4.00402e-27 0 7.24984e-27 0 1.28349e-26 0
14.3051 1.80407e-06 9.97274e-07 8.06795e-07 0.447209 0.653459 0 0 3.3491e-43 0 3.68827e-38 0 1.72351e-35 0 1.04126e-33 0 2.13789e-32 0 2.34884e-31 0 1.67155e-30 0 8.66788e-30 0 3.60275e-29 0 1.26254e-28 0 3.78554e-28 0 1.0391e-27 0 2.55731e-27 0 5.83596e-27 0 1.2406e-26 0 2.52951e-26 0 4.83647e-26 0 8.80656e-26 0 1.549e-25 0 2.66687e-25 0
15.0394 1.72248e-06 9.87434e-07 7.35046e-07 0.426737 0.633938 0 0 4.43707e-41 0 2.76978e-36 0 9.58727e-34 0 4.7411e-32 0 8.39896e-31 0 8.2087e-30 0 5.308e-29 0 2.53995e-28 0 9.84774e-28 0 3.24606e-27 0 9.22481e-27 0 2.41032e-26 0 5.67683e-26 0 1.24434e-25 0 2.54958e-25 0 5.02073e-25 0 9.30069e-25 0 1.6447e-24 0 2.8142e-24 0 4.71832e-24 0
15.8114 1.66753e-06 9.90844e-07 6.76686e-07 0.405801 0.60997 3.22299e-44 0 4.6297e-39 0 1.68569e-34 0 4.38584e-32 0 1.79275e-30 0 2.76005e-29 0 2.41339e-28 0 1.42464e-27 0 6.31543e-27 0 2.29183e-26 0 7.12705e-26 0 1.9247e-25 0 4.79862e-25 0 1.08389e-24 0 2.28653e-24 0 4.52371e-24 0 8.61836e-24 0 1.54917e-23 0 2.6643e-23 0 4.44082e-23 0 7.26002e-23 0
