# 8.14556e-05 0 74 : grain size, compostion index, size index
# Heating and cooling timescale: 0.000288082 2.74268e+06
# Ratio of heating to cooling to determine stochastic cutoff: 100
# Equilibrium emission is recorded even for those grains in the stochastic regime.
# Emission spectrum was computed for: 
# Type: ISRF
# Scales: 0.25 0.5 1 1.5 2 2.5 3 3.5 4 4.5 5 5.5 6 6.5 7 7.5 8 8.5 9 9.5 10
# StochasticallyHeated: 0 0 0 0 0 0 0 0 0 0 0 0 0 0 0 0 0 0 0 0 0
# Temperature: -1
# Wavelength  CExt  CAbs  CSca  Albedo G EqEm1 StEm1 EqEm2 StEm2 EqEm3 StEm3 EqEm4 StEm4 EqEm5 StEm5 EqEm6 StEm6 EqEm7 StEm7 EqEm8 StEm8 EqEm9 StEm9 EqEm10 StEm10 EqEm11 StEm11 EqEm12 StEm12 EqEm13 StEm13 EqEm14 StEm14 EqEm15 StEm15 EqEm16 StEm16 EqEm17 StEm17 EqEm18 StEm18 EqEm19 StEm19 EqEm20 StEm20 EqEm21 StEm21
0.05 4.18817e-08 1.98802e-08 2.20016e-08 0.525326 0.988858 0 0 0 0 0 0 0 0 0 0 0 0 0 0 0 0 0 0 0 0 0 0 0 0 0 0 0 0 0 0 0 0 0 0 0 0 0 0 0 0 0 0
0.0525665 4.21855e-08 1.95773e-08 2.26083e-08 0.535925 0.982158 0 0 0 0 0 0 0 0 0 0 0 0 0 0 0 0 0 0 0 0 0 0 0 0 0 0 0 0 0 0 0 0 0 0 0 0 0 0 0 0 0 0
0.0552647 4.2355e-08 1.9549e-08 2.2806e-08 0.538449 0.978508 0 0 0 0 0 0 0 0 0 0 0 0 0 0 0 0 0 0 0 0 0 0 0 0 0 0 0 0 0 0 0 0 0 0 0 0 0 0 0 0 0 0
0.0581015 4.24828e-08 1.95744e-08 2.29084e-08 0.539239 0.975954 0 0 0 0 0 0 0 0 0 0 0 0 0 0 0 0 0 0 0 0 0 0 0 0 0 0 0 0 0 0 0 0 0 0 0 0 0 0 0 0 0 0
0.0610839 4.25871e-08 1.9616e-08 2.2971e-08 0.53939 0.974023 0 0 0 0 0 0 0 0 0 0 0 0 0 0 0 0 0 0 0 0 0 0 0 0 0 0 0 0 0 0 0 0 0 0 0 0 0 0 0 0 0 0
0.0642193 4.2678e-08 1.96524e-08 2.30256e-08 0.539518 0.972317 0 0 0 0 0 0 0 0 0 0 0 0 0 0 0 0 0 0 0 0 0 0 0 0 0 0 0 0 0 0 0 0 0 0 0 0 0 0 0 0 0 0
0.0675157 4.27631e-08 1.96723e-08 2.30908e-08 0.53997 0.970524 0 0 0 0 0 0 0 0 0 0 0 0 0 0 0 0 0 0 0 0 0 0 0 0 0 0 0 0 0 0 0 0 0 0 0 0 0 0 0 0 0 0
0.0709813 4.28496e-08 1.96777e-08 2.31719e-08 0.540772 0.968479 0 0 0 0 0 0 0 0 0 0 0 0 0 0 0 0 0 0 0 0 0 0 0 0 0 0 0 0 0 0 0 0 0 0 0 0 0 0 0 0 0 0
0.0746248 4.29423e-08 1.96771e-08 2.32652e-08 0.541779 0.966175 0 0 0 0 0 0 0 0 0 0 0 0 0 0 0 0 0 0 0 0 0 0 0 0 0 0 0 0 0 0 0 0 0 0 0 0 0 0 0 0 0 0
0.0784553 4.30394e-08 1.96793e-08 2.33601e-08 0.54276 0.963771 0 0 0 0 0 0 0 0 0 0 0 0 0 0 0 0 0 0 0 0 0 0 0 0 0 0 0 0 0 0 0 0 0 0 0 0 0 0 0 0 0 0
0.0824824 4.31402e-08 1.96865e-08 2.34538e-08 0.543664 0.961325 0 0 0 0 0 0 0 0 0 0 0 0 0 0 0 0 0 0 0 0 0 0 0 0 0 0 0 0 0 0 0 0 0 0 0 0 0 0 0 0 0 0
0.0867162 4.32445e-08 1.96971e-08 2.35474e-08 0.544517 0.958826 0 0 0 0 0 0 0 0 0 0 0 0 0 0 0 0 0 0 0 0 0 0 0 0 0 0 0 0 0 0 0 0 0 0 0 0 0 0 0 0 0 0
0.0911674 4.33532e-08 1.97116e-08 2.36416e-08 0.545325 0.956262 0 0 0 0 0 0 0 0 0 0 0 0 0 0 0 0 0 0 0 0 0 0 0 0 0 0 0 0 0 0 0 0 0 0 0 0 0 0 0 0 0 0
0.095847 4.34674e-08 1.97314e-08 2.3736e-08 0.546064 0.953643 0 0 0 0 0 0 0 0 0 0 0 0 0 0 0 0 0 0 0 0 0 0 0 0 0 0 0 0 0 0 0 0 0 0 0 0 0 0 0 0 0 0
0.100767 4.35875e-08 1.97599e-08 2.38276e-08 0.546661 0.951023 0 0 0 0 0 0 0 0 0 0 0 0 0 0 0 0 0 0 0 0 0 0 0 0 0 0 0 0 0 0 0 0 0 0 0 0 0 0 0 0 0 0
0.105939 4.37158e-08 1.98093e-08 2.39064e-08 0.546861 0.948601 0 0 0 0 0 0 0 0 0 0 0 0 0 0 0 0 0 0 0 0 0 0 0 0 0 0 0 0 0 0 0 0 0 0 0 0 0 0 0 0 0 0
0.111377 4.38419e-08 1.9883e-08 2.39589e-08 0.546483 0.94674 0 0 0 0 0 0 0 0 0 0 0 0 0 0 0 0 0 0 0 0 0 0 0 0 0 0 0 0 0 0 0 0 0 0 0 0 0 0 0 0 0 0
0.117094 4.39586e-08 1.99687e-08 2.39899e-08 0.545738 0.945403 0 0 0 0 0 0 0 0 0 0 0 0 0 0 0 0 0 0 0 0 0 0 0 0 0 0 0 0 0 0 0 0 0 0 0 0 0 0 0 0 0 0
0.123105 4.40784e-08 2.00459e-08 2.40325e-08 0.545222 0.94385 0 0 0 0 0 0 0 0 0 0 0 0 0 0 0 0 0 0 0 0 0 0 0 0 0 0 0 0 0 0 0 0 0 0 0 0 0 0 0 0 0 0
0.129424 4.42061e-08 2.01449e-08 2.40611e-08 0.544295 0.942578 0 0 0 0 0 0 0 0 0 0 0 0 0 0 0 0 0 0 0 0 0 0 0 0 0 0 0 0 0 0 0 0 0 0 0 0 0 0 0 0 0 0
0.136067 4.43165e-08 2.02769e-08 2.40396e-08 0.542452 0.942454 0 0 0 0 0 0 0 0 0 0 0 0 0 0 0 0 0 0 0 0 0 0 0 0 0 0 0 0 0 0 0 0 0 0 0 0 0 0 0 0 0 0
0.143051 4.44218e-08 2.03832e-08 2.40386e-08 0.541144 0.941922 0 0 0 0 0 0 0 0 0 0 0 0 0 0 0 0 0 0 0 0 0 0 0 0 0 0 0 0 0 0 0 0 0 0 0 0 0 0 0 0 0 0
0.150394 4.45416e-08 2.05483e-08 2.39933e-08 0.538672 0.942311 0 0 0 0 0 0 0 0 0 0 0 0 0 0 0 0 0 0 0 0 0 0 0 0 0 0 0 0 0 0 0 0 0 0 0 0 0 0 0 0 0 0
0.158114 4.45545e-08 2.07852e-08 2.37692e-08 0.533487 0.946502 0 0 0 0 0 0 0 0 0 0 0 0 0 0 0 0 0 0 0 0 0 0 0 0 0 0 0 0 0 0 0 0 0 0 0 0 0 0 0 0 0 0
0.16623 4.44867e-08 2.08081e-08 2.36785e-08 0.532261 0.947575 0 0 0 0 0 0 0 0 0 0 0 0 0 0 0 0 0 0 0 0 0 0 0 0 0 0 0 0 0 0 0 0 0 0 0 0 0 0 0 0 0 0
0.174762 4.44947e-08 2.06712e-08 2.38235e-08 0.535424 0.943898 0 0 0 0 0 0 0 0 0 0 0 0 0 0 0 0 0 0 0 0 0 0 0 0 0 0 0 0 0 0 0 0 0 0 0 0 0 0 0 0 0 0
0.183733 4.45801e-08 2.04759e-08 2.41042e-08 0.540693 0.937601 0 0 0 0 0 0 0 0 0 0 0 0 0 0 0 0 0 0 0 0 0 0 0 0 0 0 0 0 0 0 0 0 0 0 0 0 0 0 0 0 0 0
0.193164 4.47551e-08 2.02048e-08 2.45503e-08 0.548548 0.927904 0 0 0 0 0 0 0 0 0 0 0 0 0 0 0 0 0 0 0 0 0 0 0 0 0 0 0 0 0 0 0 0 0 0 0 0 0 0 0 0 0 0
0.203079 4.50456e-08 1.99912e-08 2.50544e-08 0.556201 0.916537 0 0 0 0 0 0 0 0 0 0 0 0 0 0 0 0 0 0 0 0 0 0 0 0 0 0 0 0 0 0 0 0 0 0 0 0 0 0 0 0 0 0
0.213503 4.53364e-08 1.98816e-08 2.54548e-08 0.561465 0.907023 0 0 0 0 0 0 0 0 0 0 0 0 0 0 0 0 0 0 0 0 0 0 0 0 0 0 0 0 0 0 0 0 0 0 0 0 0 0 0 0 0 0
0.224463 4.5627e-08 1.98204e-08 2.58066e-08 0.5656 0.898448 0 0 0 0 0 0 0 0 0 0 0 0 0 0 0 0 0 0 0 0 0 0 0 0 0 0 0 0 0 0 0 0 0 0 0 0 0 0 0 0 0 0
0.235984 4.59216e-08 1.97606e-08 2.6161e-08 0.569689 0.889841 0 0 0 0 0 0 0 0 0 0 0 0 0 0 0 0 0 0 0 0 0 0 0 0 0 0 0 0 0 0 0 0 0 0 0 0 0 0 0 0 0 0
0.248097 4.62666e-08 1.96853e-08 2.65813e-08 0.574525 0.879772 0 0 0 0 0 0 0 0 0 0 0 0 0 0 0 0 0 0 0 0 0 0 0 0 0 0 0 0 0 0 0 0 0 0 0 0 0 0 0 0 0 0
0.260832 4.66291e-08 1.96966e-08 2.69325e-08 0.57759 0.871171 0 0 0 0 0 0 0 0 0 0 0 0 0 0 0 0 0 0 0 0 0 0 0 0 0 0 0 0 0 0 0 0 0 0 0 0 0 0 0 0 0 0
0.274221 4.69904e-08 1.97633e-08 2.7227e-08 0.579417 0.863865 0 0 0 0 0 0 0 0 0 0 0 0 0 0 0 0 0 0 0 0 0 0 0 0 0 0 0 0 0 0 0 0 0 0 0 0 0 0 0 0 0 0
0.288297 4.73362e-08 1.98626e-08 2.74736e-08 0.580394 0.857715 0 0 0 0 0 0 0 0 0 0 0 0 0 0 0 0 0 0 0 0 0 0 0 0 0 0 0 0 0 0 0 0 0 0 0 0 0 0 0 0 0 0
0.303095 4.76825e-08 1.99889e-08 2.76936e-08 0.580792 0.852174 0 0 0 0 0 0 0 0 0 0 0 0 0 0 0 0 0 0 0 0 0 0 0 0 0 0 0 0 0 0 0 0 0 0 0 0 0 0 0 0 0 0
0.318653 4.80177e-08 2.01302e-08 2.78875e-08 0.580776 0.847264 0 0 0 0 0 0 0 0 0 0 0 0 0 0 0 0 0 0 0 0 0 0 0 0 0 0 0 0 0 0 0 0 0 0 0 0 0 0 0 0 0 0
0.335009 4.83478e-08 2.02806e-08 2.80672e-08 0.580527 0.842682 0 0 0 0 0 0 0 0 0 0 0 0 0 0 0 0 0 0 0 0 0 0 0 0 0 0 0 0 0 0 0 0 0 0 0 0 0 0 0 0 0 0
0.352205 4.86725e-08 2.04393e-08 2.82333e-08 0.580066 0.838389 0 0 0 0 0 0 0 0 0 0 0 0 0 0 0 0 0 0 0 0 0 0 0 0 0 0 0 0 0 0 0 0 0 0 0 0 0 0 0 0 0 0
0.370284 4.8996e-08 2.05966e-08 2.83994e-08 0.579627 0.834109 0 0 0 0 0 0 0 0 0 0 0 0 0 0 0 0 0 0 0 0 0 0 0 0 0 0 0 0 0 0 0 0 0 0 0 0 0 0 0 0 0 0
0.389291 4.93165e-08 2.07551e-08 2.85614e-08 0.579145 0.82989 0 0 0 0 0 0 0 0 0 0 0 0 0 0 0 0 0 0 0 0 0 0 0 0 0 0 0 0 0 0 0 0 0 0 0 0 0 0 0 0 0 0
0.409273 4.96376e-08 2.09093e-08 2.87283e-08 0.578761 0.825551 0 0 0 0 0 0 0 0 0 0 0 0 0 0 0 0 0 0 0 0 0 0 0 0 0 0 0 0 0 0 0 0 0 0 0 0 0 0 0 0 0 0
0.430281 4.99586e-08 2.10609e-08 2.88978e-08 0.578434 0.821109 0 0 0 0 0 0 0 0 0 0 0 0 0 0 0 0 0 0 0 0 0 0 0 0 0 0 0 0 0 0 0 0 0 0 0 0 0 0 0 0 0 0
0.452368 5.02748e-08 2.12139e-08 2.90609e-08 0.578041 0.816694 0 0 0 0 0 0 0 0 0 0 0 0 0 0 0 0 0 0 0 0 0 0 0 0 0 0 0 0 0 0 0 0 0 0 0 0 0 0 0 0 0 0
0.475588 5.05867e-08 2.13648e-08 2.92218e-08 0.577659 0.812217 0 0 0 0 0 0 0 0 0 0 0 0 0 0 0 0 0 0 0 0 0 0 0 0 0 0 0 0 0 0 0 0 0 0 0 0 0 0 0 0 0 0
0.5 5.08852e-08 2.15216e-08 2.93636e-08 0.577055 0.80796 0 0 0 0 0 0 0 0 0 0 0 0 0 0 0 0 0 0 0 0 0 0 0 0 0 0 0 0 0 0 0 0 0 0 0 0 0 0 0 0 0 0
0.525665 5.11716e-08 2.16851e-08 2.94865e-08 0.576227 0.803923 0 0 0 0 0 0 0 0 0 0 0 0 0 0 0 0 0 0 0 0 0 0 0 0 0 0 0 0 0 0 0 0 0 0 0 0 0 0 0 0 0 0
0.552648 5.14468e-08 2.18539e-08 2.95929e-08 0.575213 0.80009 0 0 0 0 0 0 0 0 0 0 0 0 0 0 0 0 0 0 0 0 0 0 0 0 0 0 0 0 0 0 0 0 0 0 0 0 0 0 0 0 0 0
0.581015 5.17153e-08 2.20274e-08 2.96879e-08 0.574064 0.796324 0 0 0 0 0 0 0 0 0 0 0 0 0 0 0 0 0 0 0 0 0 0 0 0 0 0 0 0 0 0 0 0 0 0 0 0 0 0 0 0 0 0
0.610839 5.19807e-08 2.22003e-08 2.97804e-08 0.572912 0.792507 0 0 0 0 0 0 0 0 0 0 0 0 0 0 0 0 0 0 0 0 0 0 0 0 0 0 0 0 0 0 0 0 0 0 0 0 0 0 0 0 0 0
0.642193 5.22451e-08 2.23775e-08 2.98676e-08 0.571683 0.788607 0 0 0 0 0 0 0 0 0 0 0 0 0 0 0 0 0 0 0 0 0 0 0 0 0 0 0 0 0 0 0 0 0 0 0 0 0 0 0 0 0 0
0.675157 5.25081e-08 2.25514e-08 2.99567e-08 0.570516 0.784573 0 0 0 0 0 0 0 0 0 0 0 0 0 0 0 0 0 0 0 0 0 0 0 0 0 0 0 0 0 0 0 0 0 0 0 0 0 0 0 0 0 0
0.709813 5.27754e-08 2.27314e-08 3.0044e-08 0.56928 0.78038 0 0 0 0 0 0 0 0 0 0 0 0 0 0 0 0 0 0 0 0 0 0 0 0 0 0 0 0 0 0 0 0 0 0 0 0 0 0 0 0 0 0
0.746248 5.30345e-08 2.29073e-08 3.01272e-08 0.568068 0.775992 0 0 0 0 0 0 0 0 0 0 0 0 0 0 0 0 0 0 0 0 0 0 0 0 0 0 0 0 0 0 0 0 0 0 0 0 0 0 0 0 0 0
0.784553 5.32978e-08 2.30929e-08 3.02049e-08 0.56672 0.771608 0 0 0 0 0 0 0 0 0 0 0 0 0 0 0 0 0 0 0 0 0 0 0 0 0 0 0 0 0 0 0 0 0 0 0 0 0 0 0 0 0 0
0.824824 5.35528e-08 2.33001e-08 3.02527e-08 0.564914 0.767341 0 0 0 0 0 0 0 0 0 0 0 0 0 0 0 0 0 0 0 0 0 0 0 0 0 0 0 0 0 0 0 0 0 0 0 0 0 0 0 0 0 0
0.867162 5.38051e-08 2.35217e-08 3.02834e-08 0.562836 0.763281 0 0 0 0 0 0 0 0 0 0 0 0 0 0 0 0 0 0 0 0 0 0 0 0 0 0 0 0 0 0 0 0 0 0 0 0 0 0 0 0 0 0
0.911674 5.40887e-08 2.37705e-08 3.03182e-08 0.560527 0.759308 0 0 0 0 0 0 0 0 0 0 0 0 0 0 0 0 0 0 0 0 0 0 0 0 0 0 0 0 0 0 0 0 0 0 0 0 0 0 0 0 0 0
0.95847 5.43832e-08 2.40159e-08 3.03673e-08 0.558395 0.754589 0 0 0 0 0 0 0 0 0 0 0 0 0 0 0 0 0 0 0 0 0 0 0 0 0 0 0 0 0 0 0 0 0 0 0 0 0 0 0 0 0 0
1.00767 5.46657e-08 2.42341e-08 3.04316e-08 0.556685 0.749124 0 0 0 0 0 0 0 0 0 0 0 0 0 0 0 0 0 0 0 0 0 0 0 0 0 0 0 0 0 0 0 0 0 0 0 0 0 0 0 0 0 0
1.05939 5.49778e-08 2.4473e-08 3.05048e-08 0.554857 0.743745 0 0 0 0 0 0 0 0 0 0 0 0 0 0 0 0 0 0 0 0 0 0 0 0 0 0 0 0 0 0 0 0 0 0 0 0 0 0 0 0 0 0
1.11377 5.53104e-08 2.47434e-08 3.0567e-08 0.552645 0.738206 0 0 0 0 0 0 0 0 0 0 0 0 0 0 0 0 0 0 0 0 0 0 0 0 0 0 0 0 0 0 0 0 0 0 0 0 0 0 0 0 0 0
1.17094 5.56152e-08 2.4994e-08 3.06211e-08 0.55059 0.731672 0 0 0 0 0 0 0 0 0 0 0 0 0 0 0 0 0 0 0 0 0 0 0 0 0 0 0 0 0 0 0 0 0 0 0 0 0 0 0 0 0 0
1.23105 5.59131e-08 2.52231e-08 3.069e-08 0.548887 0.724513 0 0 0 0 0 0 0 0 0 0 0 0 0 0 0 0 0 0 0 0 0 0 0 0 0 0 0 0 0 0 0 0 0 0 0 0 0 0 0 0 0 0
1.29424 5.62634e-08 2.54891e-08 3.07743e-08 0.546969 0.717654 0 0 0 0 0 0 0 0 0 0 0 0 0 0 0 0 0 0 0 0 0 0 0 0 0 0 0 0 0 0 0 0 0 0 0 0 0 0 0 0 0 0
1.36067 5.66498e-08 2.58211e-08 3.08287e-08 0.544198 0.711169 0 0 0 0 0 0 0 0 0 0 0 0 0 0 0 0 0 0 0 0 0 0 0 0 0 0 0 0 0 0 0 0 0 0 0 0 0 0 0 0 0 0
1.43051 5.70089e-08 2.61532e-08 3.08557e-08 0.541244 0.703659 0 0 0 0 0 0 0 0 0 0 0 0 0 0 0 0 0 0 0 0 0 0 0 0 0 0 0 0 0 0 0 0 0 0 0 0 0 0 0 0 0 0
1.50394 5.7319e-08 2.64155e-08 3.09035e-08 0.539149 0.694175 0 0 0 0 0 0 0 0 0 0 0 0 0 0 0 0 0 0 0 0 0 0 0 0 0 0 0 0 0 0 0 0 0 0 0 0 0 0 0 0 0 0
1.58114 5.76531e-08 2.66598e-08 3.09932e-08 0.537582 0.683962 0 0 0 0 0 0 0 0 0 0 0 0 0 0 0 0 0 0 0 0 0 0 0 0 0 0 0 0 0 0 0 0 0 0 0 0 0 0 0 0 0 0
1.6623 5.80778e-08 2.69678e-08 3.111e-08 0.535661 0.674471 0 0 0 0 0 0 0 0 0 0 0 0 0 0 0 0 0 0 0 0 0 0 0 0 0 0 0 0 0 0 0 0 0 0 0 0 0 0 0 0 0 0
1.74763 5.85602e-08 2.736e-08 3.12002e-08 0.532788 0.665759 0 0 0 0 0 0 0 0 0 0 0 0 0 0 0 0 0 0 0 0 0 0 0 0 0 0 0 0 0 0 0 0 0 0 0 0 0 0 0 0 0 0
1.83733 5.90043e-08 2.77719e-08 3.12324e-08 0.529325 0.656222 0 0 0 0 0 0 0 0 0 0 0 0 0 0 0 0 0 0 0 0 0 0 0 0 0 0 0 0 0 0 0 0 0 0 0 0 0 0 0 0 0 0
1.93164 5.93329e-08 2.81066e-08 3.12262e-08 0.526289 0.643884 0 0 0 0 0 0 0 0 0 0 0 0 0 0 0 0 0 0 0 0 0 0 0 0 0 0 0 0 0 0 0 0 0 0 0 0 0 0 0 0 0 0
2.03079 5.95772e-08 2.83813e-08 3.11959e-08 0.523622 0.628891 0 0 0 0 0 0 0 0 0 0 0 0 0 0 0 0 0 0 0 0 0 0 0 0 0 0 0 0 0 0 0 0 0 0 0 0 0 0 0 0 0 0
2.13503 5.9834e-08 2.86444e-08 3.11896e-08 0.521269 0.612222 0 0 0 0 0 0 0 0 0 0 0 0 0 0 0 0 0 0 0 0 0 0 0 0 0 0 0 0 0 0 0 0 0 0 0 0 0 0 0 0 0 0
2.24463 6.01739e-08 2.89559e-08 3.1218e-08 0.518797 0.595316 0 0 0 0 0 0 0 0 0 0 0 0 0 0 0 0 0 0 0 0 0 0 0 0 0 0 0 0 0 0 0 0 0 0 0 0 0 0 0 0 0 0
2.35984 6.06238e-08 2.93691e-08 3.12547e-08 0.515551 0.579299 0 0 0 0 0 0 0 0 0 0 0 0 0 0 0 0 0 0 0 0 0 0 0 0 0 0 0 0 0 0 0 0 0 0 0 0 0 0 0 0 0 0
2.48097 6.11559e-08 2.98851e-08 3.12708e-08 0.511329 0.564198 0 0 0 0 0 0 0 0 0 0 0 0 0 0 0 0 0 0 0 0 0 0 0 0 0 0 0 0 0 0 0 0 0 0 0 0 0 0 0 0 0 0
2.60832 6.17206e-08 3.05337e-08 3.11869e-08 0.505292 0.549881 0 0 0 0 0 0 0 0 0 0 0 0 0 0 0 0 0 0 0 0 0 0 0 0 0 0 0 0 0 0 0 0 0 0 0 0 0 0 0 0 0 0
2.74221 6.22631e-08 3.11545e-08 3.11086e-08 0.499631 0.533911 0 0 0 0 0 0 0 0 0 0 0 0 0 0 0 0 0 0 0 0 0 0 0 0 0 0 0 0 0 0 0 0 0 0 0 0 0 0 0 0 0 0
2.88297 6.25961e-08 3.16612e-08 3.09349e-08 0.494199 0.514508 0 0 0 0 0 0 0 0 0 0 0 0 0 0 0 0 0 0 0 0 0 0 0 0 0 0 0 0 0 0 0 0 0 0 0 0 0 0 0 0 0 0
3.03095 6.2705e-08 3.20147e-08 3.06904e-08 0.48944 0.490166 0 0 0 0 0 0 0 0 0 0 0 0 0 0 0 0 0 0 0 0 0 0 0 0 0 0 0 0 0 0 0 0 0 0 0 0 0 0 0 0 0 0
3.18653 6.25726e-08 3.20955e-08 3.04771e-08 0.487067 0.458048 0 0 0 0 0 0 0 0 0 0 0 0 0 0 0 0 0 0 0 0 0 0 0 0 0 0 0 0 0 0 0 0 0 0 0 0 0 0 0 0 0 0
3.35009 6.23907e-08 3.2069e-08 3.03217e-08 0.485997 0.418751 0 0 0 0 0 0 0 0 0 0 0 0 0 0 0 0 0 0 0 0 0 0 0 0 0 0 0 0 0 0 0 0 0 0 0 0 0 0 0 0 0 0
3.52205 6.25979e-08 3.21294e-08 3.04686e-08 0.486734 0.375431 0 0 0 0 0 0 0 0 0 0 0 0 0 0 0 0 0 0 0 0 0 0 0 0 0 0 0 0 0 0 0 0 0 0 0 0 0 0 0 0 0 0
3.70284 6.33481e-08 3.23373e-08 3.10108e-08 0.48953 0.330254 0 0 0 0 0 0 0 0 0 0 0 0 0 0 0 0 0 0 0 0 0 0 0 0 0 0 0 0 0 0 0 0 0 0 0 0 0 0 0 0 0 0
3.89291 6.47361e-08 3.27829e-08 3.19533e-08 0.493593 0.286993 0 0 0 0 0 0 0 0 0 0 0 0 0 0 0 0 0 0 0 0 0 0 0 0 0 0 0 0 0 0 0 0 0 0 0 0 0 0 0 0 0 0
4.09273 6.67464e-08 3.34644e-08 3.3282e-08 0.498634 0.248194 0 0 0 0 0 0 0 0 0 0 0 0 0 0 0 0 0 0 0 0 0 0 0 0 0 0 0 0 0 0 0 0 0 0 0 0 0 0 0 0 0 0
4.30281 6.9184e-08 3.43392e-08 3.48448e-08 0.503654 0.214992 0 0 0 0 0 0 0 0 0 0 0 0 0 0 0 0 0 0 0 0 0 0 0 0 0 0 0 0 0 0 0 0 0 0 0 0 0 0 0 0 0 0
4.52368 7.16123e-08 3.52747e-08 3.63376e-08 0.507422 0.186526 0 0 0 0 0 0 0 0 0 0 0 0 0 0 0 0 0 0 0 0 0 0 0 0 0 0 0 0 0 0 0 0 0 0 0 0 0 0 0 0 0 0
4.75588 7.35019e-08 3.61334e-08 3.73685e-08 0.508402 0.162438 0 0 0 0 0 0 0 0 0 0 0 0 0 0 0 0 0 0 0 0 0 0 0 0 0 0 0 0 0 0 0 0 0 0 0 0 0 0 0 0 0 0
5 7.44708e-08 3.68422e-08 3.76286e-08 0.50528 0.142821 0 0 0 0 0 0 0 0 0 0 0 0 0 0 0 0 0 0 0 0 0 0 0 0 0 0 0 0 0 0 0 0 0 0 0 0 0 0 0 0 0 0
5.25665 7.40484e-08 3.72948e-08 3.67536e-08 0.496346 0.130024 0 0 0 0 0 0 0 0 0 0 0 0 0 0 0 0 0 0 0 0 0 0 0 0 0 0 0 0 0 0 0 0 0 0 0 0 0 0 0 0 0 0
5.52648 7.18759e-08 3.73448e-08 3.45311e-08 0.480427 0.123814 0 0 0 0 0 0 0 0 0 0 0 0 0 0 0 0 0 0 0 0 0 0 0 0 0 0 0 0 0 0 0 0 0 0 0 0 0 0 0 0 0 0
5.81015 6.77653e-08 3.68184e-08 3.09469e-08 0.456677 0.126742 0 0 0 0 0 0 0 0 0 0 0 0 0 0 0 0 0 0 0 0 0 0 0 0 0 0 0 0 0 0 0 0 0 0 1.4013e-45 0 4.2039e-45 0 1.26117e-44 0 3.36312e-44 0
6.10839 6.20647e-08 3.53886e-08 2.66761e-08 0.429812 0.127762 0 0 0 0 0 0 0 0 0 0 0 0 0 0 0 0 0 0 0 0 0 0 0 0 0 0 1.4013e-45 0 5.60519e-45 0 2.10195e-44 0 7.28675e-44 0 2.36819e-43 0 6.89439e-43 0 1.91137e-42 0 5.05869e-42 0
6.42193 5.65122e-08 3.35304e-08 2.29817e-08 0.406669 0.118104 0 0 0 0 0 0 0 0 0 0 0 0 0 0 0 0 0 0 0 0 1.4013e-45 0 8.40779e-45 0 4.76441e-44 0 2.17201e-43 0 8.81417e-43 0 3.17114e-42 0 1.04817e-41 0 3.1986e-41 0 8.82187e-41 0 2.32526e-40 0 5.8691e-40 0
6.75157 5.07308e-08 3.13709e-08 1.93599e-08 0.38162 0.11864 0 0 0 0 0 0 0 0 0 0 0 0 0 0 0 0 2.8026e-45 0 3.08286e-44 0 2.25609e-43 0 1.34244e-42 0 6.71362e-42 0 2.86523e-41 0 1.08378e-40 0 3.66185e-40 0 1.14169e-39 0 3.29949e-39 0 8.66036e-39 0 2.17718e-38 0 5.25245e-38 0
7.09813 4.47585e-08 2.87897e-08 1.59688e-08 0.356778 0.117533 0 0 0 0 0 0 0 0 0 0 0 0 1.4013e-45 0 3.78351e-44 0 4.76441e-43 0 4.27396e-42 0 2.86552e-41 0 1.56077e-40 0 7.21813e-40 0 2.87e-39 0 1.01731e-38 0 3.23888e-38 0 9.55281e-38 0 2.62137e-37 0 6.5638e-37 0 1.57749e-36 0 3.64553e-36 0
7.46248 3.95726e-08 2.63447e-08 1.32278e-08 0.334268 0.110662 0 0 0 0 0 0 0 0 0 0 9.80909e-45 0 2.95674e-43 0 5.22124e-42 0 5.72066e-41 0 4.60778e-40 0 2.81541e-39 0 1.41167e-38 0 6.05829e-38 0 2.25185e-37 0 7.50375e-37 0 2.25769e-36 0 6.31634e-36 0 1.6499e-35 0 3.95023e-35 0 9.09581e-35 0 2.01778e-34 0
7.84553 3.48208e-08 2.39445e-08 1.08763e-08 0.31235 0.107671 0 0 0 0 0 0 0 0 1.96182e-44 0 1.32703e-42 0 3.54865e-41 0 5.44595e-40 0 5.30877e-39 0 3.86193e-38 0 2.16011e-37 0 1.00111e-36 0 4.00139e-36 0 1.39496e-35 0 4.38307e-35 0 1.2497e-34 0 3.32502e-34 0 8.28757e-34 0 1.90143e-33 0 4.20352e-33 0 8.96913e-33 0
8.24824 3.06084e-08 2.16874e-08 8.92104e-09 0.291457 0.10368 0 0 0 0 0 0 1.26117e-44 0 2.6933e-42 0 1.44973e-40 0 3.30288e-39 0 4.43606e-38 0 3.86932e-37 0 2.55487e-36 0 1.31382e-35 0 5.64968e-35 0 2.11045e-34 0 6.92221e-34 0 2.05677e-33 0 5.57184e-33 0 1.4133e-32 0 3.36902e-32 0 7.42246e-32 0 1.57856e-31 0 3.24584e-31 0
8.67162 2.67595e-08 1.94947e-08 7.26478e-09 0.271485 0.102931 0 0 0 0 1.4013e-45 0 1.67035e-42 0 2.77453e-40 0 1.22907e-38 0 2.4038e-37 0 2.84397e-36 0 2.2317e-35 0 1.34384e-34 0 6.37958e-34 0 2.55476e-33 0 8.94864e-33 0 2.76975e-32 0 7.80352e-32 0 2.01359e-31 0 4.88059e-31 0 1.11512e-30 0 2.36383e-30 0 4.84537e-30 0 9.61855e-30 0
9.11674 2.32599e-08 1.73778e-08 5.8821e-09 0.252886 0.104427 0 0 0 0 1.14906e-43 0 1.71553e-40 0 2.22083e-38 0 8.17558e-37 0 1.38291e-35 0 1.4502e-34 0 1.0291e-33 0 5.67675e-33 0 2.49757e-32 0 9.34669e-32 0 3.07953e-31 0 9.02007e-31 0 2.416e-30 0 5.9522e-30 0 1.38167e-29 0 3.03203e-29 0 6.1958e-29 0 1.22628e-28 0 2.35415e-28 0
9.5847 2.00856e-08 1.53454e-08 4.7402e-09 0.236 0.106718 0 0 0 0 1.30307e-41 0 1.36799e-38 0 1.39662e-36 0 4.31144e-35 0 6.35226e-34 0 5.93926e-33 0 3.8301e-32 0 1.94376e-31 0 7.95511e-31 0 2.79128e-30 0 8.67654e-30 0 2.41149e-29 0 6.15575e-29 0 1.45125e-28 0 3.23307e-28 0 6.82775e-28 0 1.34737e-27 0 2.57932e-27 0 4.79644e-27 0
10.0767 1.71864e-08 1.33878e-08 3.79862e-09 0.221025 0.108172 0 0 4.2039e-45 0 1.14313e-39 0 8.54512e-37 0 6.96026e-35 0 1.81738e-33 0 2.34806e-32 0 1.96841e-31 0 1.15897e-30 0 5.43326e-30 0 2.07579e-29 0 6.85053e-29 0 2.01474e-28 0 5.32701e-28 0 1.299e-27 0 2.93687e-27 0 6.29176e-27 0 1.2811e-26 0 2.44558e-26 0 4.53554e-26 0 8.18256e-26 0
10.5939 1.46159e-08 1.1584e-08 3.03189e-09 0.207438 0.1065 0 0 5.70328e-43 0 7.84477e-38 0 4.24524e-35 0 2.7894e-33 0 6.21092e-32 0 7.08212e-31 0 5.35162e-30 0 2.88967e-29 0 1.25626e-28 0 4.49552e-28 0 1.3996e-27 0 3.90503e-27 0 9.84627e-27 0 2.29877e-26 0 4.99431e-26 0 1.03088e-25 0 2.02741e-25 0 3.74998e-25 0 6.74807e-25 0 1.18285e-24 0
11.1377 1.26565e-08 1.02172e-08 2.43931e-09 0.192732 0.098918 0 0 5.67778e-41 0 4.37874e-36 0 1.74269e-33 0 9.33438e-32 0 1.78621e-30 0 1.80856e-29 0 1.23814e-28 0 6.15712e-28 0 2.49142e-27 0 8.3775e-27 0 2.46749e-26 0 6.54818e-26 0 1.57819e-25 0 3.53511e-25 0 7.39487e-25 0 1.47332e-24 0 2.80342e-24 0 5.03195e-24 0 8.79893e-24 0 1.50064e-23 0
11.7094 1.10423e-08 9.06576e-09 1.97657e-09 0.178999 0.093509 2.38221e-44 0 4.45555e-39 0 1.98364e-34 0 5.89382e-32 0 2.59928e-30 0 4.30641e-29 0 3.89429e-28 0 2.42704e-27 0 1.11602e-26 0 4.21795e-26 0 1.33677e-25 0 3.73501e-25 0 9.45066e-25 0 2.18196e-24 0 4.69885e-24 0 9.48133e-24 0 1.8265e-23 0 3.36799e-23 0 5.87509e-23 0 9.99674e-23 0 1.66106e-22 0
12.3105 9.59636e-09 7.99838e-09 1.59798e-09 0.16652 0.0888703 2.74094e-42 0 2.75933e-37 0 7.28457e-33 0 1.63908e-30 0 6.00851e-29 0 8.6796e-28 0 7.0489e-27 0 4.01765e-26 0 1.71481e-25 0 6.07371e-25 0 1.81949e-24 0 4.83502e-24 0 1.16919e-23 0 2.59135e-23 0 5.37534e-23 0 1.04809e-22 0 1.95544e-22 0 3.49963e-22 0 5.94111e-22 0 9.85011e-22 0 1.59662e-21 0
12.9424 8.41968e-09 7.12948e-09 1.29021e-09 0.153237 0.0809357 2.41616e-40 0 1.38584e-35 0 2.22553e-31 0 3.84402e-29 0 1.18191e-27 0 1.49863e-26 0 1.09876e-25 0 5.75243e-25 0 2.28731e-24 0 7.61633e-24 0 2.1626e-23 0 5.47902e-23 0 1.26901e-22 0 2.7054e-22 0 5.41552e-22 0 1.02205e-21 0 1.84968e-21 0 3.2176e-21 0 5.32299e-21 0 8.6101e-21 0 1.3631e-20 0
