# 1.4962e-06 1 65 : grain size, compostion index, size index
# Heating and cooling timescale: 66.8176 10996.7
# Ratio of heating to cooling to determine stochastic cutoff: 100
# Equilibrium emission is recorded even for those grains in the stochastic regime.
# Emission spectrum was computed for: 
# Type: IRSF
# Scales: 0.25 0.5 1 1.5 2 2.5 3 3.5 4 4.5 5 5.5 6 6.5 7 7.5 8 8.5 9 9.5 10
# StochasticallyHeated: 1 1 1 1 1 1 1 1 1 1 1 1 1 0 0 0 0 0 0 0 0
# Temperature: -1
# Wavelength  CExt  CAbs  CSca  Albedo G EqEm1 StEm1 EqEm2 StEm2 EqEm3 StEm3 EqEm4 StEm4 EqEm5 StEm5 EqEm6 StEm6 EqEm7 StEm7 EqEm8 StEm8 EqEm9 StEm9 EqEm10 StEm10 EqEm11 StEm11 EqEm12 StEm12 EqEm13 StEm13 EqEm14 StEm14 EqEm15 StEm15 EqEm16 StEm16 EqEm17 StEm17 EqEm18 StEm18 EqEm19 StEm19 EqEm20 StEm20 EqEm21 StEm21
0.05 2.95502e-12 2.36079e-12 5.94225e-13 0.20109 0.0438165 0 0 0 0 0 0 0 0 0 0 0 0 0 0 0 0 0 0 0 0 0 0 0 0 0 0 0 0 0 0 0 0 0 0 0 0 0 0 0 0 0 0
0.0525665 3.26617e-12 2.60937e-12 6.56794e-13 0.20109 0.0484302 0 0 0 0 0 0 0 0 0 0 0 0 0 0 0 0 0 0 0 0 0 0 0 0 0 0 0 0 0 0 0 0 0 0 0 0 0 0 0 0 0 0
0.0552647 3.61008e-12 2.88413e-12 7.25952e-13 0.20109 0.0535296 0 0 0 0 0 0 0 0 0 0 0 0 0 0 0 0 0 0 0 0 0 0 0 0 0 0 0 0 0 0 0 0 0 0 0 0 0 0 0 0 0 0
0.0581015 3.9902e-12 3.18781e-12 8.02391e-13 0.20109 0.059166 0 0 0 0 0 0 0 0 0 0 0 0 0 0 0 0 0 0 0 0 0 0 0 0 0 0 0 0 0 0 0 0 0 0 0 0 0 0 0 0 0 0
0.0610839 4.41035e-12 3.52347e-12 8.86878e-13 0.20109 0.0653959 0 0 0 0 0 0 0 0 0 0 0 0 0 0 0 0 0 0 0 0 0 0 0 0 0 0 0 0 0 0 0 0 0 0 0 0 0 0 0 0 0 0
0.0642193 4.87474e-12 3.89448e-12 9.80262e-13 0.20109 0.0722818 0 0 0 0 0 0 0 0 0 0 0 0 0 0 0 0 0 0 0 0 0 0 0 0 0 0 0 0 0 0 0 0 0 0 0 0 0 0 0 0 0 0
0.0675157 5.38803e-12 4.30455e-12 1.08348e-12 0.20109 0.0798927 0 0 0 0 0 0 0 0 0 0 0 0 0 0 0 0 0 0 0 0 0 0 0 0 0 0 0 0 0 0 0 0 0 0 0 0 0 0 0 0 0 0
0.0709813 5.95536e-12 4.75779e-12 1.19756e-12 0.20109 0.088305 0 0 0 0 0 0 0 0 0 0 0 0 0 0 0 0 0 0 0 0 0 0 0 0 0 0 0 0 0 0 0 0 0 0 0 0 0 0 0 0 0 0
0.0746248 6.58243e-12 5.25877e-12 1.32366e-12 0.20109 0.0976031 0 0 0 0 0 0 0 0 0 0 0 0 0 0 0 0 0 0 0 0 0 0 0 0 0 0 0 0 0 0 0 0 0 0 0 0 0 0 0 0 0 0
0.0784553 7.27552e-12 5.81249e-12 1.46304e-12 0.20109 0.10788 0 0 0 0 0 0 0 0 0 0 0 0 0 0 0 0 0 0 0 0 0 0 0 0 0 0 0 0 0 0 0 0 0 0 0 0 0 0 0 0 0 0
0.0824824 8.0416e-12 6.42451e-12 1.61709e-12 0.20109 0.119239 0 0 0 0 0 0 0 0 0 0 0 0 0 0 0 0 0 0 0 0 0 0 0 0 0 0 0 0 0 0 0 0 0 0 0 0 0 0 0 0 0 0
0.0867162 8.88835e-12 7.10099e-12 1.78736e-12 0.20109 0.131795 0 0 0 0 0 0 0 0 0 0 0 0 0 0 0 0 0 0 0 0 0 0 0 0 0 0 0 0 0 0 0 0 0 0 0 0 0 0 0 0 0 0
0.0911674 9.82425e-12 7.84869e-12 1.97556e-12 0.20109 0.145672 0 0 0 0 0 0 0 0 0 0 0 0 0 0 0 0 0 0 0 0 0 0 0 0 0 0 0 0 0 0 0 0 0 0 0 0 0 0 0 0 0 0
0.095847 1.08587e-11 8.67512e-12 2.18358e-12 0.20109 0.161011 0 0 0 0 0 0 0 0 0 0 0 0 0 0 0 0 0 0 0 0 0 0 0 0 0 0 0 0 0 0 0 0 0 0 0 0 0 0 0 0 0 0
0.100767 1.17573e-11 9.40236e-12 2.35492e-12 0.200295 0.173505 0 0 0 0 0 0 0 0 0 0 0 0 0 0 0 0 0 0 0 0 0 0 0 0 0 0 0 0 0 0 0 0 0 0 0 0 0 0 0 0 0 0
0.105939 1.12797e-11 9.07251e-12 2.20723e-12 0.195681 0.164574 0 0 0 0 0 0 0 0 0 0 0 0 0 0 0 0 0 0 0 0 0 0 0 0 0 0 0 0 0 0 0 0 0 0 0 0 0 0 0 0 0 0
0.111377 1.0609e-11 8.57838e-12 2.0306e-12 0.191404 0.15439 0 0 0 0 0 0 0 0 0 0 0 0 0 0 0 0 0 0 0 0 0 0 0 0 0 0 0 0 0 0 0 0 0 0 0 0 0 0 0 0 0 0
0.117094 9.78481e-12 7.94318e-12 1.84163e-12 0.188213 0.143815 0 0 0 0 0 0 0 0 0 0 0 0 0 0 0 0 0 0 0 0 0 0 0 0 0 0 0 0 0 0 0 0 0 0 0 0 0 0 0 0 0 0
0.123105 8.73344e-12 7.10648e-12 1.62697e-12 0.186291 0.133585 0 0 0 0 0 0 0 0 0 0 0 0 0 0 0 0 0 0 0 0 0 0 0 0 0 0 0 0 0 0 0 0 0 0 0 0 0 0 0 0 0 0
0.129424 7.55834e-12 6.16563e-12 1.3927e-12 0.18426 0.124078 0 0 0 0 0 0 0 0 0 0 0 0 0 0 0 0 0 0 0 0 0 0 0 0 0 0 0 0 0 0 0 0 0 0 0 0 0 0 0 0 0 0
0.136067 6.39714e-12 5.20112e-12 1.19601e-12 0.186961 0.115632 0 0 0 0 0 0 0 0 0 0 0 0 0 0 0 0 0 0 0 0 0 0 0 0 0 0 0 0 0 0 0 0 0 0 0 0 0 0 0 0 0 0
0.143051 5.04036e-12 4.04877e-12 9.9159e-13 0.19673 0.109312 0 0 0 0 0 0 0 0 0 0 0 0 0 0 0 0 0 0 0 0 0 0 0 0 0 0 0 0 0 0 0 0 0 0 0 0 0 0 0 0 0 0
0.150394 3.64148e-12 2.86085e-12 7.80631e-13 0.214372 0.104122 0 0 0 0 0 0 0 0 0 0 0 0 0 0 0 0 0 0 0 0 0 0 0 0 0 0 0 0 0 0 0 0 0 0 0 0 0 0 0 0 0 0
0.158114 2.45263e-12 1.86672e-12 5.85917e-13 0.238893 0.0948092 0 0 0 0 0 0 0 0 0 0 0 0 0 0 0 0 0 0 0 0 0 0 0 0 0 0 0 0 0 0 0 0 0 0 0 0 0 0 0 0 0 0
0.16623 1.61505e-12 1.18722e-12 4.27827e-13 0.2649 0.0836748 0 0 0 0 0 0 0 0 0 0 0 0 0 0 0 0 0 0 0 0 0 0 0 0 0 0 0 0 0 0 0 0 0 0 0 0 0 0 0 0 0 0
0.174762 1.13712e-12 8.23261e-13 3.13858e-13 0.276012 0.0733915 0 0 0 0 0 0 0 0 0 0 0 0 0 0 0 0 0 0 0 0 0 0 0 0 0 0 0 0 0 0 0 0 0 0 0 0 0 0 0 0 0 0
0.183733 8.03469e-13 5.7227e-13 2.31199e-13 0.287751 0.0644978 0 0 0 0 0 0 0 0 0 0 0 0 0 0 0 0 0 0 0 0 0 0 0 0 0 0 0 0 0 0 0 0 0 0 0 0 0 0 0 0 0 0
0.193164 5.95553e-13 4.23498e-13 1.72055e-13 0.288899 0.0569486 0 0 0 0 0 0 0 0 0 0 0 0 0 0 0 0 0 0 0 0 0 0 0 0 0 0 0 0 0 0 0 0 0 0 0 0 0 0 0 0 0 0
0.203079 5.13952e-13 3.84048e-13 1.29904e-13 0.252756 0.0504903 0 0 0 0 0 0 0 0 0 0 0 0 0 0 0 0 0 0 0 0 0 0 0 0 0 0 0 0 0 0 0 0 0 0 0 0 0 0 0 0 0 0
0.213503 4.62302e-13 3.6239e-13 9.99116e-14 0.216118 0.0448942 0 0 0 0 0 0 0 0 0 0 0 0 0 0 0 0 0 0 0 0 0 0 0 0 0 0 0 0 0 0 0 0 0 0 0 0 0 0 0 0 0 0
0.224463 4.1661e-13 3.38318e-13 7.82919e-14 0.187926 0.0400534 0 0 0 0 0 0 0 0 0 0 0 0 0 0 0 0 0 0 0 0 0 0 0 0 0 0 0 0 0 0 0 0 0 0 0 0 0 0 0 0 0 0
0.235984 3.81309e-13 3.19531e-13 6.17777e-14 0.162015 0.0358662 0 0 0 0 0 0 0 0 0 0 0 0 0 0 0 0 0 0 0 0 0 0 0 0 0 0 0 0 0 0 0 0 0 0 0 0 0 0 0 0 0 0
0.248097 3.52116e-13 3.03092e-13 4.9024e-14 0.139227 0.0322075 0 0 0 0 0 0 0 0 0 0 0 0 0 0 0 0 0 0 0 0 0 0 0 0 0 0 0 0 0 0 0 0 0 0 0 0 0 0 0 0 0 0
0.260832 3.28132e-13 2.8897e-13 3.91619e-14 0.119348 0.0289701 0 0 0 0 0 0 0 0 0 0 0 0 0 0 0 0 0 0 0 0 0 0 0 0 0 0 0 0 0 0 0 0 0 0 0 0 0 0 0 0 0 0
0.274221 3.06841e-13 2.75433e-13 3.1408e-14 0.102359 0.0260848 0 0 0 0 0 0 0 0 0 0 0 0 0 0 0 0 0 0 0 0 0 0 0 0 0 0 0 0 0 0 0 0 0 0 0 0 0 0 0 0 0 0
0.288297 2.87581e-13 2.62299e-13 2.52827e-14 0.087915 0.0235115 0 0 0 0 0 0 0 0 0 0 0 0 0 0 0 0 0 0 0 0 0 0 0 0 0 0 0 0 0 0 0 0 0 0 0 0 0 0 0 0 0 0
0.303095 2.70012e-13 2.49609e-13 2.04034e-14 0.0755647 0.0212078 0 0 0 0 0 0 0 0 0 0 0 0 0 0 0 0 0 0 0 0 0 0 0 0 0 0 0 0 0 0 0 0 0 0 0 0 0 0 0 0 0 0
0.318653 2.53857e-13 2.3735e-13 1.65073e-14 0.0650259 0.0191379 0 0 0 0 0 0 0 0 0 0 0 0 0 0 0 0 0 0 0 0 0 0 0 0 0 0 0 0 0 0 0 0 0 0 0 0 0 0 0 0 0 0
0.335009 2.38969e-13 2.25586e-13 1.33833e-14 0.0560044 0.0172769 0 0 0 0 0 0 0 0 0 0 0 0 0 0 0 0 0 0 0 0 0 0 0 0 0 0 0 0 0 0 0 0 0 0 0 0 0 0 0 0 0 0
0.352205 2.25211e-13 2.14343e-13 1.0868e-14 0.048257 0.015603 0 0 0 0 0 0 0 0 0 0 0 0 0 0 0 0 0 0 0 0 0 0 0 0 0 0 0 0 0 0 0 0 0 0 0 0 0 0 0 0 0 0
0.370284 2.12428e-13 2.03585e-13 8.84255e-15 0.0416262 0.0140956 0 0 0 0 0 0 0 0 0 0 0 0 0 0 0 0 0 0 0 0 0 0 0 0 0 0 0 0 0 0 0 0 0 0 0 0 0 0 0 0 0 0
0.389291 2.00544e-13 1.93343e-13 7.20055e-15 0.0359051 0.0127372 0 0 0 0 0 0 0 0 0 0 0 0 0 0 0 0 0 0 0 0 0 0 0 0 0 0 0 0 0 0 0 0 0 0 0 0 0 0 0 0 0 0
0.409273 1.89449e-13 1.83578e-13 5.87172e-15 0.0309936 0.0115118 0 0 0 0 0 0 0 0 0 0 0 0 0 0 0 0 0 0 0 0 0 0 0 0 0 0 0 0 0 0 0 0 0 0 0 0 0 0 0 0 0 0
0.430281 1.79103e-13 1.74312e-13 4.79158e-15 0.0267532 0.0104052 0 0 0 0 0 0 0 0 0 0 0 0 0 0 0 0 0 0 0 0 0 0 0 0 0 0 0 0 0 0 0 0 0 0 0 0 0 0 0 0 0 0
0.452368 1.69405e-13 1.65492e-13 3.91312e-15 0.0230992 0.00940879 0 0 0 0 0 0 0 0 0 0 0 0 0 0 0 0 0 0 0 0 0 0 0 0 0 0 0 0 0 0 0 0 0 0 0 0 0 0 0 0 0 0
0.475588 1.60312e-13 1.57114e-13 3.1975e-15 0.0199455 0.00850787 0 0 0 0 0 0 0 0 0 0 0 0 0 0 0 0 0 0 0 0 0 0 0 0 0 0 0 0 0 0 0 0 0 0 0 0 0 0 0 0 0 0
0.5 1.51774e-13 1.4916e-13 2.61437e-15 0.0172254 0.00769339 0 0 0 0 0 0 0 0 0 0 0 0 0 0 0 0 0 0 0 0 0 0 0 0 0 0 0 0 0 0 0 0 0 0 0 0 0 0 0 0 0 0
0.525665 1.43747e-13 1.41608e-13 2.13916e-15 0.0148814 0.00695723 0 0 0 0 0 0 0 0 0 0 0 0 0 0 0 0 0 0 0 0 0 0 0 0 0 0 0 0 0 0 0 0 0 0 0 0 0 0 0 0 0 0
0.552648 1.36177e-13 1.34425e-13 1.7513e-15 0.0128605 0.00629237 0 0 0 0 0 0 0 0 0 0 0 0 0 0 0 0 0 0 0 0 0 0 0 0 0 0 0 0 0 0 0 0 0 0 0 0 0 0 0 0 0 0
0.581015 1.29079e-13 1.27646e-13 1.43334e-15 0.0111044 0.00569248 0 0 0 0 0 0 0 0 0 0 0 0 0 0 0 0 0 0 0 0 0 0 0 0 0 0 0 0 0 0 0 0 0 0 0 0 0 0 0 0 0 0
0.610839 1.22384e-13 1.2121e-13 1.17335e-15 0.00958749 0.0051493 0 0 0 0 0 0 0 0 0 0 0 0 0 0 0 0 0 0 0 0 0 0 0 0 0 0 0 0 0 0 0 0 0 0 0 0 0 0 0 0 0 0
0.642193 1.16016e-13 1.15055e-13 9.61102e-16 0.00828424 0.00465757 0 0 0 0 0 0 0 0 0 0 0 0 0 0 0 0 0 0 0 0 0 0 0 0 0 0 0 0 0 0 0 0 0 0 0 0 0 0 0 0 0 0
0.675157 1.10035e-13 1.09248e-13 7.87225e-16 0.00715429 0.00421384 0 0 0 0 0 0 0 0 0 0 0 0 0 0 0 0 0 0 0 0 0 0 0 0 0 0 0 0 0 0 0 0 0 0 0 0 0 0 0 0 0 0
0.709813 1.04419e-13 1.03774e-13 6.44717e-16 0.00617432 0.00381247 0 0 0 0 0 0 0 0 0 0 0 0 0 0 0 0 0 0 0 0 0 0 0 0 0 0 0 0 0 0 0 0 0 0 0 0 0 0 0 0 0 0
0.746248 9.91249e-14 9.85968e-14 5.28114e-16 0.00532777 0.00344908 0 0 0 0 0 0 0 0 0 0 0 0 0 0 0 0 0 0 0 0 0 0 0 0 0 0 0 0 0 0 0 0 0 0 0 0 0 0 0 0 0 0
0.784553 9.41235e-14 9.3691e-14 4.32471e-16 0.00459472 0.00312008 0 0 0 0 0 0 0 0 0 0 0 0 0 0 0 0 0 0 0 0 0 0 0 0 0 0 0 0 0 0 0 0 0 0 0 0 0 0 0 0 0 0
0.824824 8.93974e-14 8.90433e-14 3.54189e-16 0.00396196 0.0028231 0 0 0 0 0 0 0 0 0 0 0 0 0 0 0 0 0 0 0 0 0 0 0 0 0 0 0 0 0 0 0 0 0 0 0 0 0 0 0 0 0 0
0.867162 8.49051e-14 8.4615e-14 2.9006e-16 0.00341629 0.00255451 0 0 0 0 0 0 0 0 0 0 0 0 0 0 0 0 0 0 0 0 0 0 0 0 0 0 0 0 0 0 0 0 0 0 0 0 0 0 0 0 0 0
0.911674 8.07162e-14 8.04788e-14 2.37424e-16 0.00294147 0.00231131 0 0 0 0 0 0 0 0 0 0 0 0 0 0 0 0 0 0 0 0 0 0 0 0 0 0 0 0 0 0 0 0 0 0 0 0 0 0 0 0 0 0
0.95847 7.67919e-14 7.65977e-14 1.94187e-16 0.00252874 0.0020912 0 0 0 0 0 0 0 0 0 0 0 0 0 0 0 0 0 0 0 0 0 0 0 0 0 0 0 0 0 0 0 0 0 0 0 0 0 0 0 0 0 0
1.00767 7.30813e-14 7.29229e-14 1.58431e-16 0.00216787 0.0018922 0 0 0 0 0 0 0 0 0 0 0 0 0 0 0 0 0 0 0 0 0 0 0 0 0 0 0 0 0 0 0 0 0 0 0 0 0 0 0 0 0 0
1.05939 7.11156e-14 7.09863e-14 1.2929e-16 0.00181802 0.00171221 0 0 0 0 0 0 0 0 0 0 0 0 0 0 0 0 0 0 0 0 0 0 0 0 0 0 0 0 0 0 0 0 0 0 0 0 0 0 0 0 0 0
1.11377 6.9475e-14 6.93694e-14 1.05666e-16 0.00152092 0.00154923 0 0 0 0 0 0 0 0 0 0 0 0 0 0 0 0 0 0 0 0 0 0 0 0 0 0 0 0 0 0 0 0 0 0 0 0 0 0 0 0 0 0
1.17094 6.81363e-14 6.80498e-14 8.65305e-17 0.00126996 0.00140162 0 0 0 0 0 0 0 0 0 0 0 0 0 0 0 0 0 0 0 0 0 0 0 0 0 0 0 0 0 0 0 0 0 0 0 0 0 0 0 0 0 0
1.23105 6.69507e-14 6.68799e-14 7.08372e-17 0.00105805 0.00126809 0 0 0 0 0 0 0 0 0 0 0 0 0 0 0 0 0 0 0 0 0 0 0 0 0 0 0 0 0 0 0 0 0 0 0 0 0 0 0 0 0 0
1.29424 6.56658e-14 6.56077e-14 5.80229e-17 0.00088361 0.00114734 0 0 0 0 0 0 0 0 0 0 0 0 0 0 0 0 0 0 0 0 0 0 0 0 0 0 0 0 0 0 0 0 0 0 0 0 0 0 0 0 0 0
1.36067 6.42337e-14 6.4186e-14 4.77293e-17 0.000743058 0.00103815 0 0 0 0 0 0 0 0 0 0 0 0 0 0 0 0 0 0 0 0 0 0 0 0 0 0 0 0 0 0 0 0 0 0 0 0 0 0 0 0 0 0
1.43051 6.27059e-14 6.26671e-14 3.88336e-17 0.000619298 0.000939135 0 0 0 0 0 0 0 0 0 0 0 0 0 0 0 0 0 0 0 0 0 0 0 0 0 0 0 0 0 0 0 0 0 0 0 0 0 0 0 0 0 0
1.50394 6.11358e-14 6.11041e-14 3.17418e-17 0.000519202 0.000849602 0 0 0 0 0 0 0 0 0 0 0 0 0 0 0 0 0 0 0 0 0 0 0 0 0 0 0 0 0 0 0 0 0 0 0 0 0 0 0 0 0 0
1.58114 5.96207e-14 5.95947e-14 2.59732e-17 0.000435641 0.000768705 0 0 0 0 0 0 0 0 0 0 0 0 0 0 0 0 0 0 0 0 0 0 0 0 0 0 0 0 0 0 0 0 0 0 0 0 0 0 0 0 0 0
1.6623 5.82388e-14 5.82175e-14 2.12514e-17 0.000364901 0.000695377 0 0 0 0 0 0 0 0 0 0 0 0 0 0 0 0 0 0 0 0 0 0 0 0 0 0 0 0 0 0 0 0 0 0 0 0 0 0 0 0 0 0
1.74763 5.70679e-14 5.70505e-14 1.73856e-17 0.000304647 0.000628996 0 0 0 0 0 0 0 0 0 0 0 0 0 0 0 0 0 0 0 0 0 0 0 0 0 0 0 0 0 0 0 0 0 0 0 0 0 0 0 0 0 0
1.83733 5.61914e-14 5.61772e-14 1.42169e-17 0.000253008 0.000568876 0 0 0 0 0 0 0 0 0 0 0 0 0 0 0 0 0 0 0 0 0 0 0 0 0 0 0 0 0 0 0 0 0 0 0 0 0 0 0 0 0 0
1.93164 5.56485e-14 5.56369e-14 1.16219e-17 0.000208845 0.000514565 0 0 0 0 0 0 0 0 0 0 0 0 0 0 0 0 0 0 0 0 0 0 0 0 0 0 0 0 0 0 0 0 0 0 0 0 0 0 0 0 0 0
2.03079 5.54358e-14 5.54263e-14 9.50582e-18 0.000171474 0.000465428 0 0 0 0 0 0 0 0 0 0 0 0 0 0 0 0 0 0 0 0 0 0 0 0 0 0 0 0 0 0 0 0 0 0 0 0 0 0 0 0 0 0
2.13503 5.54736e-14 5.54658e-14 7.78244e-18 0.000140291 0.000420901 0 0 0 0 0 0 0 0 0 0 0 0 0 0 0 0 0 0 0 0 0 0 0 0 0 0 0 0 0 0 0 0 0 0 0 0 0 0 0 0 0 0
2.24463 5.55784e-14 5.5572e-14 6.37715e-18 0.000114741 0.00038057 0 0 0 0 0 0 0 0 0 0 0 0 0 0 0 0 0 0 0 0 0 0 0 0 0 0 0 0 0 0 0 0 0 0 0 0 0 0 0 0 0 0
2.35984 5.56996e-14 5.56944e-14 5.22869e-18 9.3873e-05 0.000344139 0 0 0 0 0 0 0 0 0 0 0 0 0 0 0 0 0 0 0 0 0 0 0 0 0 0 0 0 0 0 0 0 0 0 0 0 0 0 0 0 0 0
2.48097 5.5908e-14 5.59037e-14 4.28859e-18 7.6708e-05 0.000311128 0 0 0 0 0 0 0 0 0 0 0 0 0 0 0 0 0 0 0 0 0 0 0 0 0 0 0 0 0 0 0 0 0 0 0 0 0 0 0 0 0 0
2.60832 5.62139e-14 5.62103e-14 3.51969e-18 6.26125e-05 0.000281249 0 0 0 0 0 0 0 0 0 0 0 0 0 0 0 0 0 0 0 0 0 0 0 0 0 0 0 0 0 0 0 0 0 0 0 0 0 0 0 0 0 0
2.74221 5.66893e-14 5.66864e-14 2.89089e-18 5.09953e-05 0.000254214 0 0 0 0 0 0 0 0 0 0 0 0 0 0 0 0 0 0 0 0 0 0 0 0 0 0 0 0 0 0 0 0 0 0 0 0 0 0 0 0 0 0
2.88297 5.73443e-14 5.73419e-14 2.37843e-18 4.14764e-05 0.000229732 0 0 0 0 0 0 0 0 0 0 0 0 0 0 0 0 0 0 0 0 0 0 0 0 0 0 0 0 0 0 0 0 0 0 0 0 0 0 0 0 0 0
3.03095 5.81638e-14 5.81619e-14 1.96431e-18 3.3772e-05 0.000207592 0 0 0 0 0 0 0 0 0 0 0 0 0 0 0 0 0 0 0 0 0 0 0 0 0 0 0 0 0 0 0 0 0 0 0 0 0 0 0 0 0 0
3.18653 5.84407e-14 5.84391e-14 1.62613e-18 2.78252e-05 0.000187548 0 0 0 0 0 0 0 0 0 0 0 0 0 0 0 0 0 0 0 0 0 0 0 0 0 0 0 0 0 0 0 0 0 0 0 0 0 0 0 0 0 0
3.35009 5.99162e-14 5.99149e-14 1.32955e-18 2.21902e-05 0.000169394 0 0 0 0 0 0 0 0 0 0 0 0 0 0 0 0 0 0 0 0 0 0 0 0 0 0 0 0 0 0 0 0 0 0 0 0 0 0 0 0 0 0
3.52205 5.97007e-14 5.96995e-14 1.15689e-18 1.93782e-05 0.000152959 0 0 0 0 0 0 0 0 0 0 0 0 0 0 0 0 0 0 0 0 0 0 0 0 0 0 0 0 0 0 0 0 0 0 0 0 0 0 0 0 0 0
3.70284 5.5727e-14 5.5726e-14 9.41115e-19 1.6888e-05 0.000138096 0 0 0 0 0 0 0 0 0 0 0 0 0 0 0 0 0 0 0 0 0 0 0 0 0 0 0 0 0 0 0 0 0 0 0 0 0 0 0 0 0 0
3.89291 5.45911e-14 5.45903e-14 7.71157e-19 1.41261e-05 0.000124626 0 0 0 0 0 0 0 0 0 0 0 0 0 0 0 0 0 0 0 0 0 0 0 0 0 0 0 0 0 0 0 0 0 0 0 0 0 0 0 0 0 0
4.09273 5.36991e-14 5.36985e-14 6.32346e-19 1.17757e-05 0.00011241 0 0 0 0 0 0 0 0 0 0 0 0 0 0 0 0 0 0 0 0 0 0 0 0 0 0 0 0 0 0 0 0 0 0 0 0 0 0 0 0 0 0
4.30281 5.3053e-14 5.30525e-14 5.18738e-19 9.77773e-06 0.000101341 0 0 0 0 0 0 0 0 0 0 0 0 0 0 0 0 0 0 0 0 0 0 0 0 0 0 0 0 0 0 0 0 0 0 0 0 0 0 0 0 0 0
4.52368 5.26754e-14 5.2675e-14 4.25983e-19 8.08695e-06 9.13245e-05 0 0 0 0 0 0 0 0 0 0 0 0 0 0 0 0 0 0 0 0 0 0 0 0 0 0 0 0 0 0 0 0 0 0 0 0 0 0 0 0 0 0
4.75588 5.2494e-14 5.24937e-14 3.50402e-19 6.67509e-06 8.22369e-05 0 0 0 0 0 0 0 0 0 0 0 0 0 0 0 0 0 0 0 0 0 0 0 0 0 0 0 0 0 0 0 0 0 0 0 0 0 0 0 0 0 0
5 5.23626e-14 5.23623e-14 2.88817e-19 5.51572e-06 7.39737e-05 0 0 0 0 0 0 0 0 0 0 0 0 0 0 0 0 0 0 0 0 0 0 0 0 0 0 0 0 0 0 0 0 0 0 0 0 0 0 0 0 0 0
5.25665 5.21548e-14 5.21546e-14 2.38315e-19 4.56937e-06 6.64648e-05 0 0 0 0 0 0 0 0 0 0 0 0 0 0 0 0 0 0 0 1.4013e-45 0 2.8026e-45 0 5.60519e-45 0 1.26117e-44 0 0 0 0 0 0 0 0 0 0 0 0 0 0 0 0
5.52648 5.18779e-14 5.18777e-14 1.9664e-19 3.79044e-06 5.96681e-05 0 0 0 0 0 0 0 0 0 0 0 0 0 1.4013e-45 0 5.60519e-45 0 1.68156e-44 0 4.90454e-44 0 1.28919e-43 0 3.11088e-43 0 7.00649e-43 0 0 0 0 0 0 0 0 0 0 0 0 0 0 1.4013e-45 0
5.81015 5.1494e-14 5.14939e-14 1.62062e-19 3.14719e-06 5.34731e-05 0 0 0 0 0 0 0 0 0 1.4013e-45 0 1.26117e-44 0 6.72623e-44 0 2.57839e-43 0 8.40779e-43 0 2.3794e-42 0 6.08724e-42 0 1.43101e-41 0 3.13821e-41 0 0 0 0 1.4013e-45 0 2.8026e-45 0 7.00649e-45 0 1.68156e-44 0 3.78351e-44 0 8.40779e-44 0
6.10839 5.10619e-14 5.10618e-14 1.33297e-19 2.6105e-06 4.78423e-05 0 0 0 0 0 0 0 9.80909e-45 0 9.52883e-44 0 5.92749e-43 0 3.08005e-42 0 1.12552e-41 0 3.54276e-41 0 9.72515e-41 0 2.41741e-40 0 5.5354e-40 2.8026e-45 1.18474e-39 8.40779e-45 0 2.8026e-44 0 8.12753e-44 0 2.22806e-43 0 5.70328e-43 0 1.37748e-42 0 3.08005e-42 0 6.53425e-42 0
6.42193 5.05679e-14 5.05677e-14 1.09236e-19 2.16019e-06 4.27051e-05 0 0 0 0 0 2.10195e-44 0 4.38606e-43 0 4.06797e-42 0 2.39804e-41 0 1.18225e-40 0 4.15755e-40 0 1.26394e-39 2.8026e-45 3.36499e-39 1.26117e-44 8.13442e-39 5.46506e-44 1.8156e-38 2.11596e-43 3.79492e-38 7.18866e-43 0 2.2687e-42 0 6.27361e-42 0 1.62957e-41 0 3.98894e-41 0 9.22741e-41 0 1.98474e-40 0 4.05803e-40 0
6.75157 5.0212e-14 5.02119e-14 8.88134e-20 1.76877e-06 3.79708e-05 0 0 0 7.00649e-45 0 8.87022e-43 0 1.69753e-41 0 1.47749e-40 0 8.2706e-40 0 3.87336e-39 4.2039e-45 1.31202e-38 3.22299e-44 3.85571e-38 2.0459e-43 9.96328e-38 1.00333e-42 2.34393e-37 4.28377e-42 5.10285e-37 1.54073e-41 1.04223e-36 4.92612e-41 0 1.46843e-40 0 3.86482e-40 0 9.5826e-40 0 2.24526e-39 0 4.98552e-39 0 1.03299e-38 0 2.03959e-38 0
7.09813 4.9402e-14 4.94019e-14 7.21672e-20 1.46081e-06 3.35127e-05 0 4.2039e-45 0 3.04082e-43 0 3.15208e-41 0 5.55141e-40 0 4.54142e-39 1.4013e-45 2.41734e-38 2.94273e-44 1.07714e-37 3.29305e-43 3.5177e-37 2.52794e-42 1.00018e-36 1.45511e-41 2.51041e-36 6.61357e-41 5.75152e-36 2.6307e-40 1.22208e-35 8.88945e-40 2.44045e-35 2.68534e-39 0 7.58899e-39 0 1.90519e-38 0 4.51895e-38 0 1.0157e-37 0 2.16918e-37 0 4.33744e-37 0 8.28432e-37 0
7.46248 4.87459e-14 4.87459e-14 5.7196e-20 1.17335e-06 2.91733e-05 0 1.59748e-43 0 1.05462e-41 0 9.61836e-40 0 1.56247e-38 4.2039e-45 1.20331e-37 1.44334e-43 6.09836e-37 2.30373e-42 2.5893e-36 2.27305e-41 8.16018e-36 1.57668e-40 2.2467e-35 8.33411e-40 5.48147e-35 3.51791e-39 1.22383e-34 1.3081e-38 2.53952e-34 4.1651e-38 4.96126e-34 1.19209e-37 0 3.20232e-37 0 7.68602e-37 0 1.74778e-36 0 3.77611e-36 0 7.77113e-36 0 1.5022e-35 0 2.77991e-35 0
7.84553 4.80641e-14 4.8064e-14 4.32921e-20 9.00715e-07 2.50339e-05 0 5.32213e-42 0 3.13741e-40 0 2.52685e-38 4.2039e-45 3.79406e-37 3.61535e-43 2.75494e-36 1.02407e-41 1.331e-35 1.424e-40 5.39275e-35 1.25661e-39 1.64152e-34 7.92994e-39 4.38004e-34 3.86438e-38 1.0395e-33 1.52044e-37 2.26317e-33 5.30248e-37 4.58905e-33 1.59553e-36 8.77556e-33 4.33802e-36 0 1.11044e-35 0 2.55368e-35 0 5.57869e-35 0 1.16079e-34 0 2.30617e-34 0 4.31678e-34 0 7.75196e-34 0
8.24824 5.35745e-14 5.35745e-14 3.1851e-20 5.94518e-07 2.15175e-05 0 1.72597e-40 0 9.11385e-39 0 6.50347e-37 3.71344e-43 9.04404e-36 2.72875e-41 6.20094e-35 6.56866e-40 2.85944e-34 8.03235e-39 1.10709e-33 6.37326e-38 3.25771e-33 3.67595e-37 8.43104e-33 1.65805e-36 1.94772e-32 6.10158e-36 4.13775e-32 2.002e-35 8.20345e-32 5.70863e-35 1.53637e-31 1.47812e-34 0 3.61395e-34 0 7.97987e-34 0 1.678e-33 0 3.36882e-33 0 6.4723e-33 0 1.17499e-32 0 2.05056e-32 0
8.67162 6.50706e-14 6.50706e-14 2.76186e-20 4.2444e-07 1.87265e-05 0 5.2824e-39 0 2.50623e-37 6.5861e-44 1.58956e-35 3.02652e-41 2.05133e-34 1.80559e-39 1.32999e-33 3.72115e-38 5.86059e-33 4.02674e-37 2.17117e-32 2.88771e-36 6.18144e-32 1.52899e-35 1.55287e-31 6.40755e-35 3.4944e-31 2.21264e-34 7.24813e-31 6.85075e-34 1.40583e-30 1.85604e-33 2.57997e-30 4.58766e-33 0 1.07376e-32 0 2.281e-32 0 4.62553e-32 0 8.97571e-32 0 1.67033e-31 0 2.94534e-31 0 5.00225e-31 0
9.11674 8.93162e-14 8.93162e-14 3.28524e-20 3.67821e-07 1.59768e-05 0 1.59141e-37 0 6.80372e-36 6.62814e-42 3.84727e-34 2.24555e-39 4.61616e-33 1.09726e-37 2.83414e-32 1.95079e-36 1.19476e-31 1.87927e-35 4.24086e-31 1.2241e-34 1.16916e-30 5.97485e-34 2.85318e-30 2.3347e-33 6.25813e-30 7.58877e-33 1.26816e-29 2.22349e-32 2.4077e-29 5.73787e-32 4.33199e-29 1.35696e-31 0 3.04685e-31 0 6.23868e-31 0 1.22219e-30 0 2.29609e-30 0 4.14528e-30 0 7.10982e-30 0 1.17668e-29 0
9.5847 1.08879e-13 1.08878e-13 4.55668e-20 4.18511e-07 1.42979e-05 0 3.72884e-36 1.4013e-44 1.44055e-34 4.71956e-40 7.2842e-33 1.20301e-37 8.14108e-32 4.86175e-36 4.73963e-31 7.51049e-35 1.91363e-30 6.47761e-34 6.51624e-30 3.85041e-33 1.74096e-29 1.73941e-32 4.13026e-29 6.35926e-32 8.83598e-29 1.95143e-31 1.75033e-28 5.42527e-31 3.25463e-28 1.33671e-30 5.74399e-28 3.0311e-30 0 6.54235e-30 0 1.29354e-29 0 2.45226e-29 0 4.46731e-29 0 7.83582e-29 0 1.30903e-28 0 2.11381e-28 0
