# 0.00017783 0 148 : grain size, compostion index, size index
# Heating and cooling timescale: 7.86655e-05 2.42048e+08
# Ratio of heating to cooling to determine stochastic cutoff: 100
# Equilibrium emission is recorded even for those grains in the stochastic regime.
# Emission spectrum was computed for: 
# Type: IRSF
# Scales: 0.25 0.5 1 1.5 2 2.5 3 3.5 4 4.5 5 5.5 6 6.5 7 7.5 8 8.5 9 9.5 10
# StochasticallyHeated: 0 0 0 0 0 0 0 0 0 0 0 0 0 0 0 0 0 0 0 0 0
# Temperature: -1
# Wavelength  CExt  CAbs  CSca  Albedo G EqEm1 StEm1 EqEm2 StEm2 EqEm3 StEm3 EqEm4 StEm4 EqEm5 StEm5 EqEm6 StEm6 EqEm7 StEm7 EqEm8 StEm8 EqEm9 StEm9 EqEm10 StEm10 EqEm11 StEm11 EqEm12 StEm12 EqEm13 StEm13 EqEm14 StEm14 EqEm15 StEm15 EqEm16 StEm16 EqEm17 StEm17 EqEm18 StEm18 EqEm19 StEm19 EqEm20 StEm20 EqEm21 StEm21
0.05 5.20486e-08 1.91463e-08 3.29024e-08 0.632147 0.00576547 0 0 0 0 0 0 0 0 0 0 0 0 0 0 0 0 0 0 0 0 0 0 0 0 0 0 0 0 0 0 0 0 0 0 0 0 0 0 0 0 0 0
0.0525665 5.75291e-08 2.11623e-08 3.63668e-08 0.632147 0.00637255 0 0 0 0 0 0 0 0 0 0 0 0 0 0 0 0 0 0 0 0 0 0 0 0 0 0 0 0 0 0 0 0 0 0 0 0 0 0 0 0 0 0
0.0552647 6.35866e-08 2.33905e-08 4.01961e-08 0.632147 0.00704355 0 0 0 0 0 0 0 0 0 0 0 0 0 0 0 0 0 0 0 0 0 0 0 0 0 0 0 0 0 0 0 0 0 0 0 0 0 0 0 0 0 0
0.0581015 7.0282e-08 2.58535e-08 4.44285e-08 0.632147 0.0077852 0 0 0 0 0 0 0 0 0 0 0 0 0 0 0 0 0 0 0 0 0 0 0 0 0 0 0 0 0 0 0 0 0 0 0 0 0 0 0 0 0 0
0.0610839 7.76823e-08 2.85757e-08 4.91066e-08 0.632147 0.00860494 0 0 0 0 0 0 0 0 0 0 0 0 0 0 0 0 0 0 0 0 0 0 0 0 0 0 0 0 0 0 0 0 0 0 0 0 0 0 0 0 0 0
0.0642193 8.58619e-08 3.15846e-08 5.42773e-08 0.632147 0.009511 0 0 0 0 0 0 0 0 0 0 0 0 0 0 0 0 0 0 0 0 0 0 0 0 0 0 0 0 0 0 0 0 0 0 0 0 0 0 0 0 0 0
0.0675157 9.49028e-08 3.49103e-08 5.99925e-08 0.632147 0.0105125 0 0 0 0 0 0 0 0 0 0 0 0 0 0 0 0 0 0 0 0 0 0 0 0 0 0 0 0 0 0 0 0 0 0 0 0 0 0 0 0 0 0
0.0709813 1.04896e-07 3.85862e-08 6.63094e-08 0.632147 0.0116194 0 0 0 0 0 0 0 0 0 0 0 0 0 0 0 0 0 0 0 0 0 0 0 0 0 0 0 0 0 0 0 0 0 0 0 0 0 0 0 0 0 0
0.0746248 1.15941e-07 4.26491e-08 7.32914e-08 0.632147 0.0128428 0 0 0 0 0 0 0 0 0 0 0 0 0 0 0 0 0 0 0 0 0 0 0 0 0 0 0 0 0 0 0 0 0 0 0 0 0 0 0 0 0 0
0.0784553 1.28148e-07 4.71398e-08 8.10087e-08 0.632147 0.0141951 0 0 0 0 0 0 0 0 0 0 0 0 0 0 0 0 0 0 0 0 0 0 0 0 0 0 0 0 0 0 0 0 0 0 0 0 0 0 0 0 0 0
0.0824824 1.41642e-07 5.21034e-08 8.95385e-08 0.632147 0.0156898 0 0 0 0 0 0 0 0 0 0 0 0 0 0 0 0 0 0 0 0 0 0 0 0 0 0 0 0 0 0 0 0 0 0 0 0 0 0 0 0 0 0
0.0867162 1.56556e-07 5.75897e-08 9.89665e-08 0.632147 0.0173419 0 0 0 0 0 0 0 0 0 0 0 0 0 0 0 0 0 0 0 0 0 0 0 0 0 0 0 0 0 0 0 0 0 0 0 0 0 0 0 0 0 0
0.0911674 1.73041e-07 6.36536e-08 1.09387e-07 0.632147 0.0191679 0 0 0 0 0 0 0 0 0 0 0 0 0 0 0 0 0 0 0 0 0 0 0 0 0 0 0 0 0 0 0 0 0 0 0 0 0 0 0 0 0 0
0.095847 1.91261e-07 7.0356e-08 1.20905e-07 0.632147 0.0211862 0 0 0 0 0 0 0 0 0 0 0 0 0 0 0 0 0 0 0 0 0 0 0 0 0 0 0 0 0 0 0 0 0 0 0 0 0 0 0 0 0 0
0.100767 2.08185e-07 7.71852e-08 1.31e-07 0.629247 0.0235692 0 0 0 0 0 0 0 0 0 0 0 0 0 0 0 0 0 0 0 0 0 0 0 0 0 0 0 0 0 0 0 0 0 0 0 0 0 0 0 0 0 0
0.105939 2.08155e-07 8.05613e-08 1.27594e-07 0.612975 0.0256046 0 0 0 0 0 0 0 0 0 0 0 0 0 0 0 0 0 0 0 0 0 0 0 0 0 0 0 0 0 0 0 0 0 0 0 0 0 0 0 0 0 0
0.111377 2.08359e-07 8.13685e-08 1.2699e-07 0.609479 0.0289403 0 0 0 0 0 0 0 0 0 0 0 0 0 0 0 0 0 0 0 0 0 0 0 0 0 0 0 0 0 0 0 0 0 0 0 0 0 0 0 0 0 0
0.117094 2.08318e-07 8.4203e-08 1.24115e-07 0.595796 0.0274507 0 0 0 0 0 0 0 0 0 0 0 0 0 0 0 0 0 0 0 0 0 0 0 0 0 0 0 0 0 0 0 0 0 0 0 0 0 0 0 0 0 0
0.123105 2.08424e-07 8.74898e-08 1.20934e-07 0.580232 0.0236555 0 0 0 0 0 0 0 0 0 0 0 0 0 0 0 0 0 0 0 0 0 0 0 0 0 0 0 0 0 0 0 0 0 0 0 0 0 0 0 0 0 0
0.129424 2.08646e-07 9.00207e-08 1.18625e-07 0.568549 0.0199126 0 0 0 0 0 0 0 0 0 0 0 0 0 0 0 0 0 0 0 0 0 0 0 0 0 0 0 0 0 0 0 0 0 0 0 0 0 0 0 0 0 0
0.136067 2.08889e-07 9.20398e-08 1.16849e-07 0.559383 0.0168557 0 0 0 0 0 0 0 0 0 0 0 0 0 0 0 0 0 0 0 0 0 0 0 0 0 0 0 0 0 0 0 0 0 0 0 0 0 0 0 0 0 0
0.143051 2.09104e-07 9.37363e-08 1.15368e-07 0.551724 0.0143876 0 0 0 0 0 0 0 0 0 0 0 0 0 0 0 0 0 0 0 0 0 0 0 0 0 0 0 0 0 0 0 0 0 0 0 0 0 0 0 0 0 0
0.150394 2.09236e-07 9.51264e-08 1.14109e-07 0.545362 0.0122986 0 0 0 0 0 0 0 0 0 0 0 0 0 0 0 0 0 0 0 0 0 0 0 0 0 0 0 0 0 0 0 0 0 0 0 0 0 0 0 0 0 0
0.158114 2.0922e-07 9.60131e-08 1.13206e-07 0.541089 0.01055 0 0 0 0 0 0 0 0 0 0 0 0 0 0 0 0 0 0 0 0 0 0 0 0 0 0 0 0 0 0 0 0 0 0 0 0 0 0 0 0 0 0
0.16623 2.0904e-07 9.59441e-08 1.13096e-07 0.541026 0.00908216 0 0 0 0 0 0 0 0 0 0 0 0 0 0 0 0 0 0 0 0 0 0 0 0 0 0 0 0 0 0 0 0 0 0 0 0 0 0 0 0 0 0
0.174762 2.08911e-07 9.45201e-08 1.14391e-07 0.547559 0.00782097 0 0 0 0 0 0 0 0 0 0 0 0 0 0 0 0 0 0 0 0 0 0 0 0 0 0 0 0 0 0 0 0 0 0 0 0 0 0 0 0 0 0
0.183733 2.09169e-07 9.13498e-08 1.17819e-07 0.563273 0.00667218 0 0 0 0 0 0 0 0 0 0 0 0 0 0 0 0 0 0 0 0 0 0 0 0 0 0 0 0 0 0 0 0 0 0 0 0 0 0 0 0 0 0
0.193164 2.10131e-07 8.60693e-08 1.24062e-07 0.590402 0.00556038 0 0 0 0 0 0 0 0 0 0 0 0 0 0 0 0 0 0 0 0 0 0 0 0 0 0 0 0 0 0 0 0 0 0 0 0 0 0 0 0 0 0
0.203079 2.11686e-07 7.97034e-08 1.31983e-07 0.623483 0.00446034 0 0 0 0 0 0 0 0 0 0 0 0 0 0 0 0 0 0 0 0 0 0 0 0 0 0 0 0 0 0 0 0 0 0 0 0 0 0 0 0 0 0
0.213503 2.13577e-07 7.406e-08 1.39517e-07 0.65324 0.00342932 0 0 0 0 0 0 0 0 0 0 0 0 0 0 0 0 0 0 0 0 0 0 0 0 0 0 0 0 0 0 0 0 0 0 0 0 0 0 0 0 0 0
0.224463 2.15649e-07 7.03677e-08 1.45282e-07 0.673694 0.00254317 0 0 0 0 0 0 0 0 0 0 0 0 0 0 0 0 0 0 0 0 0 0 0 0 0 0 0 0 0 0 0 0 0 0 0 0 0 0 0 0 0 0
0.235984 2.17656e-07 6.87796e-08 1.48877e-07 0.683999 0.00182186 0 0 0 0 0 0 0 0 0 0 0 0 0 0 0 0 0 0 0 0 0 0 0 0 0 0 0 0 0 0 0 0 0 0 0 0 0 0 0 0 0 0
0.248097 2.19213e-07 6.8797e-08 1.50416e-07 0.686163 0.00138916 0 0 0 0 0 0 0 0 0 0 0 0 0 0 0 0 0 0 0 0 0 0 0 0 0 0 0 0 0 0 0 0 0 0 0 0 0 0 0 0 0 0
0.260832 2.19844e-07 7.00329e-08 1.49811e-07 0.681443 0.00141961 0 0 0 0 0 0 0 0 0 0 0 0 0 0 0 0 0 0 0 0 0 0 0 0 0 0 0 0 0 0 0 0 0 0 0 0 0 0 0 0 0 0
0.274221 2.19441e-07 7.23417e-08 1.47099e-07 0.670336 0.00187131 0 0 0 0 0 0 0 0 0 0 0 0 0 0 0 0 0 0 0 0 0 0 0 0 0 0 0 0 0 0 0 0 0 0 0 0 0 0 0 0 0 0
0.288297 2.18661e-07 7.54615e-08 1.432e-07 0.654893 0.00251556 0 0 0 0 0 0 0 0 0 0 0 0 0 0 0 0 0 0 0 0 0 0 0 0 0 0 0 0 0 0 0 0 0 0 0 0 0 0 0 0 0 0
0.303095 2.18212e-07 7.87031e-08 1.39509e-07 0.639328 0.0028362 0 0 0 0 0 0 0 0 0 0 0 0 0 0 0 0 0 0 0 0 0 0 0 0 0 0 0 0 0 0 0 0 0 0 0 0 0 0 0 0 0 0
0.318653 2.18228e-07 8.14906e-08 1.36737e-07 0.62658 0.00297223 0 0 0 0 0 0 0 0 0 0 0 0 0 0 0 0 0 0 0 0 0 0 0 0 0 0 0 0 0 0 0 0 0 0 0 0 0 0 0 0 0 0
0.335009 2.18571e-07 8.36371e-08 1.34934e-07 0.617346 0.00293231 0 0 0 0 0 0 0 0 0 0 0 0 0 0 0 0 0 0 0 0 0 0 0 0 0 0 0 0 0 0 0 0 0 0 0 0 0 0 0 0 0 0
0.352205 2.19092e-07 8.51845e-08 1.33908e-07 0.611194 0.00278811 0 0 0 0 0 0 0 0 0 0 0 0 0 0 0 0 0 0 0 0 0 0 0 0 0 0 0 0 0 0 0 0 0 0 0 0 0 0 0 0 0 0
0.370284 2.19729e-07 8.62439e-08 1.33485e-07 0.607499 0.00261033 0 0 0 0 0 0 0 0 0 0 0 0 0 0 0 0 0 0 0 0 0 0 0 0 0 0 0 0 0 0 0 0 0 0 0 0 0 0 0 0 0 0
0.389291 2.20425e-07 8.69446e-08 1.3348e-07 0.605559 0.00243645 0 0 0 0 0 0 0 0 0 0 0 0 0 0 0 0 0 0 0 0 0 0 0 0 0 0 0 0 0 0 0 0 0 0 0 0 0 0 0 0 0 0
0.409273 2.21155e-07 8.74242e-08 1.3373e-07 0.604692 0.00226652 0 0 0 0 0 0 0 0 0 0 0 0 0 0 0 0 0 0 0 0 0 0 0 0 0 0 0 0 0 0 0 0 0 0 0 0 0 0 0 0 0 0
0.430281 2.21892e-07 8.77992e-08 1.34093e-07 0.604316 0.00210471 0 0 0 0 0 0 0 0 0 0 0 0 0 0 0 0 0 0 0 0 0 0 0 0 0 0 0 0 0 0 0 0 0 0 0 0 0 0 0 0 0 0
0.452368 2.22636e-07 8.81501e-08 1.34486e-07 0.604062 0.00193723 0 0 0 0 0 0 0 0 0 0 0 0 0 0 0 0 0 0 0 0 0 0 0 0 0 0 0 0 0 0 0 0 0 0 0 0 0 0 0 0 0 0
0.475588 2.23384e-07 8.85217e-08 1.34862e-07 0.603724 0.00177642 0 0 0 0 0 0 0 0 0 0 0 0 0 0 0 0 0 0 0 0 0 0 0 0 0 0 0 0 0 0 0 0 0 0 0 0 0 0 0 0 0 0
0.5 2.24141e-07 8.89316e-08 1.35209e-07 0.603233 0.00162159 0 0 0 0 0 0 0 0 0 0 0 0 0 0 0 0 0 0 0 0 0 0 0 0 0 0 0 0 0 0 0 0 0 0 0 0 0 0 0 0 0 0
0.525665 2.24916e-07 8.93755e-08 1.35541e-07 0.602628 0.0014751 0 0 0 0 0 0 0 0 0 0 0 0 0 0 0 0 0 0 0 0 0 0 0 0 0 0 0 0 0 0 0 0 0 0 0 0 0 0 0 0 0 0
0.552648 2.25721e-07 8.98431e-08 1.35877e-07 0.601972 0.00134175 0 0 0 0 0 0 0 0 0 0 0 0 0 0 0 0 0 0 0 0 0 0 0 0 0 0 0 0 0 0 0 0 0 0 0 0 0 0 0 0 0 0
0.581015 2.26567e-07 9.03185e-08 1.36248e-07 0.60136 0.00121775 0 0 0 0 0 0 0 0 0 0 0 0 0 0 0 0 0 0 0 0 0 0 0 0 0 0 0 0 0 0 0 0 0 0 0 0 0 0 0 0 0 0
0.610839 2.27445e-07 9.07867e-08 1.36658e-07 0.600841 0.00110516 0 0 0 0 0 0 0 0 0 0 0 0 0 0 0 0 0 0 0 0 0 0 0 0 0 0 0 0 0 0 0 0 0 0 0 0 0 0 0 0 0 0
0.642193 2.28363e-07 9.12354e-08 1.37127e-07 0.60048 0.00100302 0 0 0 0 0 0 0 0 0 0 0 0 0 0 0 0 0 0 0 0 0 0 0 0 0 0 0 0 0 0 0 0 0 0 0 0 0 0 0 0 0 0
0.675157 2.29319e-07 9.16571e-08 1.37662e-07 0.600307 0.000910957 0 0 0 0 0 0 0 0 0 0 0 0 0 0 0 0 0 0 0 0 0 0 0 0 0 0 0 0 0 0 0 0 0 0 0 0 0 0 0 0 0 0
0.709813 2.30315e-07 9.20436e-08 1.38271e-07 0.600358 0.00082817 0 0 0 0 0 0 0 0 0 0 0 0 0 0 0 0 0 0 0 0 0 0 0 0 0 0 0 0 0 0 0 0 0 0 0 0 0 0 0 0 0 0
0.746248 2.31353e-07 9.23933e-08 1.38959e-07 0.600639 0.000754183 0 0 0 0 0 0 0 0 0 0 0 0 0 0 0 0 0 0 0 0 0 0 0 0 0 0 0 0 0 0 0 0 0 0 0 0 0 0 0 0 0 0
0.784553 2.32419e-07 9.27047e-08 1.39715e-07 0.601132 0.000686995 0 0 0 0 0 0 0 0 0 0 0 0 0 0 0 0 0 0 0 0 0 0 0 0 0 0 0 0 0 0 0 0 0 0 0 0 0 0 0 0 0 0
0.824824 2.3352e-07 9.29798e-08 1.40541e-07 0.601835 0.000626788 0 0 0 0 0 0 0 0 0 0 0 0 0 0 0 0 0 0 0 0 0 0 0 0 0 0 0 0 0 0 0 0 0 0 0 0 0 0 0 0 0 0
0.867162 2.34633e-07 9.32188e-08 1.41414e-07 0.602704 0.000572518 0 0 0 0 0 0 0 0 0 0 0 0 0 0 0 0 0 0 0 0 0 0 0 0 0 0 0 0 0 0 0 0 0 0 0 0 0 0 0 0 0 0
0.911674 2.35771e-07 9.34243e-08 1.42347e-07 0.60375 0.000523427 0 0 0 0 0 0 0 0 0 0 0 0 0 0 0 0 0 0 0 0 0 0 0 0 0 0 0 0 0 0 0 0 0 0 0 0 0 0 0 0 0 0
0.95847 2.3692e-07 9.36014e-08 1.43318e-07 0.604924 0.00047944 0 0 0 0 0 0 0 0 0 0 0 0 0 0 0 0 0 0 0 0 0 0 0 0 0 0 0 0 0 0 0 0 0 0 0 0 0 0 0 0 0 0
1.00767 2.38073e-07 9.37539e-08 1.4432e-07 0.606198 0.0004395 0 0 0 0 0 0 0 0 0 0 0 0 0 0 0 0 0 0 0 0 0 0 0 0 0 0 0 0 0 0 0 0 0 0 0 0 0 0 0 0 0 0
1.05939 2.39222e-07 9.38819e-08 1.4534e-07 0.607554 0.000403275 0 0 0 0 0 0 0 0 0 0 0 0 0 0 0 0 0 0 0 0 0 0 0 0 0 0 0 0 0 0 0 0 0 0 0 0 0 0 0 0 0 0
1.11377 2.40389e-07 9.39962e-08 1.46393e-07 0.608983 0.000370298 0 0 0 0 0 0 0 0 0 0 0 0 0 0 0 0 0 0 0 0 0 0 0 0 0 0 0 0 0 0 0 0 0 0 0 0 0 0 0 0 0 0
1.17094 2.41532e-07 9.40905e-08 1.47442e-07 0.610443 0.000339515 0 0 0 0 0 0 0 0 0 0 0 0 0 0 0 0 0 0 0 0 0 0 0 0 0 0 0 0 0 0 0 0 0 0 0 0 0 0 0 0 0 0
1.23105 2.42675e-07 9.41819e-08 1.48493e-07 0.611902 0.000311294 0 0 0 0 0 0 0 0 0 0 0 0 0 0 0 0 0 0 0 0 0 0 0 0 0 0 0 0 0 0 0 0 0 0 0 0 0 0 0 0 0 0
1.29424 2.43799e-07 9.42565e-08 1.49542e-07 0.613384 0.000285362 0 0 0 0 0 0 0 0 0 0 0 0 0 0 0 0 0 0 0 0 0 0 0 0 0 0 0 0 0 0 0 0 0 0 0 0 0 0 0 0 0 0
1.36067 2.44913e-07 9.43388e-08 1.50575e-07 0.614808 0.000261742 0 0 0 0 0 0 0 0 0 0 0 0 0 0 0 0 0 0 0 0 0 0 0 0 0 0 0 0 0 0 0 0 0 0 0 0 0 0 0 0 0 0
1.43051 2.46007e-07 9.44076e-08 1.51599e-07 0.616239 0.000240209 0 0 0 0 0 0 0 0 0 0 0 0 0 0 0 0 0 0 0 0 0 0 0 0 0 0 0 0 0 0 0 0 0 0 0 0 0 0 0 0 0 0
1.50394 2.47098e-07 9.44973e-08 1.52601e-07 0.617572 0.000220279 0 0 0 0 0 0 0 0 0 0 0 0 0 0 0 0 0 0 0 0 0 0 0 0 0 0 0 0 0 0 0 0 0 0 0 0 0 0 0 0 0 0
1.58114 2.48156e-07 9.45811e-08 1.53575e-07 0.618864 0.000201732 0 0 0 0 0 0 0 0 0 0 0 0 0 0 0 0 0 0 0 0 0 0 0 0 0 0 0 0 0 0 0 0 0 0 0 0 0 0 0 0 0 0
1.6623 2.49224e-07 9.46771e-08 1.54547e-07 0.620112 0.000184534 0 0 0 0 0 0 0 0 0 0 0 0 0 0 0 0 0 0 0 0 0 0 0 0 0 0 0 0 0 0 0 0 0 0 0 0 0 0 0 0 0 0
1.74763 2.50283e-07 9.48117e-08 1.55472e-07 0.621183 0.000169005 0 0 0 0 0 0 0 0 0 0 0 0 0 0 0 0 0 0 0 0 0 0 0 0 0 0 0 0 0 0 0 0 0 0 0 0 0 0 0 0 0 0
1.83733 2.51288e-07 9.49244e-08 1.56363e-07 0.622248 0.000154804 0 0 0 0 0 0 0 0 0 0 0 0 0 0 0 0 0 0 0 0 0 0 0 0 0 0 0 0 0 0 0 0 0 0 0 0 0 0 0 0 0 0
1.93164 2.52346e-07 9.50859e-08 1.5726e-07 0.623192 0.000141793 0 0 0 0 0 0 0 0 0 0 0 0 0 0 0 0 0 0 0 0 0 0 0 0 0 0 0 0 0 0 0 0 0 0 0 0 0 0 0 0 0 0
2.03079 2.53406e-07 9.53086e-08 1.58098e-07 0.62389 0.000129725 0 0 0 0 0 0 0 0 0 0 0 0 0 0 0 0 0 0 0 0 0 0 0 0 0 0 0 0 0 0 0 0 0 0 0 0 0 0 0 0 0 0
2.13503 2.54364e-07 9.54884e-08 1.58875e-07 0.624599 0.000118657 0 0 0 0 0 0 0 0 0 0 0 0 0 0 0 0 0 0 0 0 0 0 0 0 0 0 0 0 0 0 0 0 0 0 0 0 0 0 0 0 0 0
2.24463 2.55414e-07 9.57115e-08 1.59703e-07 0.625269 0.000108569 0 0 0 0 0 0 0 0 0 0 0 0 0 0 0 0 0 0 0 0 0 0 0 0 0 0 0 0 0 0 0 0 0 0 0 0 0 0 0 0 0 0
2.35984 2.56543e-07 9.60702e-08 1.60473e-07 0.625521 9.92926e-05 0 0 0 0 0 0 0 0 0 0 0 0 0 0 0 0 0 0 0 0 0 0 0 0 0 0 0 0 0 0 0 0 0 0 0 0 0 0 0 0 0 0
2.48097 2.57551e-07 9.64249e-08 1.61126e-07 0.625608 9.07218e-05 0 0 0 0 0 0 0 0 0 0 0 0 0 0 0 0 0 0 0 0 0 0 0 0 0 0 0 0 0 0 0 0 0 0 0 0 0 0 0 0 0 0
2.60832 2.5846e-07 9.66996e-08 1.61761e-07 0.625863 8.27967e-05 0 0 0 0 0 0 0 0 0 0 0 0 0 0 0 0 0 0 0 0 0 0 0 0 0 0 0 0 0 0 0 0 0 0 0 0 0 0 0 0 0 0
2.74221 2.59591e-07 9.70807e-08 1.6251e-07 0.626024 7.55862e-05 0 0 0 0 0 0 0 0 0 0 0 0 0 0 0 0 0 0 0 0 0 0 0 0 0 0 0 0 0 0 0 0 0 0 0 0 0 0 0 0 0 0
2.88297 2.60894e-07 9.7681e-08 1.63213e-07 0.625592 6.90729e-05 0 0 0 0 0 0 0 0 0 0 0 0 0 0 0 0 0 0 0 0 0 0 0 0 0 0 0 0 0 0 0 0 0 0 0 0 0 0 0 0 0 0
3.03095 2.6202e-07 9.83195e-08 1.63701e-07 0.624764 6.31538e-05 0 0 0 0 0 0 0 0 0 0 0 0 0 0 0 0 0 0 0 0 0 0 0 0 0 0 0 0 0 0 0 0 0 0 0 0 0 0 0 0 0 0
3.18653 2.62856e-07 9.87988e-08 1.64058e-07 0.624134 5.76567e-05 0 0 0 0 0 0 0 0 0 0 0 0 0 0 0 0 0 0 0 0 0 0 0 0 0 0 0 0 0 0 0 0 0 0 0 0 0 0 0 0 0 0
3.35009 2.63765e-07 9.92178e-08 1.64547e-07 0.62384 5.2603e-05 0 0 0 0 0 0 0 0 0 0 0 0 0 0 0 0 0 0 0 0 0 0 0 0 0 0 0 0 0 0 0 0 0 0 0 0 0 0 0 0 0 0
3.52205 2.65139e-07 9.98648e-08 1.65274e-07 0.623349 4.80102e-05 0 0 0 0 0 0 0 0 0 0 0 0 0 0 0 0 0 0 0 0 0 0 0 0 0 0 0 0 0 0 0 0 0 0 0 0 0 0 0 0 0 0
3.70284 2.66819e-07 1.00846e-07 1.65973e-07 0.622043 4.38066e-05 0 0 0 0 0 0 0 0 0 0 0 0 0 0 0 0 0 0 0 0 0 0 0 0 0 0 0 0 0 0 0 0 0 0 0 0 0 0 0 0 0 0
3.89291 2.68327e-07 1.01986e-07 1.66341e-07 0.619919 3.9926e-05 0 0 0 0 0 0 0 0 0 0 0 0 0 0 0 0 0 0 0 0 0 0 0 0 0 0 0 0 0 0 0 0 0 0 0 0 0 0 0 0 0 0
4.09273 2.69233e-07 1.02934e-07 1.66299e-07 0.617676 3.62643e-05 0 0 0 0 0 0 0 0 0 0 0 0 0 0 0 0 0 0 0 0 0 0 0 0 0 0 0 0 0 0 0 0 0 0 0 0 0 0 0 0 0 0
4.30281 2.69709e-07 1.03579e-07 1.6613e-07 0.615961 3.29535e-05 0 0 0 0 0 0 0 0 0 0 0 0 0 0 0 0 0 0 0 0 0 0 0 0 0 0 0 0 0 0 0 0 0 0 0 0 0 0 0 0 0 0
4.52368 2.70389e-07 1.04123e-07 1.66266e-07 0.614915 2.99416e-05 0 0 0 0 0 0 0 0 0 0 0 0 0 0 0 0 0 0 0 0 0 0 0 0 0 0 0 0 0 0 0 0 0 0 0 0 0 0 0 0 0 0
4.75588 2.71774e-07 1.04891e-07 1.66884e-07 0.614052 2.71796e-05 0 0 0 0 0 0 0 0 0 0 0 0 0 0 0 0 0 0 0 0 0 0 0 0 0 0 0 0 0 0 0 0 0 0 0 0 0 0 0 0 0 0
5 2.73959e-07 1.06156e-07 1.67803e-07 0.612512 2.45398e-05 0 0 0 0 0 0 0 0 0 0 0 0 0 0 0 0 0 0 0 0 0 0 0 0 0 0 0 0 0 0 0 0 0 0 0 0 0 0 0 0 0 0
5.25665 2.76447e-07 1.07888e-07 1.68559e-07 0.609732 2.21678e-05 0 0 0 0 0 0 0 0 0 0 0 0 0 0 0 0 0 0 0 0 0 0 0 0 0 0 0 0 0 0 0 0 0 0 0 0 0 0 0 0 0 0
5.52648 2.78565e-07 1.09866e-07 1.687e-07 0.605601 2.00489e-05 0 0 0 0 0 0 0 0 0 0 0 0 0 0 0 0 0 0 0 0 0 0 0 0 0 0 0 0 0 0 0 0 0 0 0 0 0 0 0 0 0 0
5.81015 2.79763e-07 1.11745e-07 1.68018e-07 0.600573 1.8115e-05 0 0 0 0 0 0 0 0 0 0 0 0 0 0 0 0 0 0 0 0 0 0 0 0 0 0 0 0 0 0 0 0 0 0 0 0 0 0 0 0 0 0
6.10839 2.79791e-07 1.13151e-07 1.6664e-07 0.595588 1.63023e-05 0 0 0 0 0 0 0 0 0 0 0 0 0 0 0 0 0 0 0 0 0 0 0 0 0 0 0 0 0 0 0 0 0 0 0 0 0 0 0 0 0 0
6.42193 2.7906e-07 1.14512e-07 1.64548e-07 0.58965 1.48144e-05 0 0 0 0 0 0 0 0 0 0 0 0 0 0 0 0 0 0 0 0 0 0 0 0 0 0 0 0 0 0 0 0 0 0 0 0 0 0 0 0 0 0
6.75157 2.77885e-07 1.1473e-07 1.63155e-07 0.587131 1.32279e-05 0 0 0 0 0 0 0 0 0 0 0 0 0 0 0 0 0 0 0 0 0 0 0 0 0 0 0 0 0 0 0 0 0 0 0 0 0 0 0 0 0 0
7.09813 2.77422e-07 1.14954e-07 1.62467e-07 0.585633 1.18448e-05 0 0 0 0 0 0 0 0 0 0 0 0 0 0 0 0 0 0 0 0 0 0 0 0 0 0 0 0 0 0 0 0 0 0 0 0 0 0 0 0 0 0
7.46248 2.7867e-07 1.15439e-07 1.63231e-07 0.585751 1.05694e-05 0 0 0 0 0 0 0 0 0 0 0 0 0 0 0 0 0 0 0 0 0 0 0 0 0 0 0 0 0 0 0 0 0 0 1.4013e-45 0 5.60519e-45 0 1.54143e-44 0 4.06377e-44 0
7.84553 2.82152e-07 1.16473e-07 1.65679e-07 0.587197 9.34187e-06 0 0 0 0 0 0 0 0 0 0 0 0 0 0 0 0 0 0 0 0 0 0 0 0 0 0 2.8026e-45 0 9.80909e-45 0 3.64338e-44 0 1.16308e-43 0 3.51726e-43 0 1.00193e-42 0 2.60642e-42 0 6.45298e-42 0
8.24824 2.87358e-07 1.18182e-07 1.69176e-07 0.588728 8.19911e-06 0 0 0 0 0 0 0 0 0 0 0 0 0 0 0 0 0 0 0 0 2.8026e-45 0 2.10195e-44 0 1.03696e-43 0 4.38606e-43 0 1.67595e-42 0 5.77055e-42 0 1.74195e-41 0 4.9683e-41 0 1.34243e-40 0 3.33579e-40 0 7.9001e-40 0
8.67162 2.92859e-07 1.20534e-07 1.72324e-07 0.588422 7.20916e-06 0 0 0 0 0 0 0 0 0 0 0 0 0 0 1.4013e-45 0 9.80909e-45 0 9.10844e-44 0 6.1517e-43 0 3.32808e-42 0 1.53372e-41 0 6.08948e-41 0 2.17734e-40 0 7.05688e-40 0 2.01863e-39 0 5.47028e-39 0 1.40803e-38 0 3.34671e-38 0 7.59924e-38 0
9.11674 2.96747e-07 1.23402e-07 1.73345e-07 0.584152 6.32492e-06 0 0 0 0 0 0 0 0 0 0 0 0 9.80909e-45 0 1.58347e-43 0 1.71799e-42 0 1.36332e-41 0 8.32736e-41 0 4.15021e-40 0 1.77508e-39 0 6.58902e-39 0 2.21387e-38 0 6.77496e-38 0 1.84105e-37 0 4.75203e-37 0 1.16798e-36 0 2.66123e-36 0 5.80559e-36 0
9.5847 2.97438e-07 1.26441e-07 1.70997e-07 0.5749 5.52644e-06 0 0 0 0 0 0 0 0 1.4013e-45 0 5.88545e-44 0 1.52601e-42 0 2.27052e-41 0 2.18936e-40 0 1.57078e-39 0 8.78349e-39 0 4.04735e-38 0 1.61251e-37 0 5.61429e-37 0 1.77799e-36 0 5.15189e-36 0 1.3333e-35 0 3.28576e-35 0 7.729e-35 0 1.69164e-34 0 3.55248e-34 0
10.0767 2.94259e-07 1.29286e-07 1.64973e-07 0.560639 4.78203e-06 0 0 0 0 0 0 1.4013e-45 0 1.70958e-43 0 8.67824e-42 0 1.93092e-40 0 2.51846e-39 0 2.17411e-38 0 1.41675e-37 0 7.28364e-37 0 3.11499e-36 0 1.16005e-35 0 3.8003e-35 0 1.13765e-34 0 3.1296e-34 0 7.73192e-34 0 1.82335e-33 0 4.11358e-33 0 8.66556e-33 0 1.75504e-32 0
10.5939 2.88013e-07 1.3196e-07 1.56052e-07 0.541825 4.06995e-06 0 0 0 0 0 0 1.54143e-43 0 2.37562e-41 0 9.95868e-40 0 1.90452e-38 0 2.19129e-37 0 1.7027e-36 0 1.01253e-35 0 4.80558e-35 0 1.91444e-34 0 6.68625e-34 0 2.0671e-33 0 5.86548e-33 0 1.53577e-32 0 3.63033e-32 0 8.20991e-32 0 1.78007e-31 0 3.61588e-31 0 7.07524e-31 0
11.1377 2.80885e-07 1.35389e-07 1.45496e-07 0.517993 3.40803e-06 0 0 0 0 1.68156e-44 0 2.14301e-41 0 2.57988e-39 0 9.01178e-38 0 1.49218e-36 0 1.52383e-35 0 1.07128e-34 0 5.83941e-34 0 2.56853e-33 0 9.56471e-33 0 3.14264e-32 0 9.19479e-32 0 2.47953e-31 0 6.19415e-31 0 1.40398e-30 0 3.05105e-30 0 6.36998e-30 0 1.24994e-29 0 2.36692e-29 0
11.7094 2.73682e-07 1.35363e-07 1.38319e-07 0.505401 2.82232e-06 0 0 0 0 2.54336e-42 0 2.25449e-39 0 2.14803e-37 0 6.30822e-36 0 9.10753e-35 0 8.30324e-34 0 5.30714e-33 0 2.66299e-32 0 1.08962e-31 0 3.80527e-31 0 1.17974e-30 0 3.27542e-30 0 8.41512e-30 0 2.01029e-29 0 4.37812e-29 0 9.16049e-29 0 1.84501e-28 0 3.50313e-28 0 6.43e-28 0
12.3105 2.70224e-07 1.42219e-07 1.28005e-07 0.473698 2.20615e-06 0 0 1.4013e-45 0 3.08169e-40 0 1.96147e-37 0 1.49606e-35 0 3.7252e-34 0 4.72098e-33 0 3.86381e-32 0 2.25577e-31 0 1.04617e-30 0 3.99607e-30 0 1.31288e-29 0 3.85152e-29 0 1.01733e-28 0 2.49602e-28 0 5.71455e-28 0 1.19814e-27 0 2.41815e-27 0 4.7067e-27 0 8.66121e-27 0 1.54332e-26 0
12.9424 2.68638e-07 1.47018e-07 1.2162e-07 0.452727 1.60871e-06 0 0 2.87266e-43 0 2.87882e-38 0 1.33694e-35 0 8.25236e-34 0 1.75634e-32 0 1.96627e-31 0 1.45229e-30 0 7.77891e-30 0 3.3473e-29 0 1.19759e-28 0 3.7126e-28 0 1.03339e-27 0 2.60315e-27 0 6.11299e-27 0 1.34408e-26 0 2.718e-26 0 5.30074e-26 0 9.9873e-26 0 1.78393e-25 0 3.09035e-25 0
13.6067 2.6624e-07 1.49364e-07 1.16876e-07 0.438988 1.1081e-06 0 0 3.67477e-41 0 2.09551e-36 0 7.21076e-34 0 3.63939e-32 0 6.67143e-31 0 6.63799e-30 0 4.44677e-29 0 2.19445e-28 0 8.79341e-28 0 2.95626e-27 0 8.67204e-27 0 2.29615e-26 0 5.52899e-26 0 1.24537e-25 0 2.63489e-25 0 5.14822e-25 0 9.71808e-25 0 1.77525e-24 0 3.08241e-24 0 5.19838e-24 0
14.3051 2.59173e-07 1.47468e-07 1.11705e-07 0.431006 6.74396e-07 2.94273e-44 0 3.55798e-39 0 1.18867e-34 0 3.07538e-32 0 1.28173e-30 0 2.03851e-29 0 1.81306e-28 0 1.10686e-27 0 5.05271e-27 0 1.89201e-26 0 5.99513e-26 0 1.66862e-25 0 4.213e-25 0 9.71859e-25 0 2.10396e-24 0 4.29152e-24 0 8.11527e-24 0 1.4851e-23 0 2.63426e-23 0 4.45235e-23 0 7.31955e-23 0
