# 1.5e-05 2 8 : grain size, compostion index, size index
# Heating and cooling timescale: 0.044942 2.53295e+06
# Ratio of heating to cooling to determine stochastic cutoff: 100
# Equilibrium emission is recorded even for those grains in the stochastic regime.
# Emission spectrum was computed for: 
# Type: ISRF
# Scales: 0.25 0.5 1 1.5 2 2.5 3 3.5 4 4.5 5 5.5 6 6.5 7 7.5 8 8.5 9 9.5 10
# StochasticallyHeated: 0 0 0 0 0 0 0 0 0 0 0 0 0 0 0 0 0 0 0 0 0
# Temperature: -1
# Wavelength  CExt  CAbs  CSca  Albedo G EqEm1 StEm1 EqEm2 StEm2 EqEm3 StEm3 EqEm4 StEm4 EqEm5 StEm5 EqEm6 StEm6 EqEm7 StEm7 EqEm8 StEm8 EqEm9 StEm9 EqEm10 StEm10 EqEm11 StEm11 EqEm12 StEm12 EqEm13 StEm13 EqEm14 StEm14 EqEm15 StEm15 EqEm16 StEm16 EqEm17 StEm17 EqEm18 StEm18 EqEm19 StEm19 EqEm20 StEm20 EqEm21 StEm21
0.05 1.62938e-09 6.96408e-10 9.32976e-10 0.572594 0.898848 0 0 0 0 0 0 0 0 0 0 0 0 0 0 0 0 0 0 0 0 0 0 0 0 0 0 0 0 0 0 0 0 0 0 0 0 0 0 0 0 0 0
0.0525665 1.63316e-09 7.00904e-10 9.32254e-10 0.570829 0.897115 0 0 0 0 0 0 0 0 0 0 0 0 0 0 0 0 0 0 0 0 0 0 0 0 0 0 0 0 0 0 0 0 0 0 0 0 0 0 0 0 0 0
0.0552647 1.6371e-09 7.05625e-10 9.31472e-10 0.568978 0.895288 0 0 0 0 0 0 0 0 0 0 0 0 0 0 0 0 0 0 0 0 0 0 0 0 0 0 0 0 0 0 0 0 0 0 0 0 0 0 0 0 0 0
0.0581015 1.64128e-09 7.10603e-10 9.30674e-10 0.567043 0.893366 0 0 0 0 0 0 0 0 0 0 0 0 0 0 0 0 0 0 0 0 0 0 0 0 0 0 0 0 0 0 0 0 0 0 0 0 0 0 0 0 0 0
0.0610839 1.64562e-09 7.15811e-10 9.29805e-10 0.565019 0.89135 0 0 0 0 0 0 0 0 0 0 0 0 0 0 0 0 0 0 0 0 0 0 0 0 0 0 0 0 0 0 0 0 0 0 0 0 0 0 0 0 0 0
0.0642193 1.65025e-09 7.21313e-10 9.28937e-10 0.562907 0.889229 0 0 0 0 0 0 0 0 0 0 0 0 0 0 0 0 0 0 0 0 0 0 0 0 0 0 0 0 0 0 0 0 0 0 0 0 0 0 0 0 0 0
0.0675157 1.65505e-09 7.27049e-10 9.27998e-10 0.560708 0.887003 0 0 0 0 0 0 0 0 0 0 0 0 0 0 0 0 0 0 0 0 0 0 0 0 0 0 0 0 0 0 0 0 0 0 0 0 0 0 0 0 0 0
0.0709813 1.66019e-09 7.33143e-10 9.27044e-10 0.558397 0.884653 0 0 0 0 0 0 0 0 0 0 0 0 0 0 0 0 0 0 0 0 0 0 0 0 0 0 0 0 0 0 0 0 0 0 0 0 0 0 0 0 0 0
0.0746248 1.66549e-09 7.3953e-10 9.25958e-10 0.555968 0.882193 0 0 0 0 0 0 0 0 0 0 0 0 0 0 0 0 0 0 0 0 0 0 0 0 0 0 0 0 0 0 0 0 0 0 0 0 0 0 0 0 0 0
0.0784553 1.67108e-09 7.4621e-10 9.24873e-10 0.553457 0.879599 0 0 0 0 0 0 0 0 0 0 0 0 0 0 0 0 0 0 0 0 0 0 0 0 0 0 0 0 0 0 0 0 0 0 0 0 0 0 0 0 0 0
0.0824824 1.677e-09 7.53243e-10 9.23757e-10 0.550839 0.87687 0 0 0 0 0 0 0 0 0 0 0 0 0 0 0 0 0 0 0 0 0 0 0 0 0 0 0 0 0 0 0 0 0 0 0 0 0 0 0 0 0 0
0.0867162 1.68322e-09 7.60661e-10 9.2256e-10 0.548092 0.87401 0 0 0 0 0 0 0 0 0 0 0 0 0 0 0 0 0 0 0 0 0 0 0 0 0 0 0 0 0 0 0 0 0 0 0 0 0 0 0 0 0 0
0.0911674 1.68974e-09 7.68443e-10 9.21293e-10 0.545229 0.870998 0 0 0 0 0 0 0 0 0 0 0 0 0 0 0 0 0 0 0 0 0 0 0 0 0 0 0 0 0 0 0 0 0 0 0 0 0 0 0 0 0 0
0.095847 1.69658e-09 7.76634e-10 9.19945e-10 0.542235 0.867833 0 0 0 0 0 0 0 0 0 0 0 0 0 0 0 0 0 0 0 0 0 0 0 0 0 0 0 0 0 0 0 0 0 0 0 0 0 0 0 0 0 0
0.100767 1.70381e-09 7.85244e-10 9.18567e-10 0.539125 0.864497 0 0 0 0 0 0 0 0 0 0 0 0 0 0 0 0 0 0 0 0 0 0 0 0 0 0 0 0 0 0 0 0 0 0 0 0 0 0 0 0 0 0
0.105939 1.71139e-09 7.94276e-10 9.17117e-10 0.535889 0.860999 0 0 0 0 0 0 0 0 0 0 0 0 0 0 0 0 0 0 0 0 0 0 0 0 0 0 0 0 0 0 0 0 0 0 0 0 0 0 0 0 0 0
0.111377 1.71933e-09 8.03809e-10 9.15524e-10 0.532488 0.857318 0 0 0 0 0 0 0 0 0 0 0 0 0 0 0 0 0 0 0 0 0 0 0 0 0 0 0 0 0 0 0 0 0 0 0 0 0 0 0 0 0 0
0.117094 1.72778e-09 8.1385e-10 9.13933e-10 0.528963 0.853452 0 0 0 0 0 0 0 0 0 0 0 0 0 0 0 0 0 0 0 0 0 0 0 0 0 0 0 0 0 0 0 0 0 0 0 0 0 0 0 0 0 0
0.123105 1.73653e-09 8.24329e-10 9.12202e-10 0.525301 0.849384 0 0 0 0 0 0 0 0 0 0 0 0 0 0 0 0 0 0 0 0 0 0 0 0 0 0 0 0 0 0 0 0 0 0 0 0 0 0 0 0 0 0
0.129424 1.74581e-09 8.35418e-10 9.10393e-10 0.521473 0.845106 0 0 0 0 0 0 0 0 0 0 0 0 0 0 0 0 0 0 0 0 0 0 0 0 0 0 0 0 0 0 0 0 0 0 0 0 0 0 0 0 0 0
0.136067 1.75552e-09 8.47015e-10 9.08505e-10 0.517513 0.840615 0 0 0 0 0 0 0 0 0 0 0 0 0 0 0 0 0 0 0 0 0 0 0 0 0 0 0 0 0 0 0 0 0 0 0 0 0 0 0 0 0 0
0.143051 1.76577e-09 8.59216e-10 9.06551e-10 0.513403 0.835892 0 0 0 0 0 0 0 0 0 0 0 0 0 0 0 0 0 0 0 0 0 0 0 0 0 0 0 0 0 0 0 0 0 0 0 0 0 0 0 0 0 0
0.150394 1.77652e-09 8.72084e-10 9.04435e-10 0.509105 0.830922 0 0 0 0 0 0 0 0 0 0 0 0 0 0 0 0 0 0 0 0 0 0 0 0 0 0 0 0 0 0 0 0 0 0 0 0 0 0 0 0 0 0
0.158114 1.78788e-09 8.85617e-10 9.02264e-10 0.504655 0.825697 0 0 0 0 0 0 0 0 0 0 0 0 0 0 0 0 0 0 0 0 0 0 0 0 0 0 0 0 0 0 0 0 0 0 0 0 0 0 0 0 0 0
0.16623 1.79977e-09 8.99825e-10 8.9995e-10 0.500035 0.820206 0 0 0 0 0 0 0 0 0 0 0 0 0 0 0 0 0 0 0 0 0 0 0 0 0 0 0 0 0 0 0 0 0 0 0 0 0 0 0 0 0 0
0.174762 1.81225e-09 9.14723e-10 8.97531e-10 0.495257 0.81443 0 0 0 0 0 0 0 0 0 0 0 0 0 0 0 0 0 0 0 0 0 0 0 0 0 0 0 0 0 0 0 0 0 0 0 0 0 0 0 0 0 0
0.183733 1.82537e-09 9.30412e-10 8.94959e-10 0.490289 0.808366 0 0 0 0 0 0 0 0 0 0 0 0 0 0 0 0 0 0 0 0 0 0 0 0 0 0 0 0 0 0 0 0 0 0 0 0 0 0 0 0 0 0
0.193164 1.83925e-09 9.46945e-10 8.92308e-10 0.485147 0.80198 0 0 0 0 0 0 0 0 0 0 0 0 0 0 0 0 0 0 0 0 0 0 0 0 0 0 0 0 0 0 0 0 0 0 0 0 0 0 0 0 0 0
0.203079 1.86001e-09 9.60992e-10 8.99014e-10 0.483339 0.795662 0 0 0 0 0 0 0 0 0 0 0 0 0 0 0 0 0 0 0 0 0 0 0 0 0 0 0 0 0 0 0 0 0 0 0 0 0 0 0 0 0 0
0.213503 1.91025e-09 9.60608e-10 9.49641e-10 0.497129 0.790783 0 0 0 0 0 0 0 0 0 0 0 0 0 0 0 0 0 0 0 0 0 0 0 0 0 0 0 0 0 0 0 0 0 0 0 0 0 0 0 0 0 0
0.224463 1.96381e-09 9.59871e-10 1.00394e-09 0.51122 0.785706 0 0 0 0 0 0 0 0 0 0 0 0 0 0 0 0 0 0 0 0 0 0 0 0 0 0 0 0 0 0 0 0 0 0 0 0 0 0 0 0 0 0
0.235984 2.02018e-09 9.59083e-10 1.0611e-09 0.525249 0.780369 0 0 0 0 0 0 0 0 0 0 0 0 0 0 0 0 0 0 0 0 0 0 0 0 0 0 0 0 0 0 0 0 0 0 0 0 0 0 0 0 0 0
0.248097 2.07938e-09 9.58214e-10 1.12117e-09 0.539184 0.774758 0 0 0 0 0 0 0 0 0 0 0 0 0 0 0 0 0 0 0 0 0 0 0 0 0 0 0 0 0 0 0 0 0 0 0 0 0 0 0 0 0 0
0.260832 2.14171e-09 9.57345e-10 1.18437e-09 0.553001 0.768852 0 0 0 0 0 0 0 0 0 0 0 0 0 0 0 0 0 0 0 0 0 0 0 0 0 0 0 0 0 0 0 0 0 0 0 0 0 0 0 0 0 0
0.274221 2.2072e-09 9.56406e-10 1.25079e-09 0.566687 0.762646 0 0 0 0 0 0 0 0 0 0 0 0 0 0 0 0 0 0 0 0 0 0 0 0 0 0 0 0 0 0 0 0 0 0 0 0 0 0 0 0 0 0
0.288297 2.27598e-09 9.55396e-10 1.32059e-09 0.580227 0.756123 0 0 0 0 0 0 0 0 0 0 0 0 0 0 0 0 0 0 0 0 0 0 0 0 0 0 0 0 0 0 0 0 0 0 0 0 0 0 0 0 0 0
0.303095 2.34717e-09 9.53476e-10 1.39369e-09 0.593776 0.749221 0 0 0 0 0 0 0 0 0 0 0 0 0 0 0 0 0 0 0 0 0 0 0 0 0 0 0 0 0 0 0 0 0 0 0 0 0 0 0 0 0 0
0.318653 2.40685e-09 9.40296e-10 1.46655e-09 0.609325 0.741325 0 0 0 0 0 0 0 0 0 0 0 0 0 0 0 0 0 0 0 0 0 0 0 0 0 0 0 0 0 0 0 0 0 0 0 0 0 0 0 0 0 0
0.335009 2.46854e-09 9.25656e-10 1.54288e-09 0.625019 0.732981 0 0 0 0 0 0 0 0 0 0 0 0 0 0 0 0 0 0 0 0 0 0 0 0 0 0 0 0 0 0 0 0 0 0 0 0 0 0 0 0 0 0
0.352205 2.53339e-09 9.10242e-10 1.62314e-09 0.640702 0.724216 0 0 0 0 0 0 0 0 0 0 0 0 0 0 0 0 0 0 0 0 0 0 0 0 0 0 0 0 0 0 0 0 0 0 0 0 0 0 0 0 0 0
0.370284 2.60152e-09 8.94052e-10 1.70747e-09 0.656335 0.714993 0 0 0 0 0 0 0 0 0 0 0 0 0 0 0 0 0 0 0 0 0 0 0 0 0 0 0 0 0 0 0 0 0 0 0 0 0 0 0 0 0 0
0.389291 2.67326e-09 8.77075e-10 1.79619e-09 0.671908 0.7053 0 0 0 0 0 0 0 0 0 0 0 0 0 0 0 0 0 0 0 0 0 0 0 0 0 0 0 0 0 0 0 0 0 0 0 0 0 0 0 0 0 0
0.409273 2.72145e-09 8.57013e-10 1.86444e-09 0.68509 0.695009 0 0 0 0 0 0 0 0 0 0 0 0 0 0 0 0 0 0 0 0 0 0 0 0 0 0 0 0 0 0 0 0 0 0 0 0 0 0 0 0 0 0
0.430281 2.68368e-09 8.29099e-10 1.85458e-09 0.691059 0.683856 0 0 0 0 0 0 0 0 0 0 0 0 0 0 0 0 0 0 0 0 0 0 0 0 0 0 0 0 0 0 0 0 0 0 0 0 0 0 0 0 0 0
0.452368 2.64389e-09 7.99713e-10 1.84418e-09 0.697524 0.672129 0 0 0 0 0 0 0 0 0 0 0 0 0 0 0 0 0 0 0 0 0 0 0 0 0 0 0 0 0 0 0 0 0 0 0 0 0 0 0 0 0 0
0.475588 2.60205e-09 7.6885e-10 1.8332e-09 0.704522 0.659807 0 0 0 0 0 0 0 0 0 0 0 0 0 0 0 0 0 0 0 0 0 0 0 0 0 0 0 0 0 0 0 0 0 0 0 0 0 0 0 0 0 0
0.5 2.55793e-09 7.36345e-10 1.82159e-09 0.712133 0.646845 0 0 0 0 0 0 0 0 0 0 0 0 0 0 0 0 0 0 0 0 0 0 0 0 0 0 0 0 0 0 0 0 0 0 0 0 0 0 0 0 0 0
0.525665 2.44303e-09 6.99496e-10 1.74353e-09 0.713677 0.633541 0 0 0 0 0 0 0 0 0 0 0 0 0 0 0 0 0 0 0 0 0 0 0 0 0 0 0 0 0 0 0 0 0 0 0 0 0 0 0 0 0 0
0.552648 2.30052e-09 6.59863e-10 1.64066e-09 0.713168 0.619664 0 0 0 0 0 0 0 0 0 0 0 0 0 0 0 0 0 0 0 0 0 0 0 0 0 0 0 0 0 0 0 0 0 0 0 0 0 0 0 0 0 0
0.581015 2.15064e-09 6.1819e-10 1.53245e-09 0.712555 0.605075 0 0 0 0 0 0 0 0 0 0 0 0 0 0 0 0 0 0 0 0 0 0 0 0 0 0 0 0 0 0 0 0 0 0 0 0 0 0 0 0 0 0
0.610839 1.98923e-09 5.73922e-10 1.4153e-09 0.711485 0.588702 0 0 0 0 0 0 0 0 0 0 0 0 0 0 0 0 0 0 0 0 0 0 0 0 0 0 0 0 0 0 0 0 0 0 0 0 0 0 0 0 0 0
0.642193 1.78881e-09 5.23786e-10 1.26502e-09 0.707187 0.563293 0 0 0 0 0 0 0 0 0 0 0 0 0 0 0 0 0 0 0 0 0 0 0 0 0 0 0 0 0 0 0 0 0 0 0 0 0 0 0 0 0 0
0.675157 1.57809e-09 4.71071e-10 1.10702e-09 0.701492 0.536578 0 0 0 0 0 0 0 0 0 0 0 0 0 0 0 0 0 0 0 0 0 0 0 0 0 0 0 0 0 0 0 0 0 0 0 0 0 0 0 0 0 0
0.709813 1.36368e-09 4.16919e-10 9.46759e-10 0.694269 0.507391 0 0 0 0 0 0 0 0 0 0 0 0 0 0 0 0 0 0 0 0 0 0 0 0 0 0 0 0 0 0 0 0 0 0 0 0 0 0 0 0 0 0
0.746248 1.202e-09 3.71292e-10 8.30712e-10 0.691106 0.466887 0 0 0 0 0 0 0 0 0 0 0 0 0 0 0 0 0 0 0 0 0 0 0 0 0 0 0 0 0 0 0 0 0 0 0 0 0 0 0 0 0 0
0.784553 1.03738e-09 3.24265e-10 7.13112e-10 0.687419 0.423487 0 0 0 0 0 0 0 0 0 0 0 0 0 0 0 0 0 0 0 0 0 0 0 0 0 0 0 0 0 0 0 0 0 0 0 0 0 0 0 0 0 0
0.824824 8.885e-10 2.82043e-10 6.06456e-10 0.682562 0.381222 0 0 0 0 0 0 0 0 0 0 0 0 0 0 0 0 0 0 0 0 0 0 0 0 0 0 0 0 0 0 0 0 0 0 0 0 0 0 0 0 0 0
0.867162 7.77136e-10 2.51106e-10 5.2603e-10 0.676883 0.343049 0 0 0 0 0 0 0 0 0 0 0 0 0 0 0 0 0 0 0 0 0 0 0 0 0 0 0 0 0 0 0 0 0 0 0 0 0 0 0 0 0 0
0.911674 6.61206e-10 2.18922e-10 4.42285e-10 0.668906 0.303304 0 0 0 0 0 0 0 0 0 0 0 0 0 0 0 0 0 0 0 0 0 0 0 0 0 0 0 0 0 0 0 0 0 0 0 0 0 0 0 0 0 0
0.95847 5.77318e-10 1.96513e-10 3.80805e-10 0.65961 0.274201 0 0 0 0 0 0 0 0 0 0 0 0 0 0 0 0 0 0 0 0 0 0 0 0 0 0 0 0 0 0 0 0 0 0 0 0 0 0 0 0 0 0
1.00767 4.9064e-10 1.734e-10 3.1724e-10 0.646584 0.244119 0 0 0 0 0 0 0 0 0 0 0 0 0 0 0 0 0 0 0 0 0 0 0 0 0 0 0 0 0 0 0 0 0 0 0 0 0 0 0 0 0 0
1.05939 4.244e-10 1.55714e-10 2.68686e-10 0.633095 0.221089 0 0 0 0 0 0 0 0 0 0 0 0 0 0 0 0 0 0 0 0 0 0 0 0 0 0 0 0 0 0 0 0 0 0 0 0 0 0 0 0 0 0
1.11377 3.5917e-10 1.38269e-10 2.20901e-10 0.615033 0.198364 0 0 0 0 0 0 0 0 0 0 0 0 0 0 0 0 0 0 0 0 0 0 0 0 0 0 0 0 0 0 0 0 0 0 0 0 0 0 0 0 0 0
1.17094 3.09571e-10 1.24427e-10 1.85144e-10 0.598067 0.180302 0 0 0 0 0 0 0 0 0 0 0 0 0 0 0 0 0 0 0 0 0 0 0 0 0 0 0 0 0 0 0 0 0 0 0 0 0 0 0 0 0 0
1.23105 2.62489e-10 1.11058e-10 1.51431e-10 0.576903 0.16282 0 0 0 0 0 0 0 0 0 0 0 0 0 0 0 0 0 0 0 0 0 0 0 0 0 0 0 0 0 0 0 0 0 0 0 0 0 0 0 0 0 0
1.29424 2.24874e-10 9.97738e-11 1.251e-10 0.556311 0.147944 0 0 0 0 0 0 0 0 0 0 0 0 0 0 0 0 0 0 0 0 0 0 0 0 0 0 0 0 0 0 0 0 0 0 0 0 0 0 0 0 0 0
1.36067 1.92504e-10 8.95766e-11 1.02928e-10 0.534677 0.134447 0 0 0 0 0 0 0 0 0 0 0 0 0 0 0 0 0 0 0 0 0 0 0 0 0 0 0 0 0 0 0 0 0 0 0 0 0 0 0 0 0 0
1.43051 1.63891e-10 8.01136e-11 8.37777e-11 0.511178 0.121935 0 0 0 0 0 0 0 0 0 0 0 0 0 0 0 0 0 0 0 0 0 0 0 0 0 0 0 0 0 0 0 0 0 0 0 0 0 0 0 0 0 0
1.50394 1.40465e-10 7.17012e-11 6.87642e-11 0.489545 0.110979 0 0 0 0 0 0 0 0 0 0 0 0 0 0 0 0 0 0 0 0 0 0 0 0 0 0 0 0 0 0 0 0 0 0 0 0 0 0 0 0 0 0
1.58114 1.2031e-10 6.38342e-11 5.64761e-11 0.46942 0.101044 0 0 0 0 0 0 0 0 0 0 0 0 0 0 0 0 0 0 0 0 0 0 0 0 0 0 0 0 0 0 0 0 0 0 0 0 0 0 0 0 0 0
1.6623 1.02536e-10 5.64288e-11 4.6107e-11 0.449667 0.0918631 0 0 0 0 0 0 0 0 0 0 0 0 0 0 0 0 0 0 0 0 0 0 0 0 0 0 0 0 0 0 0 0 0 0 0 0 0 0 0 0 0 0
1.74763 8.71753e-11 4.96506e-11 3.75247e-11 0.430451 0.0834653 0 0 0 0 0 0 0 0 0 0 0 0 0 0 0 0 0 0 0 0 0 0 0 0 0 0 0 0 0 0 0 0 0 0 0 0 0 0 0 0 0 0
1.83733 7.42742e-11 4.37421e-11 3.05321e-11 0.411073 0.0758379 0 0 0 0 0 0 0 0 0 0 0 0 0 0 0 0 0 0 0 0 0 0 0 0 0 0 0 0 0 0 0 0 0 0 0 0 0 0 0 0 0 0
1.93164 6.35615e-11 3.87652e-11 2.47964e-11 0.390116 0.0688776 0 0 0 0 0 0 0 0 0 0 0 0 0 0 0 0 0 0 0 0 0 0 0 0 0 0 0 0 0 0 0 0 0 0 0 0 0 0 0 0 0 0
2.03079 5.48869e-11 3.47259e-11 2.01611e-11 0.36732 0.0625674 0 0 0 0 0 0 0 0 0 0 0 0 0 0 0 0 0 0 0 0 0 0 0 0 0 0 0 0 0 0 0 0 0 0 0 0 0 0 0 0 0 0
2.13503 4.74708e-11 3.10518e-11 1.6419e-11 0.345876 0.0568994 0 0 0 0 0 0 0 0 0 0 0 0 0 0 0 0 0 0 0 0 0 0 0 0 0 0 0 0 0 0 0 0 0 0 0 0 0 0 0 0 0 0
2.24463 4.18997e-11 2.85384e-11 1.33613e-11 0.318888 0.0516813 0 0 0 0 0 0 0 0 0 0 0 0 0 0 0 0 0 0 0 0 0 0 0 0 0 0 0 0 0 0 0 0 0 0 0 0 0 0 0 0 0 0
2.35984 3.74667e-11 2.65697e-11 1.0897e-11 0.290846 0.0469425 0 0 0 0 0 0 0 0 0 0 0 0 0 0 0 0 0 0 0 0 0 0 0 0 0 0 0 0 0 0 0 0 0 0 0 0 0 0 0 0 0 0
2.48097 3.34611e-11 2.45673e-11 8.89375e-12 0.265794 0.0426267 0 0 0 0 0 0 0 0 0 0 0 0 0 0 0 0 0 0 0 0 0 0 0 0 0 0 0 0 0 0 0 0 0 0 0 0 0 0 0 0 0 0
2.60832 2.99582e-11 2.27108e-11 7.24733e-12 0.241915 0.0386822 0 0 0 0 0 0 0 0 0 0 0 0 0 0 0 0 0 0 0 0 0 0 0 0 0 0 0 0 0 0 0 0 0 0 0 0 0 0 0 0 0 0
2.74221 2.69503e-11 2.10389e-11 5.91147e-12 0.219347 0.0351033 0 0 0 0 0 0 0 0 0 0 0 0 0 0 0 0 0 0 0 0 0 0 0 0 0 0 0 0 0 0 0 0 0 0 0 0 0 0 0 0 0 0
2.88297 2.42638e-11 1.94412e-11 4.82259e-12 0.198757 0.0318502 0 0 0 0 0 0 0 0 0 0 0 0 0 0 0 0 0 0 0 0 0 0 0 0 0 0 0 0 0 0 0 0 0 0 0 0 0 0 0 0 0 0
3.03095 2.18768e-11 1.79503e-11 3.92658e-12 0.179486 0.0288773 0 0 0 0 0 0 0 0 0 0 0 0 0 0 0 0 0 0 0 0 0 0 0 0 0 0 0 0 0 0 0 0 0 0 0 0 0 0 0 0 0 0
3.18653 1.97973e-11 1.65912e-11 3.20611e-12 0.161947 0.0261997 0 0 0 0 0 0 0 0 0 0 0 0 0 0 0 0 0 0 0 0 0 0 0 0 0 0 0 0 0 0 0 0 0 0 0 0 0 0 0 0 0 0
3.35009 1.79064e-11 1.52967e-11 2.60978e-12 0.145746 0.0237449 0 0 0 0 0 0 0 0 0 0 0 0 0 0 0 0 0 0 0 0 0 0 0 0 0 0 0 0 0 0 0 0 0 0 0 0 0 0 0 0 0 0
3.52205 1.62073e-11 1.40771e-11 2.13013e-12 0.131431 0.0215363 0 0 0 0 0 0 0 0 0 0 0 0 0 0 0 0 0 0 0 0 0 0 0 0 0 0 0 0 0 0 0 0 0 0 0 0 0 0 0 0 0 0
3.70284 1.46722e-11 1.29374e-11 1.73485e-12 0.118241 0.0195216 0 0 0 0 0 0 0 0 0 0 0 0 0 0 0 0 0 0 0 0 0 0 0 0 0 0 0 0 0 0 0 0 0 0 0 0 0 0 0 0 0 0
3.89291 1.3336e-11 1.19246e-11 1.41141e-12 0.105834 0.0176896 0 0 0 0 0 0 0 0 0 0 0 0 0 0 0 0 0 0 0 0 0 0 0 0 0 0 0 0 0 0 0 0 0 0 0 0 0 0 0 0 0 0
4.09273 1.21601e-11 1.10126e-11 1.14744e-12 0.0943613 0.0160661 0 0 0 0 0 0 0 0 0 0 0 0 0 0 0 0 0 0 0 0 0 0 0 0 0 0 0 0 0 0 0 0 0 0 0 0 0 0 0 0 0 0
4.30281 1.11279e-11 1.0196e-11 9.31884e-13 0.0837431 0.0145559 0 0 0 0 0 0 0 0 0 0 0 0 0 0 0 0 0 0 0 0 0 0 0 0 0 0 0 0 0 0 0 0 0 0 0 0 0 0 0 0 0 0
4.52368 1.02352e-11 9.47916e-12 7.56e-13 0.073863 0.0131849 0 0 0 0 0 0 0 0 0 0 0 0 0 0 0 0 0 0 0 0 0 0 0 0 0 0 0 0 0 0 0 0 0 0 0 0 0 0 0 0 0 0
4.75588 9.46698e-12 8.85519e-12 6.11793e-13 0.0646239 0.0119393 0 0 0 0 0 0 0 0 0 0 0 0 0 0 0 0 0 0 0 0 0 0 0 0 0 0 0 0 0 0 0 0 0 0 0 0 0 0 0 0 0 0
5 8.82152e-12 8.32804e-12 4.93482e-13 0.0559407 0.0108081 0 0 0 0 0 0 0 0 0 0 0 0 0 0 0 0 0 0 0 0 0 0 0 0 0 0 0 0 0 0 0 0 0 0 0 0 0 0 0 0 0 0
5.25665 8.47127e-12 8.07638e-12 3.94886e-13 0.0466148 0.00977399 0 0 0 0 0 0 0 0 0 0 0 0 0 0 0 0 0 0 0 0 0 0 0 0 0 0 0 0 0 0 0 0 0 0 0 0 0 0 0 0 0 0
5.52648 8.24466e-12 7.92685e-12 3.17812e-13 0.0385476 0.00884694 0 0 0 0 0 0 0 0 0 0 0 0 0 0 0 0 0 0 0 0 0 0 0 0 0 0 0 0 0 0 0 0 0 0 0 0 0 0 0 0 0 0
5.81015 8.2835e-12 8.02911e-12 2.54394e-13 0.030711 0.00800254 0 0 0 0 0 0 0 0 0 0 0 0 0 0 0 0 0 0 0 0 0 0 0 0 0 0 0 0 0 0 0 0 0 0 0 0 0 0 0 0 0 0
6.10839 9.10109e-12 8.89718e-12 2.03907e-13 0.0224047 0.00724031 0 0 0 0 0 0 0 0 0 0 0 0 0 0 0 0 0 0 0 0 0 0 0 0 0 0 0 0 0 0 0 0 0 0 0 0 1.4013e-45 0 2.8026e-45 0 7.00649e-45 0
6.42193 9.60867e-12 9.44563e-12 1.63041e-13 0.0169681 0.00655057 0 0 0 0 0 0 0 0 0 0 0 0 0 0 0 0 0 0 0 0 0 0 0 0 0 0 0 0 1.4013e-45 0 5.60519e-45 0 1.82169e-44 0 5.1848e-44 0 1.35926e-43 0 3.29305e-43 0 7.69313e-43 0
6.75157 1.06041e-11 1.04736e-11 1.30555e-13 0.0123117 0.00592802 0 0 0 0 0 0 0 0 0 0 0 0 0 0 0 0 0 0 0 0 1.4013e-45 0 4.2039e-45 0 1.96182e-44 0 7.28675e-44 0 2.46629e-43 0 7.74918e-43 0 2.20705e-42 0 5.85182e-42 0 1.45161e-41 0 3.37797e-41 0 7.56883e-41 0
7.09813 1.11086e-11 1.10043e-11 1.04282e-13 0.00938751 0.00536485 0 0 0 0 0 0 0 0 0 0 0 0 0 0 0 0 2.8026e-45 0 1.82169e-44 0 1.09301e-43 0 5.10073e-43 0 2.10055e-42 0 7.50816e-42 0 2.41135e-41 0 7.17437e-41 0 1.94025e-40 0 4.90645e-40 0 1.16414e-39 0 2.59968e-39 0 5.59988e-39 0
7.46248 1.19912e-11 1.191e-11 8.11894e-14 0.00677075 0.00484288 0 0 0 0 0 0 0 0 0 0 0 0 2.8026e-45 0 3.64338e-44 0 3.27904e-43 0 2.13278e-42 0 1.13715e-41 0 4.91786e-41 0 1.88881e-40 0 6.3435e-40 0 1.92434e-39 0 5.42863e-39 0 1.39852e-38 0 3.3799e-38 0 7.68813e-38 0 1.65083e-37 0 3.42523e-37 0
7.84553 1.47389e-11 1.46758e-11 6.30657e-14 0.00427887 0.00436892 0 0 0 0 0 0 0 0 0 0 1.96182e-44 0 3.86758e-43 0 4.55562e-42 0 3.63791e-41 0 2.16383e-40 0 1.06294e-39 0 4.27955e-39 0 1.53915e-38 0 4.8723e-38 0 1.40009e-37 0 3.75469e-37 0 9.23603e-37 0 2.13802e-36 0 4.67199e-36 0 9.66448e-36 0 1.93504e-35 0
8.24824 1.93706e-11 1.93218e-11 4.88049e-14 0.00251953 0.00393686 0 0 0 0 0 0 0 0 7.56701e-44 0 2.69189e-42 0 4.54679e-41 0 4.74809e-40 0 3.42565e-39 0 1.86772e-38 0 8.48876e-38 0 3.19302e-37 0 1.07881e-36 0 3.22822e-36 0 8.81056e-36 0 2.25167e-35 0 5.30065e-35 0 1.17776e-34 0 2.47727e-34 0 4.9458e-34 0 9.57254e-34 0
8.67162 2.63843e-11 2.63447e-11 3.95793e-14 0.00150011 0.00355307 0 0 0 0 0 0 1.06499e-43 0 9.9268e-42 0 2.98449e-40 0 4.39135e-39 0 4.08947e-38 0 2.6791e-37 0 1.34461e-36 0 5.67577e-36 0 2.0012e-35 0 6.37117e-35 0 1.80716e-34 0 4.6962e-34 0 1.14644e-33 0 2.58835e-33 0 5.53124e-33 0 1.12195e-32 0 2.16559e-32 0 4.05848e-32 0
9.11674 3.51218e-11 3.50872e-11 3.45727e-14 0.000984367 0.00321343 0 0 0 0 2.24208e-44 0 1.35926e-41 0 1.01174e-39 0 2.57596e-38 0 3.32394e-37 0 2.77593e-36 0 1.65911e-35 0 7.69616e-35 0 3.02809e-34 0 1.00396e-33 0 3.02056e-33 0 8.14251e-33 0 2.01957e-32 0 4.71998e-32 0 1.0241e-31 0 2.10883e-31 0 4.13232e-31 0 7.7242e-31 0 1.40386e-30 0
9.5847 4.20178e-11 4.19847e-11 3.31203e-14 0.000788245 0.002928 0 0 0 0 2.81801e-42 0 1.22784e-39 0 7.40476e-38 0 1.60968e-36 0 1.83327e-35 0 1.38031e-34 0 7.5602e-34 0 3.25384e-33 0 1.19742e-32 0 3.74435e-32 0 1.06756e-31 0 2.7418e-31 0 6.50544e-31 0 1.45867e-30 0 3.04744e-30 0 6.05783e-30 0 1.1487e-29 0 2.08258e-29 0 3.67623e-29 0
10.0767 4.38881e-11 4.38555e-11 3.25403e-14 0.000741438 0.00269578 0 0 5.60519e-45 0 2.39091e-40 0 7.74401e-38 0 3.82305e-36 0 7.15074e-35 0 7.23194e-34 0 4.934e-33 0 2.48712e-32 0 9.96807e-32 0 3.44218e-31 0 1.0181e-30 0 2.75798e-30 0 6.76448e-30 0 1.5387e-29 0 3.31674e-29 0 6.68449e-29 0 1.28494e-28 0 2.36158e-28 0 4.15894e-28 0 7.14059e-28 0
10.5939 4.07022e-11 4.0672e-11 3.02058e-14 0.000742119 0.00249727 0 0 5.32493e-43 0 1.4356e-38 0 3.50647e-36 0 1.43098e-34 0 2.31992e-33 0 2.09562e-32 0 1.30179e-31 0 6.06372e-31 0 2.271e-30 0 7.38179e-30 0 2.07073e-29 0 5.34312e-29 0 1.25434e-28 0 2.74098e-28 0 5.69088e-28 0 1.10835e-27 0 2.06363e-27 0 3.6817e-27 0 6.30708e-27 0 1.05467e-26 0
11.1377 3.57004e-11 3.56736e-11 2.67999e-14 0.000750689 0.00231599 1.4013e-45 0 4.00757e-41 0 6.56977e-37 0 1.22688e-34 0 4.17755e-33 0 5.91142e-32 0 4.79583e-31 0 2.72498e-30 0 1.17744e-29 0 4.13444e-29 0 1.26872e-28 0 3.3842e-28 0 8.33734e-28 0 1.87738e-27 0 3.94883e-27 0 7.91136e-27 0 1.49147e-26 0 2.69395e-26 0 4.67229e-26 0 7.79643e-26 0 1.2714e-25 0
11.7094 2.96762e-11 2.96529e-11 2.32837e-14 0.000784594 0.00215327 8.54792e-44 0 2.27342e-39 0 2.32046e-35 0 3.35686e-33 0 9.62163e-32 0 1.19628e-30 0 8.76227e-30 0 4.57381e-29 0 1.84001e-28 0 6.0767e-28 0 1.76539e-27 0 4.48879e-27 0 1.05824e-26 0 2.29031e-26 0 4.64564e-26 0 8.99692e-26 0 1.64442e-25 0 2.8857e-25 0 4.8721e-25 0 7.92912e-25 0 1.26253e-24 0
12.3105 2.07232e-11 2.0704e-11 1.91672e-14 0.000924917 0.00200052 5.38379e-42 0 8.70754e-38 0 5.66316e-34 0 6.426e-32 0 1.56352e-30 0 1.71889e-29 0 1.14237e-28 0 5.50087e-28 0 2.06756e-27 0 6.44127e-27 0 1.77636e-26 0 4.31551e-26 0 9.75664e-26 0 2.03348e-25 0 3.9847e-25 0 7.47187e-25 0 1.32605e-24 0 2.26399e-24 0 3.72591e-24 0 5.92128e-24 0 9.21659e-24 0
12.9424 1.26431e-11 1.26288e-11 1.42309e-14 0.00112559 0.00181761 2.34881e-40 0 2.36706e-36 0 1.00276e-32 0 9.03136e-31 0 1.88035e-29 0 1.83886e-28 0 1.11416e-27 0 4.9687e-27 0 1.75063e-26 0 5.15957e-26 0 1.35414e-25 0 3.15022e-25 0 6.84405e-25 0 1.3762e-24 0 2.60959e-24 0 4.74543e-24 0 8.1892e-24 0 1.36211e-23 0 2.18781e-23 0 3.39914e-23 0 5.17776e-23 0
