# 1.0593e-05 0 99 : grain size, compostion index, size index
# Heating and cooling timescale: 0.0330425 113089
# Ratio of heating to cooling to determine stochastic cutoff: 100
# Equilibrium emission is recorded even for those grains in the stochastic regime.
# Emission spectrum was computed for: 
# Type: IRSF
# Scales: 0.25 0.5 1 1.5 2 2.5 3 3.5 4 4.5 5 5.5 6 6.5 7 7.5 8 8.5 9 9.5 10
# StochasticallyHeated: 0 0 0 0 0 0 0 0 0 0 0 0 0 0 0 0 0 0 0 0 0
# Temperature: -1
# Wavelength  CExt  CAbs  CSca  Albedo G EqEm1 StEm1 EqEm2 StEm2 EqEm3 StEm3 EqEm4 StEm4 EqEm5 StEm5 EqEm6 StEm6 EqEm7 StEm7 EqEm8 StEm8 EqEm9 StEm9 EqEm10 StEm10 EqEm11 StEm11 EqEm12 StEm12 EqEm13 StEm13 EqEm14 StEm14 EqEm15 StEm15 EqEm16 StEm16 EqEm17 StEm17 EqEm18 StEm18 EqEm19 StEm19 EqEm20 StEm20 EqEm21 StEm21
0.05 2.25423e-10 9.94627e-11 1.2596e-10 0.558773 0.00576547 0 0 0 0 0 0 0 0 0 0 0 0 0 0 0 0 0 0 0 0 0 0 0 0 0 0 0 0 0 0 0 0 0 0 0 0 0 0 0 0 0 0
0.0525665 2.49159e-10 1.09936e-10 1.39223e-10 0.558773 0.00637255 0 0 0 0 0 0 0 0 0 0 0 0 0 0 0 0 0 0 0 0 0 0 0 0 0 0 0 0 0 0 0 0 0 0 0 0 0 0 0 0 0 0
0.0552647 2.75394e-10 1.21511e-10 1.53883e-10 0.558773 0.00704355 0 0 0 0 0 0 0 0 0 0 0 0 0 0 0 0 0 0 0 0 0 0 0 0 0 0 0 0 0 0 0 0 0 0 0 0 0 0 0 0 0 0
0.0581015 3.04391e-10 1.34306e-10 1.70086e-10 0.558773 0.0077852 0 0 0 0 0 0 0 0 0 0 0 0 0 0 0 0 0 0 0 0 0 0 0 0 0 0 0 0 0 0 0 0 0 0 0 0 0 0 0 0 0 0
0.0610839 3.36442e-10 1.48448e-10 1.87995e-10 0.558773 0.00860494 0 0 0 0 0 0 0 0 0 0 0 0 0 0 0 0 0 0 0 0 0 0 0 0 0 0 0 0 0 0 0 0 0 0 0 0 0 0 0 0 0 0
0.0642193 3.71868e-10 1.64078e-10 2.0779e-10 0.558773 0.009511 0 0 0 0 0 0 0 0 0 0 0 0 0 0 0 0 0 0 0 0 0 0 0 0 0 0 0 0 0 0 0 0 0 0 0 0 0 0 0 0 0 0
0.0675157 4.11024e-10 1.81355e-10 2.29669e-10 0.558773 0.0105125 0 0 0 0 0 0 0 0 0 0 0 0 0 0 0 0 0 0 0 0 0 0 0 0 0 0 0 0 0 0 0 0 0 0 0 0 0 0 0 0 0 0
0.0709813 4.54303e-10 2.00451e-10 2.53852e-10 0.558773 0.0116194 0 0 0 0 0 0 0 0 0 0 0 0 0 0 0 0 0 0 0 0 0 0 0 0 0 0 0 0 0 0 0 0 0 0 0 0 0 0 0 0 0 0
0.0746248 5.02139e-10 2.21557e-10 2.80581e-10 0.558773 0.0128428 0 0 0 0 0 0 0 0 0 0 0 0 0 0 0 0 0 0 0 0 0 0 0 0 0 0 0 0 0 0 0 0 0 0 0 0 0 0 0 0 0 0
0.0784553 5.55011e-10 2.44886e-10 3.10125e-10 0.558773 0.0141951 0 0 0 0 0 0 0 0 0 0 0 0 0 0 0 0 0 0 0 0 0 0 0 0 0 0 0 0 0 0 0 0 0 0 0 0 0 0 0 0 0 0
0.0824824 6.13452e-10 2.70672e-10 3.4278e-10 0.558773 0.0156898 0 0 0 0 0 0 0 0 0 0 0 0 0 0 0 0 0 0 0 0 0 0 0 0 0 0 0 0 0 0 0 0 0 0 0 0 0 0 0 0 0 0
0.0867162 6.78045e-10 2.99172e-10 3.78873e-10 0.558773 0.0173419 0 0 0 0 0 0 0 0 0 0 0 0 0 0 0 0 0 0 0 0 0 0 0 0 0 0 0 0 0 0 0 0 0 0 0 0 0 0 0 0 0 0
0.0911674 7.4944e-10 3.30674e-10 4.18767e-10 0.558773 0.0191679 0 0 0 0 0 0 0 0 0 0 0 0 0 0 0 0 0 0 0 0 0 0 0 0 0 0 0 0 0 0 0 0 0 0 0 0 0 0 0 0 0 0
0.095847 8.28353e-10 3.65492e-10 4.62861e-10 0.558773 0.0211862 0 0 0 0 0 0 0 0 0 0 0 0 0 0 0 0 0 0 0 0 0 0 0 0 0 0 0 0 0 0 0 0 0 0 0 0 0 0 0 0 0 0
0.100767 9.00699e-10 4.00343e-10 5.00356e-10 0.555519 0.0235692 0 0 0 0 0 0 0 0 0 0 0 0 0 0 0 0 0 0 0 0 0 0 0 0 0 0 0 0 0 0 0 0 0 0 0 0 0 0 0 0 0 0
0.105939 8.98311e-10 4.16923e-10 4.81388e-10 0.535881 0.0256046 0 0 0 0 0 0 0 0 0 0 0 0 0 0 0 0 0 0 0 0 0 0 0 0 0 0 0 0 0 0 0 0 0 0 0 0 0 0 0 0 0 0
0.111377 9.01643e-10 4.23525e-10 4.78118e-10 0.530275 0.0289403 0 0 0 0 0 0 0 0 0 0 0 0 0 0 0 0 0 0 0 0 0 0 0 0 0 0 0 0 0 0 0 0 0 0 0 0 0 0 0 0 0 0
0.117094 9.04038e-10 4.40087e-10 4.63951e-10 0.513199 0.0274507 0 0 0 0 0 0 0 0 0 0 0 0 0 0 0 0 0 0 0 0 0 0 0 0 0 0 0 0 0 0 0 0 0 0 0 0 0 0 0 0 0 0
0.123105 9.14662e-10 4.62851e-10 4.51811e-10 0.493965 0.0236555 0 0 0 0 0 0 0 0 0 0 0 0 0 0 0 0 0 0 0 0 0 0 0 0 0 0 0 0 0 0 0 0 0 0 0 0 0 0 0 0 0 0
0.129424 9.09937e-10 4.84199e-10 4.25738e-10 0.467877 0.0199126 0 0 0 0 0 0 0 0 0 0 0 0 0 0 0 0 0 0 0 0 0 0 0 0 0 0 0 0 0 0 0 0 0 0 0 0 0 0 0 0 0 0
0.136067 9.17839e-10 4.95689e-10 4.2215e-10 0.459939 0.0168557 0 0 0 0 0 0 0 0 0 0 0 0 0 0 0 0 0 0 0 0 0 0 0 0 0 0 0 0 0 0 0 0 0 0 0 0 0 0 0 0 0 0
0.143051 9.6263e-10 4.96611e-10 4.66019e-10 0.48411 0.0143876 0 0 0 0 0 0 0 0 0 0 0 0 0 0 0 0 0 0 0 0 0 0 0 0 0 0 0 0 0 0 0 0 0 0 0 0 0 0 0 0 0 0
0.150394 9.68964e-10 4.86269e-10 4.82695e-10 0.498156 0.0122986 0 0 0 0 0 0 0 0 0 0 0 0 0 0 0 0 0 0 0 0 0 0 0 0 0 0 0 0 0 0 0 0 0 0 0 0 0 0 0 0 0 0
0.158114 9.0554e-10 4.74919e-10 4.30621e-10 0.475541 0.01055 0 0 0 0 0 0 0 0 0 0 0 0 0 0 0 0 0 0 0 0 0 0 0 0 0 0 0 0 0 0 0 0 0 0 0 0 0 0 0 0 0 0
0.16623 8.20942e-10 4.64262e-10 3.5668e-10 0.434476 0.00908216 0 0 0 0 0 0 0 0 0 0 0 0 0 0 0 0 0 0 0 0 0 0 0 0 0 0 0 0 0 0 0 0 0 0 0 0 0 0 0 0 0 0
0.174762 7.71178e-10 4.57027e-10 3.14151e-10 0.407365 0.00782097 0 0 0 0 0 0 0 0 0 0 0 0 0 0 0 0 0 0 0 0 0 0 0 0 0 0 0 0 0 0 0 0 0 0 0 0 0 0 0 0 0 0
0.183733 7.65947e-10 4.52183e-10 3.13764e-10 0.409642 0.00667218 0 0 0 0 0 0 0 0 0 0 0 0 0 0 0 0 0 0 0 0 0 0 0 0 0 0 0 0 0 0 0 0 0 0 0 0 0 0 0 0 0 0
0.193164 8.0774e-10 4.51946e-10 3.55794e-10 0.440481 0.00556038 0 0 0 0 0 0 0 0 0 0 0 0 0 0 0 0 0 0 0 0 0 0 0 0 0 0 0 0 0 0 0 0 0 0 0 0 0 0 0 0 0 0
0.203079 8.81689e-10 4.58885e-10 4.22804e-10 0.479539 0.00446034 0 0 0 0 0 0 0 0 0 0 0 0 0 0 0 0 0 0 0 0 0 0 0 0 0 0 0 0 0 0 0 0 0 0 0 0 0 0 0 0 0 0
0.213503 9.66054e-10 4.71938e-10 4.94116e-10 0.511478 0.00342932 0 0 0 0 0 0 0 0 0 0 0 0 0 0 0 0 0 0 0 0 0 0 0 0 0 0 0 0 0 0 0 0 0 0 0 0 0 0 0 0 0 0
0.224463 1.03754e-09 4.82179e-10 5.55358e-10 0.535266 0.00254317 0 0 0 0 0 0 0 0 0 0 0 0 0 0 0 0 0 0 0 0 0 0 0 0 0 0 0 0 0 0 0 0 0 0 0 0 0 0 0 0 0 0
0.235984 1.07865e-09 4.81425e-10 5.9723e-10 0.55368 0.00182186 0 0 0 0 0 0 0 0 0 0 0 0 0 0 0 0 0 0 0 0 0 0 0 0 0 0 0 0 0 0 0 0 0 0 0 0 0 0 0 0 0 0
0.248097 1.09032e-09 4.74644e-10 6.15678e-10 0.564675 0.00138916 0 0 0 0 0 0 0 0 0 0 0 0 0 0 0 0 0 0 0 0 0 0 0 0 0 0 0 0 0 0 0 0 0 0 0 0 0 0 0 0 0 0
0.260832 1.07631e-09 4.66705e-10 6.09607e-10 0.566385 0.00141961 0 0 0 0 0 0 0 0 0 0 0 0 0 0 0 0 0 0 0 0 0 0 0 0 0 0 0 0 0 0 0 0 0 0 0 0 0 0 0 0 0 0
0.274221 1.05214e-09 4.6505e-10 5.87089e-10 0.557995 0.00187131 0 0 0 0 0 0 0 0 0 0 0 0 0 0 0 0 0 0 0 0 0 0 0 0 0 0 0 0 0 0 0 0 0 0 0 0 0 0 0 0 0 0
0.288297 1.03798e-09 4.77634e-10 5.60349e-10 0.539844 0.00251556 0 0 0 0 0 0 0 0 0 0 0 0 0 0 0 0 0 0 0 0 0 0 0 0 0 0 0 0 0 0 0 0 0 0 0 0 0 0 0 0 0 0
0.303095 1.0385e-09 5.01084e-10 5.37412e-10 0.517491 0.0028362 0 0 0 0 0 0 0 0 0 0 0 0 0 0 0 0 0 0 0 0 0 0 0 0 0 0 0 0 0 0 0 0 0 0 0 0 0 0 0 0 0 0
0.318653 1.04968e-09 5.27419e-10 5.22266e-10 0.497545 0.00297223 0 0 0 0 0 0 0 0 0 0 0 0 0 0 0 0 0 0 0 0 0 0 0 0 0 0 0 0 0 0 0 0 0 0 0 0 0 0 0 0 0 0
0.335009 1.06993e-09 5.51852e-10 5.18078e-10 0.484217 0.00293231 0 0 0 0 0 0 0 0 0 0 0 0 0 0 0 0 0 0 0 0 0 0 0 0 0 0 0 0 0 0 0 0 0 0 0 0 0 0 0 0 0 0
0.352205 1.09004e-09 5.70533e-10 5.19505e-10 0.476593 0.00278811 0 0 0 0 0 0 0 0 0 0 0 0 0 0 0 0 0 0 0 0 0 0 0 0 0 0 0 0 0 0 0 0 0 0 0 0 0 0 0 0 0 0
0.370284 1.09938e-09 5.80494e-10 5.18891e-10 0.471983 0.00261033 0 0 0 0 0 0 0 0 0 0 0 0 0 0 0 0 0 0 0 0 0 0 0 0 0 0 0 0 0 0 0 0 0 0 0 0 0 0 0 0 0 0
0.389291 1.09817e-09 5.82125e-10 5.16041e-10 0.469912 0.00243645 0 0 0 0 0 0 0 0 0 0 0 0 0 0 0 0 0 0 0 0 0 0 0 0 0 0 0 0 0 0 0 0 0 0 0 0 0 0 0 0 0 0
0.409273 1.09336e-09 5.78953e-10 5.14403e-10 0.470481 0.00226652 0 0 0 0 0 0 0 0 0 0 0 0 0 0 0 0 0 0 0 0 0 0 0 0 0 0 0 0 0 0 0 0 0 0 0 0 0 0 0 0 0 0
0.430281 1.0912e-09 5.74806e-10 5.16398e-10 0.473237 0.00210471 0 0 0 0 0 0 0 0 0 0 0 0 0 0 0 0 0 0 0 0 0 0 0 0 0 0 0 0 0 0 0 0 0 0 0 0 0 0 0 0 0 0
0.452368 1.09518e-09 5.72688e-10 5.2249e-10 0.477082 0.00193723 0 0 0 0 0 0 0 0 0 0 0 0 0 0 0 0 0 0 0 0 0 0 0 0 0 0 0 0 0 0 0 0 0 0 0 0 0 0 0 0 0 0
0.475588 1.10582e-09 5.74441e-10 5.31383e-10 0.480531 0.00177642 0 0 0 0 0 0 0 0 0 0 0 0 0 0 0 0 0 0 0 0 0 0 0 0 0 0 0 0 0 0 0 0 0 0 0 0 0 0 0 0 0 0
0.5 1.12114e-09 5.80764e-10 5.40376e-10 0.481988 0.00162159 0 0 0 0 0 0 0 0 0 0 0 0 0 0 0 0 0 0 0 0 0 0 0 0 0 0 0 0 0 0 0 0 0 0 0 0 0 0 0 0 0 0
0.525665 1.13668e-09 5.9078e-10 5.45904e-10 0.48026 0.0014751 0 0 0 0 0 0 0 0 0 0 0 0 0 0 0 0 0 0 0 0 0 0 0 0 0 0 0 0 0 0 0 0 0 0 0 0 0 0 0 0 0 0
0.552648 1.14686e-09 6.02329e-10 5.44532e-10 0.474802 0.00134175 0 0 0 0 0 0 0 0 0 0 0 0 0 0 0 0 0 0 0 0 0 0 0 0 0 0 0 0 0 0 0 0 0 0 0 0 0 0 0 0 0 0
0.581015 1.14602e-09 6.12322e-10 5.33698e-10 0.465697 0.00121775 0 0 0 0 0 0 0 0 0 0 0 0 0 0 0 0 0 0 0 0 0 0 0 0 0 0 0 0 0 0 0 0 0 0 0 0 0 0 0 0 0 0
0.610839 1.13039e-09 6.1764e-10 5.12748e-10 0.453604 0.00110516 0 0 0 0 0 0 0 0 0 0 0 0 0 0 0 0 0 0 0 0 0 0 0 0 0 0 0 0 0 0 0 0 0 0 0 0 0 0 0 0 0 0
0.642193 1.09853e-09 6.15991e-10 4.82535e-10 0.439257 0.00100302 0 0 0 0 0 0 0 0 0 0 0 0 0 0 0 0 0 0 0 0 0 0 0 0 0 0 0 0 0 0 0 0 0 0 0 0 0 0 0 0 0 0
0.675157 1.05181e-09 6.06557e-10 4.45255e-10 0.423322 0.000910957 0 0 0 0 0 0 0 0 0 0 0 0 0 0 0 0 0 0 0 0 0 0 0 0 0 0 0 0 0 0 0 0 0 0 0 0 0 0 0 0 0 0
0.709813 9.93527e-10 5.89878e-10 4.03649e-10 0.406279 0.00082817 0 0 0 0 0 0 0 0 0 0 0 0 0 0 0 0 0 0 0 0 0 0 0 0 0 0 0 0 0 0 0 0 0 0 0 0 0 0 0 0 0 0
0.746248 9.2726e-10 5.6713e-10 3.60131e-10 0.388381 0.000754183 0 0 0 0 0 0 0 0 0 0 0 0 0 0 0 0 0 0 0 0 0 0 0 0 0 0 0 0 0 0 0 0 0 0 0 0 0 0 0 0 0 0
0.784553 8.56971e-10 5.39974e-10 3.16997e-10 0.369904 0.000686995 0 0 0 0 0 0 0 0 0 0 0 0 0 0 0 0 0 0 0 0 0 0 0 0 0 0 0 0 0 0 0 0 0 0 0 0 0 0 0 0 0 0
0.824824 7.8562e-10 5.0985e-10 2.7577e-10 0.351022 0.000626788 0 0 0 0 0 0 0 0 0 0 0 0 0 0 0 0 0 0 0 0 0 0 0 0 0 0 0 0 0 0 0 0 0 0 0 0 0 0 0 0 0 0
0.867162 7.15384e-10 4.77931e-10 2.37453e-10 0.331924 0.000572518 0 0 0 0 0 0 0 0 0 0 0 0 0 0 0 0 0 0 0 0 0 0 0 0 0 0 0 0 0 0 0 0 0 0 0 0 0 0 0 0 0 0
0.911674 6.47943e-10 4.45243e-10 2.02701e-10 0.312837 0.000523427 0 0 0 0 0 0 0 0 0 0 0 0 0 0 0 0 0 0 0 0 0 0 0 0 0 0 0 0 0 0 0 0 0 0 0 0 0 0 0 0 0 0
0.95847 5.84176e-10 4.12466e-10 1.71711e-10 0.293937 0.00047944 0 0 0 0 0 0 0 0 0 0 0 0 0 0 0 0 0 0 0 0 0 0 0 0 0 0 0 0 0 0 0 0 0 0 0 0 0 0 0 0 0 0
1.00767 5.24816e-10 3.8028e-10 1.44536e-10 0.275403 0.0004395 0 0 0 0 0 0 0 0 0 0 0 0 0 0 0 0 0 0 0 0 0 0 0 0 0 0 0 0 0 0 0 0 0 0 0 0 0 0 0 0 0 0
1.05939 4.7007e-10 3.49096e-10 1.20974e-10 0.257353 0.000403275 0 0 0 0 0 0 0 0 0 0 0 0 0 0 0 0 0 0 0 0 0 0 0 0 0 0 0 0 0 0 0 0 0 0 0 0 0 0 0 0 0 0
1.11377 4.19933e-10 3.19193e-10 1.00739e-10 0.239894 0.000370298 0 0 0 0 0 0 0 0 0 0 0 0 0 0 0 0 0 0 0 0 0 0 0 0 0 0 0 0 0 0 0 0 0 0 0 0 0 0 0 0 0 0
1.17094 3.74549e-10 2.90958e-10 8.3591e-11 0.223178 0.000339515 0 0 0 0 0 0 0 0 0 0 0 0 0 0 0 0 0 0 0 0 0 0 0 0 0 0 0 0 0 0 0 0 0 0 0 0 0 0 0 0 0 0
1.23105 3.33542e-10 2.64433e-10 6.91089e-11 0.207197 0.000311294 0 0 0 0 0 0 0 0 0 0 0 0 0 0 0 0 0 0 0 0 0 0 0 0 0 0 0 0 0 0 0 0 0 0 0 0 0 0 0 0 0 0
1.29424 2.96745e-10 2.39759e-10 5.69857e-11 0.192036 0.000285362 0 0 0 0 0 0 0 0 0 0 0 0 0 0 0 0 0 0 0 0 0 0 0 0 0 0 0 0 0 0 0 0 0 0 0 0 0 0 0 0 0 0
1.36067 2.63824e-10 2.16941e-10 4.68831e-11 0.177706 0.000261742 0 0 0 0 0 0 0 0 0 0 0 0 0 0 0 0 0 0 0 0 0 0 0 0 0 0 0 0 0 0 0 0 0 0 0 0 0 0 0 0 0 0
1.43051 2.34422e-10 1.95933e-10 3.84891e-11 0.164187 0.000240209 0 0 0 0 0 0 0 0 0 0 0 0 0 0 0 0 0 0 0 0 0 0 0 0 0 0 0 0 0 0 0 0 0 0 0 0 0 0 0 0 0 0
1.50394 2.0828e-10 1.76724e-10 3.1556e-11 0.151508 0.000220279 0 0 0 0 0 0 0 0 0 0 0 0 0 0 0 0 0 0 0 0 0 0 0 0 0 0 0 0 0 0 0 0 0 0 0 0 0 0 0 0 0 0
1.58114 1.85066e-10 1.59221e-10 2.58454e-11 0.139655 0.000201732 0 0 0 0 0 0 0 0 0 0 0 0 0 0 0 0 0 0 0 0 0 0 0 0 0 0 0 0 0 0 0 0 0 0 0 0 0 0 0 0 0 0
1.6623 1.64455e-10 1.43308e-10 2.11469e-11 0.128588 0.000184534 0 0 0 0 0 0 0 0 0 0 0 0 0 0 0 0 0 0 0 0 0 0 0 0 0 0 0 0 0 0 0 0 0 0 0 0 0 0 0 0 0 0
1.74763 1.46179e-10 1.28887e-10 1.72925e-11 0.118297 0.000169005 0 0 0 0 0 0 0 0 0 0 0 0 0 0 0 0 0 0 0 0 0 0 0 0 0 0 0 0 0 0 0 0 0 0 0 0 0 0 0 0 0 0
1.83733 1.29981e-10 1.15848e-10 1.41334e-11 0.108734 0.000154804 0 0 0 0 0 0 0 0 0 0 0 0 0 0 0 0 0 0 0 0 0 0 0 0 0 0 0 0 0 0 0 0 0 0 0 0 0 0 0 0 0 0
1.93164 1.1562e-10 1.04073e-10 1.15465e-11 0.099866 0.000141793 0 0 0 0 0 0 0 0 0 0 0 0 0 0 0 0 0 0 0 0 0 0 0 0 0 0 0 0 0 0 0 0 0 0 0 0 0 0 0 0 0 0
2.03079 1.02884e-10 9.34534e-11 9.4305e-12 0.0916616 0.000129725 0 0 0 0 0 0 0 0 0 0 0 0 0 0 0 0 0 0 0 0 0 0 0 0 0 0 0 0 0 0 0 0 0 0 0 0 0 0 0 0 0 0
2.13503 9.16023e-11 8.38998e-11 7.70249e-12 0.0840862 0.000118657 0 0 0 0 0 0 0 0 0 0 0 0 0 0 0 0 0 0 0 0 0 0 0 0 0 0 0 0 0 0 0 0 0 0 0 0 0 0 0 0 0 0
2.24463 8.15955e-11 7.53053e-11 6.29019e-12 0.0770899 0.000108569 0 0 0 0 0 0 0 0 0 0 0 0 0 0 0 0 0 0 0 0 0 0 0 0 0 0 0 0 0 0 0 0 0 0 0 0 0 0 0 0 0 0
2.35984 7.27199e-11 6.75831e-11 5.13682e-12 0.0706384 9.92926e-05 0 0 0 0 0 0 0 0 0 0 0 0 0 0 0 0 0 0 0 0 0 0 0 0 0 0 0 0 0 0 0 0 0 0 0 0 0 0 0 0 0 0
2.48097 6.48445e-11 6.06496e-11 4.19499e-12 0.064693 9.07218e-05 0 0 0 0 0 0 0 0 0 0 0 0 0 0 0 0 0 0 0 0 0 0 0 0 0 0 0 0 0 0 0 0 0 0 0 0 0 0 0 0 0 0
2.60832 5.7854e-11 5.44279e-11 3.42616e-12 0.0592207 8.27967e-05 0 0 0 0 0 0 0 0 0 0 0 0 0 0 0 0 0 0 0 0 0 0 0 0 0 0 0 0 0 0 0 0 0 0 0 0 0 0 0 0 0 0
2.74221 5.16527e-11 4.88539e-11 2.79879e-12 0.0541848 7.55862e-05 0 0 0 0 0 0 0 0 0 0 0 0 0 0 0 0 0 0 0 0 0 0 0 0 0 0 0 0 0 0 0 0 0 0 0 0 0 0 0 0 0 0
2.88297 4.61393e-11 4.38533e-11 2.28598e-12 0.0495452 6.90729e-05 0 0 0 0 0 0 0 0 0 0 0 0 0 0 0 0 0 0 0 0 0 0 0 0 0 0 0 0 0 0 0 0 0 0 0 0 0 0 0 0 0 0
3.03095 4.12467e-11 3.93789e-11 1.86778e-12 0.0452833 6.31538e-05 0 0 0 0 0 0 0 0 0 0 0 0 0 0 0 0 0 0 0 0 0 0 0 0 0 0 0 0 0 0 0 0 0 0 0 0 0 0 0 0 0 0
3.18653 3.68972e-11 3.53711e-11 1.52609e-12 0.0413606 5.76567e-05 0 0 0 0 0 0 0 0 0 0 0 0 0 0 0 0 0 0 0 0 0 0 0 0 0 0 0 0 0 0 0 0 0 0 0 0 0 0 0 0 0 0
3.35009 3.30318e-11 3.17848e-11 1.247e-12 0.0377514 5.2603e-05 0 0 0 0 0 0 0 0 0 0 0 0 0 0 0 0 0 0 0 0 0 0 0 0 0 0 0 0 0 0 0 0 0 0 0 0 0 0 0 0 0 0
3.52205 2.95973e-11 2.85781e-11 1.01915e-12 0.034434 4.80102e-05 0 0 0 0 0 0 0 0 0 0 0 0 0 0 0 0 0 0 0 0 0 0 0 0 0 0 0 0 0 0 0 0 0 0 0 0 0 0 0 0 0 0
3.70284 2.65437e-11 2.57107e-11 8.32998e-13 0.0313822 4.38066e-05 0 0 0 0 0 0 0 0 0 0 0 0 0 0 0 0 0 0 0 0 0 0 0 0 0 0 0 0 0 0 0 0 0 0 0 0 0 0 0 0 0 0
3.89291 2.38284e-11 2.31475e-11 6.80892e-13 0.0285748 3.9926e-05 0 0 0 0 0 0 0 0 0 0 0 0 0 0 0 0 0 0 0 0 0 0 0 0 0 0 0 0 0 0 0 0 0 0 0 0 0 0 0 0 0 0
4.09273 2.14139e-11 2.08573e-11 5.56685e-13 0.0259964 3.62643e-05 0 0 0 0 0 0 0 0 0 0 0 0 0 0 0 0 0 0 0 0 0 0 0 0 0 0 0 0 0 0 0 0 0 0 0 0 0 0 0 0 0 0
4.30281 1.92665e-11 1.88114e-11 4.55168e-13 0.0236248 3.29535e-05 0 0 0 0 0 0 0 0 0 0 0 0 0 0 0 0 0 0 0 0 0 0 0 0 0 0 0 0 0 0 0 0 0 0 1.4013e-45 0 5.60519e-45 0 1.4013e-44 0 3.92364e-44 0
4.52368 1.73556e-11 1.69834e-11 3.72244e-13 0.0214481 2.99416e-05 0 0 0 0 0 0 0 0 0 0 0 0 0 0 0 0 0 0 0 0 0 0 0 0 0 0 1.4013e-45 0 5.60519e-45 0 1.96182e-44 0 6.72623e-44 0 2.01787e-43 0 5.95552e-43 0 1.60028e-42 0 4.07778e-42 0
4.75588 1.56568e-11 1.53523e-11 3.04468e-13 0.0194464 2.71796e-05 0 0 0 0 0 0 0 0 0 0 0 0 0 0 0 0 0 0 0 0 1.4013e-45 0 7.00649e-45 0 3.50325e-44 0 1.52742e-43 0 5.92749e-43 0 2.06972e-42 0 6.76267e-42 0 1.93603e-41 0 5.41826e-41 0 1.38821e-40 0 3.37937e-40 0
5 1.41418e-11 1.38928e-11 2.49026e-13 0.0176092 2.45398e-05 0 0 0 0 0 0 0 0 0 0 0 0 0 0 0 0 1.4013e-45 0 1.82169e-44 0 1.27518e-43 0 7.37083e-43 0 3.58032e-42 0 1.45763e-41 0 5.31134e-41 0 1.74497e-40 0 5.38121e-40 0 1.4634e-39 0 3.89502e-39 0 9.53122e-39 0 2.2216e-38 0
5.25665 1.27943e-11 1.25906e-11 2.03726e-13 0.0159232 2.21678e-05 0 0 0 0 0 0 0 0 0 0 0 0 1.4013e-45 0 1.96182e-44 0 2.28412e-43 0 1.91417e-42 0 1.21366e-41 0 6.4328e-41 0 2.89377e-40 0 1.09993e-39 0 3.76257e-39 0 1.1664e-38 0 3.40454e-38 0 8.81718e-38 0 2.23727e-37 0 5.24061e-37 0 1.17208e-36 0
5.52648 1.15931e-11 1.14265e-11 1.66676e-13 0.0143771 2.00489e-05 0 0 0 0 0 0 0 0 0 0 4.2039e-45 0 1.31722e-43 0 2.04449e-42 0 2.07785e-41 0 1.57011e-40 0 9.09647e-40 0 4.44458e-39 0 1.85785e-38 0 6.61604e-38 0 2.13128e-37 0 6.25192e-37 0 1.73185e-36 0 4.28159e-36 0 1.03812e-35 0 2.33273e-35 0 5.01617e-35 0
5.81015 1.05219e-11 1.03856e-11 1.36376e-13 0.0129611 1.8115e-05 0 0 0 0 0 0 0 0 8.40779e-45 0 4.94658e-43 0 1.21465e-41 0 1.6459e-40 0 1.49381e-39 0 1.02267e-38 0 5.43783e-38 0 2.45892e-37 0 9.5851e-37 0 3.20814e-36 0 9.76095e-36 0 2.71672e-35 0 7.16042e-35 0 1.69371e-34 0 3.93282e-34 0 8.49479e-34 0 1.75964e-33 0
6.10839 9.56457e-12 9.45294e-12 1.11638e-13 0.011672 1.63023e-05 0 0 0 0 0 0 5.60519e-45 0 8.96831e-43 0 4.20656e-41 0 8.82707e-40 0 1.05315e-38 0 8.58247e-38 0 5.34887e-37 0 2.62134e-36 0 1.10115e-35 0 4.01653e-35 0 1.26734e-34 0 3.65205e-34 0 9.66907e-34 0 2.43069e-33 0 5.51283e-33 0 1.2285e-32 0 2.55562e-32 0 5.10889e-32 0
6.42193 8.66226e-12 8.57114e-12 9.1126e-14 0.0105199 1.48144e-05 0 0 0 0 0 0 5.49309e-43 0 7.25102e-41 0 2.81823e-39 0 5.09714e-38 0 5.38805e-37 0 3.96342e-36 0 2.25903e-35 0 1.02443e-34 0 4.01211e-34 0 1.37384e-33 0 4.09839e-33 0 1.12154e-32 0 2.83151e-32 0 6.80481e-32 0 1.48285e-31 0 3.17767e-31 0 6.37817e-31 0 1.23265e-30 0
6.75157 7.95061e-12 7.87594e-12 7.46697e-14 0.0093917 1.32279e-05 0 0 0 0 4.34403e-44 0 4.52647e-41 0 4.71313e-39 0 1.53207e-37 0 2.40569e-36 0 2.26644e-35 0 1.51241e-34 0 7.91803e-34 0 3.33519e-33 0 1.22198e-32 0 3.9403e-32 0 1.11437e-31 0 2.90327e-31 0 7.00572e-31 0 1.61309e-30 0 3.38395e-30 0 6.98671e-30 0 1.35546e-29 0 2.53664e-29 0
7.09813 7.27128e-12 7.21016e-12 6.11167e-14 0.00840522 1.18448e-05 0 0 0 0 4.02173e-42 0 2.95076e-39 0 2.44898e-37 0 6.71635e-36 0 9.2194e-35 0 7.7848e-34 0 4.73507e-33 0 2.28651e-32 0 8.97811e-32 0 3.08741e-31 0 9.40231e-31 0 2.5275e-30 0 6.28411e-30 0 1.45255e-29 0 3.21109e-29 0 6.49693e-29 0 1.29475e-28 0 2.43191e-28 0 4.41398e-28 0
7.46248 6.66331e-12 6.61329e-12 5.00211e-14 0.00750695 1.05694e-05 0 0 2.8026e-45 0 2.908e-40 0 1.54593e-37 0 1.03406e-35 0 2.41255e-34 0 2.9141e-33 0 2.21724e-32 0 1.23483e-31 0 5.52162e-31 0 2.02804e-30 0 6.56595e-30 0 1.89376e-29 0 4.85079e-29 0 1.15359e-28 0 2.55961e-28 0 5.44345e-28 0 1.06411e-27 0 2.05042e-27 0 3.73455e-27 0 6.58388e-27 0
7.84553 6.11953e-12 6.07859e-12 4.0943e-14 0.00669055 9.34187e-06 0 0 2.34017e-43 0 1.68175e-38 0 6.58081e-36 0 3.5852e-34 0 7.17227e-33 0 7.67108e-32 0 5.28609e-31 0 2.70719e-30 0 1.12517e-29 0 3.87832e-29 0 1.18564e-28 0 3.24727e-28 0 7.94443e-28 0 1.81107e-27 0 3.86506e-27 0 7.92239e-27 0 1.49884e-26 0 2.79707e-26 0 4.9475e-26 0 8.48412e-26 0
8.24824 5.63221e-12 5.5987e-12 3.35117e-14 0.00595 8.19911e-06 0 0 1.89301e-41 0 7.8649e-37 0 2.29951e-34 0 1.03062e-32 0 1.78121e-31 0 1.69694e-30 0 1.06418e-29 0 5.03228e-29 0 1.951e-28 0 6.33056e-28 0 1.83255e-27 0 4.77814e-27 0 1.11901e-26 0 2.45037e-26 0 5.03941e-26 0 9.97382e-26 0 1.82912e-25 0 3.31101e-25 0 5.69573e-25 0 9.51339e-25 0
8.67162 5.19596e-12 5.16853e-12 2.74317e-14 0.00527944 7.20916e-06 1.4013e-44 0 1.21615e-39 0 3.00634e-35 0 6.66165e-33 0 2.47979e-31 0 3.72911e-30 0 3.18244e-29 0 1.82465e-28 0 7.99806e-28 0 2.90231e-27 0 8.89143e-27 0 2.4437e-26 0 6.08037e-26 0 1.36603e-25 0 2.87898e-25 0 5.71607e-25 0 1.09422e-24 0 1.94816e-24 0 3.42579e-24 0 5.73915e-24 0 9.3488e-24 0
9.11674 4.80473e-12 4.78228e-12 2.24554e-14 0.0046736 6.32492e-06 1.30321e-42 0 6.28846e-38 0 9.48658e-34 0 1.61486e-31 0 5.03818e-30 0 6.63727e-29 0 5.1013e-28 0 2.68579e-27 0 1.09532e-26 0 3.73226e-26 0 1.08258e-25 0 2.83203e-25 0 6.73986e-25 0 1.45552e-24 0 2.95794e-24 0 5.67943e-24 0 1.05328e-23 0 1.82319e-23 0 3.11888e-23 0 5.09501e-23 0 8.10415e-23 0
9.5847 4.45398e-12 4.4356e-12 1.8382e-14 0.00412708 5.52644e-06 9.28739e-41 0 2.64569e-36 0 2.49511e-32 0 3.30512e-30 0 8.71718e-29 0 1.01256e-27 0 7.04484e-27 0 3.42012e-26 0 1.30228e-25 0 4.17964e-25 0 1.15092e-24 0 2.87273e-24 0 6.55334e-24 0 1.36303e-23 0 2.67571e-23 0 4.97648e-23 0 8.95496e-23 0 1.5091e-22 0 2.51479e-22 0 4.0109e-22 0 6.23681e-22 0
10.0767 4.14028e-12 4.12523e-12 1.50496e-14 0.00363492 4.78203e-06 5.3011e-39 0 9.15203e-35 0 5.52096e-31 0 5.76106e-29 0 1.2951e-27 0 1.3346e-26 0 8.44629e-26 0 3.79607e-25 0 1.35409e-24 0 4.10541e-24 0 1.07593e-23 0 2.56826e-23 0 5.62755e-23 0 1.12936e-22 0 2.14519e-22 0 3.87072e-22 0 6.76824e-22 0 1.1119e-21 0 1.80725e-21 0 2.81748e-21 0 4.28766e-21 0
