# 1.9953e-06 0 70 : grain size, compostion index, size index
# Heating and cooling timescale: 6.77557 3138.28
# Ratio of heating to cooling to determine stochastic cutoff: 100
# Equilibrium emission is recorded even for those grains in the stochastic regime.
# Emission spectrum was computed for: 
# Type: IRSF
# Scales: 0.25 0.5 1 1.5 2 2.5 3 3.5 4 4.5 5 5.5 6 6.5 7 7.5 8 8.5 9 9.5 10
# StochasticallyHeated: 1 1 1 1 1 0 0 0 0 0 0 0 0 0 0 0 0 0 0 0 0
# Temperature: -1
# Wavelength  CExt  CAbs  CSca  Albedo G EqEm1 StEm1 EqEm2 StEm2 EqEm3 StEm3 EqEm4 StEm4 EqEm5 StEm5 EqEm6 StEm6 EqEm7 StEm7 EqEm8 StEm8 EqEm9 StEm9 EqEm10 StEm10 EqEm11 StEm11 EqEm12 StEm12 EqEm13 StEm13 EqEm14 StEm14 EqEm15 StEm15 EqEm16 StEm16 EqEm17 StEm17 EqEm18 StEm18 EqEm19 StEm19 EqEm20 StEm20 EqEm21 StEm21
0.05 9.34145e-12 5.32945e-12 4.01199e-12 0.429483 0.00576547 0 0 0 0 0 0 0 0 0 0 0 0 0 0 0 0 0 0 0 0 0 0 0 0 0 0 0 0 0 0 0 0 0 0 0 0 0 0 0 0 0 0
0.0525665 1.03251e-11 5.89062e-12 4.43443e-12 0.429483 0.00637255 0 0 0 0 0 0 0 0 0 0 0 0 0 0 0 0 0 0 0 0 0 0 0 0 0 0 0 0 0 0 0 0 0 0 0 0 0 0 0 0 0 0
0.0552647 1.14122e-11 6.51087e-12 4.90136e-12 0.429483 0.00704355 0 0 0 0 0 0 0 0 0 0 0 0 0 0 0 0 0 0 0 0 0 0 0 0 0 0 0 0 0 0 0 0 0 0 0 0 0 0 0 0 0 0
0.0581015 1.26139e-11 7.19644e-12 5.41745e-12 0.429483 0.0077852 0 0 0 0 0 0 0 0 0 0 0 0 0 0 0 0 0 0 0 0 0 0 0 0 0 0 0 0 0 0 0 0 0 0 0 0 0 0 0 0 0 0
0.0610839 1.39421e-11 7.95419e-12 5.98788e-12 0.429483 0.00860494 0 0 0 0 0 0 0 0 0 0 0 0 0 0 0 0 0 0 0 0 0 0 0 0 0 0 0 0 0 0 0 0 0 0 0 0 0 0 0 0 0 0
0.0642193 1.54101e-11 8.79172e-12 6.61837e-12 0.429483 0.009511 0 0 0 0 0 0 0 0 0 0 0 0 0 0 0 0 0 0 0 0 0 0 0 0 0 0 0 0 0 0 0 0 0 0 0 0 0 0 0 0 0 0
0.0675157 1.70327e-11 9.71745e-12 7.31526e-12 0.429483 0.0105125 0 0 0 0 0 0 0 0 0 0 0 0 0 0 0 0 0 0 0 0 0 0 0 0 0 0 0 0 0 0 0 0 0 0 0 0 0 0 0 0 0 0
0.0709813 1.88262e-11 1.07406e-11 8.08551e-12 0.429483 0.0116194 0 0 0 0 0 0 0 0 0 0 0 0 0 0 0 0 0 0 0 0 0 0 0 0 0 0 0 0 0 0 0 0 0 0 0 0 0 0 0 0 0 0
0.0746248 2.08085e-11 1.18716e-11 8.93688e-12 0.429483 0.0128428 0 0 0 0 0 0 0 0 0 0 0 0 0 0 0 0 0 0 0 0 0 0 0 0 0 0 0 0 0 0 0 0 0 0 0 0 0 0 0 0 0 0
0.0784553 2.29995e-11 1.31216e-11 9.87789e-12 0.429483 0.0141951 0 0 0 0 0 0 0 0 0 0 0 0 0 0 0 0 0 0 0 0 0 0 0 0 0 0 0 0 0 0 0 0 0 0 0 0 0 0 0 0 0 0
0.0824824 2.54212e-11 1.45032e-11 1.0918e-11 0.429483 0.0156898 0 0 0 0 0 0 0 0 0 0 0 0 0 0 0 0 0 0 0 0 0 0 0 0 0 0 0 0 0 0 0 0 0 0 0 0 0 0 0 0 0 0
0.0867162 2.8098e-11 1.60304e-11 1.20676e-11 0.429483 0.0173419 0 0 0 0 0 0 0 0 0 0 0 0 0 0 0 0 0 0 0 0 0 0 0 0 0 0 0 0 0 0 0 0 0 0 0 0 0 0 0 0 0 0
0.0911674 3.10566e-11 1.77183e-11 1.33383e-11 0.429483 0.0191679 0 0 0 0 0 0 0 0 0 0 0 0 0 0 0 0 0 0 0 0 0 0 0 0 0 0 0 0 0 0 0 0 0 0 0 0 0 0 0 0 0 0
0.095847 3.43267e-11 1.9584e-11 1.47427e-11 0.429483 0.0211862 0 0 0 0 0 0 0 0 0 0 0 0 0 0 0 0 0 0 0 0 0 0 0 0 0 0 0 0 0 0 0 0 0 0 0 0 0 0 0 0 0 0
0.100767 3.7315e-11 2.13407e-11 1.59743e-11 0.428094 0.0235692 0 0 0 0 0 0 0 0 0 0 0 0 0 0 0 0 0 0 0 0 0 0 0 0 0 0 0 0 0 0 0 0 0 0 0 0 0 0 0 0 0 0
0.105939 3.58975e-11 2.11984e-11 1.46991e-11 0.409474 0.0256046 0 0 0 0 0 0 0 0 0 0 0 0 0 0 0 0 0 0 0 0 0 0 0 0 0 0 0 0 0 0 0 0 0 0 0 0 0 0 0 0 0 0
0.111377 3.54802e-11 2.09256e-11 1.45546e-11 0.410217 0.0289403 0 0 0 0 0 0 0 0 0 0 0 0 0 0 0 0 0 0 0 0 0 0 0 0 0 0 0 0 0 0 0 0 0 0 0 0 0 0 0 0 0 0
0.117094 3.141e-11 1.7939e-11 1.34709e-11 0.428875 0.0274507 0 0 0 0 0 0 0 0 0 0 0 0 0 0 0 0 0 0 0 0 0 0 0 0 0 0 0 0 0 0 0 0 0 0 0 0 0 0 0 0 0 0
0.123105 2.17579e-11 1.23145e-11 9.4434e-12 0.434022 0.0236555 0 0 0 0 0 0 0 0 0 0 0 0 0 0 0 0 0 0 0 0 0 0 0 0 0 0 0 0 0 0 0 0 0 0 0 0 0 0 0 0 0 0
0.129424 1.51983e-11 9.06786e-12 6.13039e-12 0.403361 0.0199126 0 0 0 0 0 0 0 0 0 0 0 0 0 0 0 0 0 0 0 0 0 0 0 0 0 0 0 0 0 0 0 0 0 0 0 0 0 0 0 0 0 0
0.136067 1.15302e-11 7.59314e-12 3.93702e-12 0.341454 0.0168557 0 0 0 0 0 0 0 0 0 0 0 0 0 0 0 0 0 0 0 0 0 0 0 0 0 0 0 0 0 0 0 0 0 0 0 0 0 0 0 0 0 0
0.143051 9.50114e-12 6.99034e-12 2.5108e-12 0.264263 0.0143876 0 0 0 0 0 0 0 0 0 0 0 0 0 0 0 0 0 0 0 0 0 0 0 0 0 0 0 0 0 0 0 0 0 0 0 0 0 0 0 0 0 0
0.150394 8.52994e-12 6.93309e-12 1.59685e-12 0.187206 0.0122986 0 0 0 0 0 0 0 0 0 0 0 0 0 0 0 0 0 0 0 0 0 0 0 0 0 0 0 0 0 0 0 0 0 0 0 0 0 0 0 0 0 0
0.158114 8.3809e-12 7.33894e-12 1.04196e-12 0.124326 0.01055 0 0 0 0 0 0 0 0 0 0 0 0 0 0 0 0 0 0 0 0 0 0 0 0 0 0 0 0 0 0 0 0 0 0 0 0 0 0 0 0 0 0
0.16623 8.95432e-12 8.19558e-12 7.58741e-13 0.0847346 0.00908216 0 0 0 0 0 0 0 0 0 0 0 0 0 0 0 0 0 0 0 0 0 0 0 0 0 0 0 0 0 0 0 0 0 0 0 0 0 0 0 0 0 0
0.174762 1.00954e-11 9.4232e-12 6.72179e-13 0.0665829 0.00782097 0 0 0 0 0 0 0 0 0 0 0 0 0 0 0 0 0 0 0 0 0 0 0 0 0 0 0 0 0 0 0 0 0 0 0 0 0 0 0 0 0 0
0.183733 1.19189e-11 1.1171e-11 7.47889e-13 0.0627483 0.00667218 0 0 0 0 0 0 0 0 0 0 0 0 0 0 0 0 0 0 0 0 0 0 0 0 0 0 0 0 0 0 0 0 0 0 0 0 0 0 0 0 0 0
0.193164 1.50082e-11 1.39479e-11 1.06031e-12 0.0706486 0.00556038 0 0 0 0 0 0 0 0 0 0 0 0 0 0 0 0 0 0 0 0 0 0 0 0 0 0 0 0 0 0 0 0 0 0 0 0 0 0 0 0 0 0
0.203079 1.96607e-11 1.7975e-11 1.68576e-12 0.0857422 0.00446034 0 0 0 0 0 0 0 0 0 0 0 0 0 0 0 0 0 0 0 0 0 0 0 0 0 0 0 0 0 0 0 0 0 0 0 0 0 0 0 0 0 0
0.213503 2.50442e-11 2.24701e-11 2.57408e-12 0.102782 0.00342932 0 0 0 0 0 0 0 0 0 0 0 0 0 0 0 0 0 0 0 0 0 0 0 0 0 0 0 0 0 0 0 0 0 0 0 0 0 0 0 0 0 0
0.224463 2.80581e-11 2.47497e-11 3.30831e-12 0.117909 0.00254317 0 0 0 0 0 0 0 0 0 0 0 0 0 0 0 0 0 0 0 0 0 0 0 0 0 0 0 0 0 0 0 0 0 0 0 0 0 0 0 0 0 0
0.235984 2.60429e-11 2.26999e-11 3.34302e-12 0.128366 0.00182186 0 0 0 0 0 0 0 0 0 0 0 0 0 0 0 0 0 0 0 0 0 0 0 0 0 0 0 0 0 0 0 0 0 0 0 0 0 0 0 0 0 0
0.248097 2.08762e-11 1.80935e-11 2.7827e-12 0.133296 0.00138916 0 0 0 0 0 0 0 0 0 0 0 0 0 0 0 0 0 0 0 0 0 0 0 0 0 0 0 0 0 0 0 0 0 0 0 0 0 0 0 0 0 0
0.260832 1.565e-11 1.35764e-11 2.07367e-12 0.132503 0.00141961 0 0 0 0 0 0 0 0 0 0 0 0 0 0 0 0 0 0 0 0 0 0 0 0 0 0 0 0 0 0 0 0 0 0 0 0 0 0 0 0 0 0
0.274221 1.16899e-11 1.02164e-11 1.47354e-12 0.126052 0.00187131 0 0 0 0 0 0 0 0 0 0 0 0 0 0 0 0 0 0 0 0 0 0 0 0 0 0 0 0 0 0 0 0 0 0 0 0 0 0 0 0 0 0
0.288297 8.92819e-12 7.89257e-12 1.03562e-12 0.115995 0.00251556 0 0 0 0 0 0 0 0 0 0 0 0 0 0 0 0 0 0 0 0 0 0 0 0 0 0 0 0 0 0 0 0 0 0 0 0 0 0 0 0 0 0
0.303095 7.03342e-12 6.29743e-12 7.35995e-13 0.104642 0.0028362 0 0 0 0 0 0 0 0 0 0 0 0 0 0 0 0 0 0 0 0 0 0 0 0 0 0 0 0 0 0 0 0 0 0 0 0 0 0 0 0 0 0
0.318653 5.81458e-12 5.27922e-12 5.3536e-13 0.0920721 0.00297223 0 0 0 0 0 0 0 0 0 0 0 0 0 0 0 0 0 0 0 0 0 0 0 0 0 0 0 0 0 0 0 0 0 0 0 0 0 0 0 0 0 0
0.335009 5.08463e-12 4.68376e-12 4.00875e-13 0.0788404 0.00293231 0 0 0 0 0 0 0 0 0 0 0 0 0 0 0 0 0 0 0 0 0 0 0 0 0 0 0 0 0 0 0 0 0 0 0 0 0 0 0 0 0 0
0.352205 4.64411e-12 4.33501e-12 3.09106e-13 0.0665586 0.00278811 0 0 0 0 0 0 0 0 0 0 0 0 0 0 0 0 0 0 0 0 0 0 0 0 0 0 0 0 0 0 0 0 0 0 0 0 0 0 0 0 0 0
0.370284 4.34841e-12 4.10381e-12 2.44602e-13 0.0562508 0.00261033 0 0 0 0 0 0 0 0 0 0 0 0 0 0 0 0 0 0 0 0 0 0 0 0 0 0 0 0 0 0 0 0 0 0 0 0 0 0 0 0 0 0
0.389291 4.1073e-12 3.90987e-12 1.97435e-13 0.0480693 0.00243645 0 0 0 0 0 0 0 0 0 0 0 0 0 0 0 0 0 0 0 0 0 0 0 0 0 0 0 0 0 0 0 0 0 0 0 0 0 0 0 0 0 0
0.409273 3.8732e-12 3.71189e-12 1.61311e-13 0.0416481 0.00226652 0 0 0 0 0 0 0 0 0 0 0 0 0 0 0 0 0 0 0 0 0 0 0 0 0 0 0 0 0 0 0 0 0 0 0 0 0 0 0 0 0 0
0.430281 3.63043e-12 3.4979e-12 1.32537e-13 0.0365071 0.00210471 0 0 0 0 0 0 0 0 0 0 0 0 0 0 0 0 0 0 0 0 0 0 0 0 0 0 0 0 0 0 0 0 0 0 0 0 0 0 0 0 0 0
0.452368 3.38248e-12 3.27345e-12 1.0903e-13 0.0322338 0.00193723 0 0 0 0 0 0 0 0 0 0 0 0 0 0 0 0 0 0 0 0 0 0 0 0 0 0 0 0 0 0 0 0 0 0 0 0 0 0 0 0 0 0
0.475588 3.14018e-12 3.05056e-12 8.96181e-14 0.0285391 0.00177642 0 0 0 0 0 0 0 0 0 0 0 0 0 0 0 0 0 0 0 0 0 0 0 0 0 0 0 0 0 0 0 0 0 0 0 0 0 0 0 0 0 0
0.5 2.91317e-12 2.83959e-12 7.35779e-14 0.025257 0.00162159 0 0 0 0 0 0 0 0 0 0 0 0 0 0 0 0 0 0 0 0 0 0 0 0 0 0 0 0 0 0 0 0 0 0 0 0 0 0 0 0 0 0
0.525665 2.70775e-12 2.64738e-12 6.03721e-14 0.022296 0.0014751 0 0 0 0 0 0 0 0 0 0 0 0 0 0 0 0 0 0 0 0 0 0 0 0 0 0 0 0 0 0 0 0 0 0 0 0 0 0 0 0 0 0
0.552648 2.52561e-12 2.47606e-12 4.95495e-14 0.0196189 0.00134175 0 0 0 0 0 0 0 0 0 0 0 0 0 0 0 0 0 0 0 0 0 0 0 0 0 0 0 0 0 0 0 0 0 0 0 0 0 0 0 0 0 0
0.581015 2.36592e-12 2.32521e-12 4.07142e-14 0.0172086 0.00121775 0 0 0 0 0 0 0 0 0 0 0 0 0 0 0 0 0 0 0 0 0 0 0 0 0 0 0 0 0 0 0 0 0 0 0 0 0 0 0 0 0 0
0.610839 2.22588e-12 2.19237e-12 3.35101e-14 0.0150548 0.00110516 0 0 0 0 0 0 0 0 0 0 0 0 0 0 0 0 0 0 0 0 0 0 0 0 0 0 0 0 0 0 0 0 0 0 0 0 0 0 0 0 0 0
0.642193 2.10189e-12 2.07424e-12 2.76428e-14 0.0131514 0.00100302 0 0 0 0 0 0 0 0 0 0 0 0 0 0 0 0 0 0 0 0 0 0 0 0 0 0 0 0 0 0 0 0 0 0 0 0 0 0 0 0 0 0
0.675157 1.99045e-12 1.9676e-12 2.28556e-14 0.0114826 0.000910957 0 0 0 0 0 0 0 0 0 0 0 0 0 0 0 0 0 0 0 0 0 0 0 0 0 0 0 0 0 0 0 0 0 0 0 0 0 0 0 0 0 0
0.709813 1.88836e-12 1.86941e-12 1.89421e-14 0.010031 0.00082817 0 0 0 0 0 0 0 0 0 0 0 0 0 0 0 0 0 0 0 0 0 0 0 0 0 0 0 0 0 0 0 0 0 0 0 0 0 0 0 0 0 0
0.746248 1.79275e-12 1.77702e-12 1.57304e-14 0.00877447 0.000754183 0 0 0 0 0 0 0 0 0 0 0 0 0 0 0 0 0 0 0 0 0 0 0 0 0 0 0 0 0 0 0 0 0 0 0 0 0 0 0 0 0 0
0.784553 1.70158e-12 1.68849e-12 1.30864e-14 0.00769075 0.000686995 0 0 0 0 0 0 0 0 0 0 0 0 0 0 0 0 0 0 0 0 0 0 0 0 0 0 0 0 0 0 0 0 0 0 0 0 0 0 0 0 0 0
0.824824 1.61325e-12 1.60235e-12 1.09026e-14 0.00675816 0.000626788 0 0 0 0 0 0 0 0 0 0 0 0 0 0 0 0 0 0 0 0 0 0 0 0 0 0 0 0 0 0 0 0 0 0 0 0 0 0 0 0 0 0
0.867162 1.52678e-12 1.51769e-12 9.09149e-15 0.00595467 0.000572518 0 0 0 0 0 0 0 0 0 0 0 0 0 0 0 0 0 0 0 0 0 0 0 0 0 0 0 0 0 0 0 0 0 0 0 0 0 0 0 0 0 0
0.911674 1.44185e-12 1.43426e-12 7.58531e-15 0.00526082 0.000523427 0 0 0 0 0 0 0 0 0 0 0 0 0 0 0 0 0 0 0 0 0 0 0 0 0 0 0 0 0 0 0 0 0 0 0 0 0 0 0 0 0 0
0.95847 1.35851e-12 1.35218e-12 6.32933e-15 0.00465903 0.00047944 0 0 0 0 0 0 0 0 0 0 0 0 0 0 0 0 0 0 0 0 0 0 0 0 0 0 0 0 0 0 0 0 0 0 0 0 0 0 0 0 0 0
1.00767 1.27858e-12 1.2733e-12 5.28081e-15 0.00413022 0.0004395 0 0 0 0 0 0 0 0 0 0 0 0 0 0 0 0 0 0 0 0 0 0 0 0 0 0 0 0 0 0 0 0 0 0 0 0 0 0 0 0 0 0
1.05939 1.20443e-12 1.20002e-12 4.40378e-15 0.00365632 0.000403275 0 0 0 0 0 0 0 0 0 0 0 0 0 0 0 0 0 0 0 0 0 0 0 0 0 0 0 0 0 0 0 0 0 0 0 0 0 0 0 0 0 0
1.11377 1.11678e-12 1.11311e-12 3.66852e-15 0.00328491 0.000370298 0 0 0 0 0 0 0 0 0 0 0 0 0 0 0 0 0 0 0 0 0 0 0 0 0 0 0 0 0 0 0 0 0 0 0 0 0 0 0 0 0 0
1.17094 1.03906e-12 1.03601e-12 3.05497e-15 0.00294012 0.000339515 0 0 0 0 0 0 0 0 0 0 0 0 0 0 0 0 0 0 0 0 0 0 0 0 0 0 0 0 0 0 0 0 0 0 0 0 0 0 0 0 0 0
1.23105 9.6588e-13 9.63339e-13 2.54063e-15 0.00263038 0.000311294 0 0 0 0 0 0 0 0 0 0 0 0 0 0 0 0 0 0 0 0 0 0 0 0 0 0 0 0 0 0 0 0 0 0 0 0 0 0 0 0 0 0
1.29424 8.94563e-13 8.92451e-13 2.11114e-15 0.00235997 0.000285362 0 0 0 0 0 0 0 0 0 0 0 0 0 0 0 0 0 0 0 0 0 0 0 0 0 0 0 0 0 0 0 0 0 0 0 0 0 0 0 0 0 0
1.36067 8.25483e-13 8.23731e-13 1.75237e-15 0.00212284 0.000261742 0 0 0 0 0 0 0 0 0 0 0 0 0 0 0 0 0 0 0 0 0 0 0 0 0 0 0 0 0 0 0 0 0 0 0 0 0 0 0 0 0 0
1.43051 7.60664e-13 7.59212e-13 1.45259e-15 0.00190963 0.000240209 0 0 0 0 0 0 0 0 0 0 0 0 0 0 0 0 0 0 0 0 0 0 0 0 0 0 0 0 0 0 0 0 0 0 0 0 0 0 0 0 0 0
1.50394 6.99887e-13 6.98684e-13 1.20304e-15 0.0017189 0.000220279 0 0 0 0 0 0 0 0 0 0 0 0 0 0 0 0 0 0 0 0 0 0 0 0 0 0 0 0 0 0 0 0 0 0 0 0 0 0 0 0 0 0
1.58114 6.42968e-13 6.41973e-13 9.95513e-16 0.00154831 0.000201732 0 0 0 0 0 0 0 0 0 0 0 0 0 0 0 0 0 0 0 0 0 0 0 0 0 0 0 0 0 0 0 0 0 0 0 0 0 0 0 0 0 0
1.6623 5.89777e-13 5.88954e-13 8.22885e-16 0.00139525 0.000184534 0 0 0 0 0 0 0 0 0 0 0 0 0 0 0 0 0 0 0 0 0 0 0 0 0 0 0 0 0 0 0 0 0 0 0 0 0 0 0 0 0 0
1.74763 5.40288e-13 5.39608e-13 6.79648e-16 0.00125794 0.000169005 0 0 0 0 0 0 0 0 0 0 0 0 0 0 0 0 0 0 0 0 0 0 0 0 0 0 0 0 0 0 0 0 0 0 0 0 0 0 0 0 0 0
1.83733 4.94353e-13 4.93792e-13 5.60878e-16 0.00113457 0.000154804 0 0 0 0 0 0 0 0 0 0 0 0 0 0 0 0 0 0 0 0 0 0 0 0 0 0 0 0 0 0 0 0 0 0 0 0 0 0 0 0 0 0
1.93164 4.51846e-13 4.51383e-13 4.62466e-16 0.0010235 0.000141793 0 0 0 0 0 0 0 0 0 0 0 0 0 0 0 0 0 0 0 0 0 0 0 0 0 0 0 0 0 0 0 0 0 0 0 0 0 0 0 0 0 0
2.03079 4.12706e-13 4.12325e-13 3.81047e-16 0.000923289 0.000129725 0 0 0 0 0 0 0 0 0 0 0 0 0 0 0 0 0 0 0 0 0 0 0 0 0 0 0 0 0 0 0 0 0 0 0 0 0 0 0 0 0 0
2.13503 3.76681e-13 3.76368e-13 3.13804e-16 0.000833076 0.000118657 0 0 0 0 0 0 0 0 0 0 0 0 0 0 0 0 0 0 0 0 0 0 0 0 0 0 0 0 0 0 0 0 0 0 0 0 0 0 0 0 0 0
2.24463 3.43562e-13 3.43303e-13 2.58247e-16 0.000751675 0.000108569 0 0 0 0 0 0 0 0 0 0 0 0 0 0 0 0 0 0 0 0 0 0 0 0 0 0 0 0 0 0 0 0 0 0 0 0 0 0 0 0 0 0
2.35984 3.13196e-13 3.12983e-13 2.12431e-16 0.000678268 9.92926e-05 0 0 0 0 0 0 0 0 0 0 0 0 0 0 0 0 0 0 0 0 0 0 0 0 0 0 0 0 0 0 0 0 0 0 0 0 0 0 0 0 0 0
2.48097 2.85403e-13 2.85229e-13 1.74644e-16 0.000611919 9.07218e-05 0 0 0 0 0 0 0 0 0 0 0 0 0 0 0 0 0 0 0 0 0 0 0 0 0 0 0 0 0 0 0 0 0 0 0 0 0 0 0 0 0 0
2.60832 2.6e-13 2.59856e-13 1.43523e-16 0.000552013 8.27967e-05 0 0 0 0 0 0 0 0 0 0 0 0 0 0 0 0 0 0 0 0 0 0 0 0 0 0 0 0 0 0 0 0 0 0 0 0 0 0 0 0 0 0
2.74221 2.36822e-13 2.36704e-13 1.17913e-16 0.000497898 7.55862e-05 0 0 0 0 0 0 0 0 0 0 0 0 0 0 0 0 0 0 0 0 0 0 0 0 0 0 0 0 0 0 0 0 0 0 0 0 0 0 0 0 0 0
2.88297 2.15662e-13 2.15565e-13 9.68196e-17 0.000448942 6.90729e-05 0 0 0 0 0 0 0 0 0 0 0 0 0 0 0 0 0 0 0 0 0 0 0 0 0 0 0 0 0 0 0 0 0 0 0 0 0 0 0 0 0 0
3.03095 1.96409e-13 1.96329e-13 7.94909e-17 0.000404722 6.31538e-05 0 0 0 0 0 0 0 0 0 0 0 0 0 0 0 0 0 0 0 0 0 0 0 0 0 0 0 0 0 0 0 0 0 0 0 0 0 0 0 0 0 0
3.18653 1.78877e-13 1.78812e-13 6.5236e-17 0.000364698 5.76567e-05 0 0 0 0 0 0 0 0 0 0 0 0 0 0 0 0 0 0 0 0 0 0 0 0 0 0 0 0 0 0 0 0 0 0 0 0 0 0 0 0 0 0
3.35009 1.62976e-13 1.62923e-13 5.35227e-17 0.000328408 5.2603e-05 0 0 0 0 0 0 0 0 0 0 0 0 0 0 0 0 0 0 0 0 0 0 0 0 0 0 0 0 0 0 0 0 0 0 0 0 0 0 0 0 0 0
3.52205 1.48428e-13 1.48384e-13 4.39059e-17 0.000295807 4.80102e-05 0 0 0 0 0 0 0 0 0 0 0 0 0 0 0 0 0 0 0 0 0 0 0 0 0 0 0 0 0 0 0 0 0 0 0 0 0 0 0 0 0 0
3.70284 1.35266e-13 1.3523e-13 3.60069e-17 0.000266194 4.38066e-05 0 0 0 0 0 0 0 0 0 0 0 0 0 0 0 0 0 0 0 0 0 0 0 0 0 0 0 0 0 0 0 0 0 0 0 0 0 0 0 0 0 0
3.89291 1.23303e-13 1.23273e-13 2.9523e-17 0.000239435 3.9926e-05 0 0 0 0 0 0 0 0 0 0 0 0 0 0 0 0 0 0 0 0 0 0 0 0 0 0 0 0 0 0 0 0 0 0 0 0 0 0 0 0 0 0
4.09273 1.12462e-13 1.12438e-13 2.4204e-17 0.000215218 3.62643e-05 0 0 0 0 0 0 0 0 0 0 0 0 0 0 0 0 0 0 0 0 0 0 0 0 0 0 0 0 0 0 0 0 0 0 0 0 0 0 0 0 0 0
4.30281 1.02625e-13 1.02605e-13 1.9841e-17 0.000193336 3.29535e-05 0 0 0 0 0 0 0 0 0 0 0 0 0 0 0 0 0 0 0 0 0 0 0 0 0 0 0 0 0 0 0 0 0 0 0 0 1.4013e-45 0 2.8026e-45 0 7.00649e-45 0
4.52368 9.37072e-14 9.3691e-14 1.62635e-17 0.000173556 2.99416e-05 0 0 0 0 0 0 0 0 0 0 0 0 0 0 0 0 0 0 0 0 0 0 0 0 0 0 0 0 1.4013e-45 0 2.8026e-45 0 1.12104e-44 0 3.22299e-44 0 8.96831e-44 0 2.34017e-43 0 5.80138e-43 0
4.75588 8.56283e-14 8.5615e-14 1.33301e-17 0.000155675 2.71796e-05 0 0 0 0 0 0 0 0 0 0 0 0 0 0 0 0 0 0 0 0 0 0 1.4013e-45 0 5.60519e-45 0 2.24208e-44 0 8.82818e-44 0 3.0268e-43 0 9.13647e-43 0 2.60922e-42 0 7.04853e-42 0 1.75232e-41 0 4.15051e-41 0
5 7.83099e-14 7.8299e-14 1.0924e-17 0.000139497 2.45398e-05 0 0 0 0 0 0 0 0 0 8.40779e-45 0 0 0 0 0 0 0 0 2.8026e-45 0 1.96182e-44 0 1.06499e-43 0 4.73639e-43 0 1.88755e-42 0 6.76407e-42 0 2.19527e-41 0 6.29071e-41 0 1.70604e-40 0 4.39109e-40 0 1.04416e-39 0 2.37114e-39 0
5.25665 7.17604e-14 7.17514e-14 8.95165e-18 0.000124744 2.21678e-05 0 0 0 0 0 0 0 2.66247e-44 0 4.56823e-43 0 0 0 0 2.8026e-45 0 3.36312e-44 0 2.57839e-43 0 1.59188e-42 0 7.9832e-42 0 3.31603e-41 0 1.23555e-40 0 4.16083e-40 0 1.27498e-39 0 3.47062e-39 0 8.96471e-39 0 2.20331e-38 0 5.02229e-38 0 1.09572e-37 0
5.52648 6.57261e-14 6.57188e-14 7.33504e-18 0.0001116 2.00489e-05 0 0 0 0 0 2.94273e-44 0 1.22333e-42 0 1.92412e-41 0 0 1.82169e-44 0 2.71852e-43 0 2.61202e-42 0 1.83038e-41 0 1.03288e-40 0 4.78905e-40 0 1.85576e-39 0 6.48448e-39 0 2.05801e-38 0 5.97072e-38 0 1.54774e-37 0 3.81685e-37 0 8.97793e-37 0 1.96577e-36 0 4.12848e-36 0
5.81015 6.03615e-14 6.03555e-14 6.01007e-18 9.95679e-05 1.8115e-05 0 0 0 4.2039e-45 0 1.28359e-42 0 4.72041e-41 1.4013e-45 6.86615e-40 6.44597e-44 0 1.44194e-42 0 1.89273e-41 0 1.63216e-40 0 1.04006e-39 0 5.39348e-39 0 2.32026e-38 0 8.41566e-38 0 2.76639e-37 0 8.29846e-37 0 2.28555e-36 0 5.65541e-36 0 1.33454e-35 0 3.01069e-35 0 6.34461e-35 0 1.28508e-34 0
6.10839 5.60001e-14 5.59952e-14 4.92602e-18 8.79645e-05 1.63023e-05 0 1.4013e-45 0 1.8357e-43 0 4.69505e-41 1.4013e-45 1.56336e-39 1.17709e-43 2.1058e-38 4.83168e-42 0 9.22082e-41 0 1.06705e-39 0 8.28264e-39 0 4.82166e-38 0 2.3073e-37 0 9.24347e-37 0 3.14823e-36 0 9.76467e-36 0 2.77619e-35 0 7.27713e-35 0 1.72275e-34 0 3.8984e-34 0 8.45219e-34 0 1.71752e-33 0 3.36093e-33 0
6.42193 5.09921e-14 5.09881e-14 4.02566e-18 7.89467e-05 1.48144e-05 0 5.1848e-44 0 6.52865e-42 0 1.43776e-39 7.00649e-44 4.34367e-38 8.25365e-42 5.42711e-37 2.81239e-40 0 4.64807e-39 0 4.77274e-38 0 3.35196e-37 0 1.7905e-36 0 7.93757e-36 0 2.9716e-35 0 9.53314e-35 0 2.79786e-34 0 7.55895e-34 0 1.89033e-33 0 4.2907e-33 0 9.32987e-33 0 1.94782e-32 0 3.82338e-32 0 7.24054e-32 0
6.75157 4.71038e-14 4.71005e-14 3.30201e-18 7.01009e-05 1.32279e-05 0 1.78666e-42 0 2.00837e-40 5.60519e-45 3.83301e-38 4.98582e-42 1.05291e-36 4.6695e-40 1.22224e-35 1.3393e-38 0 1.93017e-37 0 1.76891e-36 0 1.12955e-35 0 5.55974e-35 0 2.29188e-34 0 8.04458e-34 0 2.43799e-33 0 6.78879e-33 0 1.74724e-32 0 4.17826e-32 0 9.11181e-32 0 1.90757e-31 0 3.84191e-31 0 7.297e-31 0 1.33945e-30 0
7.09813 4.35121e-14 4.35094e-14 2.70514e-18 6.21699e-05 1.18448e-05 0 5.33488e-41 0 5.31656e-39 4.56823e-43 8.82162e-37 2.84515e-40 2.20791e-35 2.13468e-38 2.385e-34 5.19724e-37 0 6.57536e-36 0 5.40823e-35 0 3.15459e-34 0 1.43647e-33 0 5.52587e-33 0 1.82427e-32 0 5.23729e-32 0 1.38724e-31 0 3.40932e-31 0 7.81309e-31 0 1.64021e-30 0 3.31215e-30 0 6.44659e-30 0 1.18666e-29 0 2.11461e-29 0
7.46248 4.087e-14 4.08678e-14 2.21582e-18 5.42164e-05 1.05694e-05 0 1.39813e-39 0 1.23854e-37 2.93068e-41 1.7924e-35 1.33329e-38 4.09571e-34 8.10208e-37 4.1233e-33 1.68789e-35 0 1.8866e-34 0 1.40002e-33 0 7.49253e-33 0 3.1684e-32 0 1.14124e-31 0 3.55418e-31 0 9.6916e-31 0 2.44786e-30 0 5.75752e-30 0 1.26709e-29 0 2.56542e-29 0 5.00572e-29 0 9.43118e-29 0 1.68509e-28 0 2.91929e-28 0
7.84553 3.81273e-14 3.81255e-14 1.81502e-18 4.76041e-05 9.34187e-06 0 3.15823e-38 2.8026e-44 2.49411e-36 1.50105e-39 3.15785e-34 5.0649e-37 6.60079e-33 2.51859e-35 6.20261e-32 4.52396e-34 0 4.49439e-33 0 3.02431e-32 0 1.49125e-31 0 5.87744e-31 0 1.98863e-30 0 5.85906e-30 0 1.5213e-29 0 3.67246e-29 0 8.2846e-29 0 1.75435e-28 0 3.43171e-28 0 6.48105e-28 0 1.1839e-27 0 2.05619e-27 0 3.4679e-27 0
8.24824 3.45304e-14 3.4529e-14 1.48659e-18 4.30515e-05 8.19911e-06 0 6.04343e-37 1.91978e-42 4.26655e-35 6.06327e-38 4.74033e-33 1.53974e-35 9.0814e-32 6.32701e-34 7.97688e-31 9.86999e-33 0 8.76564e-32 0 5.37421e-31 0 2.45137e-30 0 9.03575e-30 0 2.8806e-29 0 8.05093e-29 0 1.99526e-28 0 4.61378e-28 0 1.00028e-27 0 2.042e-27 0 3.86566e-27 0 7.07744e-27 0 1.25536e-26 0 2.12233e-26 0 3.48925e-26 0
8.67162 3.20681e-14 3.20669e-14 1.2176e-18 3.79691e-05 7.20916e-06 1.4013e-45 1.04023e-35 1.0824e-40 6.58297e-34 2.06105e-36 6.43681e-32 3.99411e-34 1.1323e-30 1.36893e-32 9.31042e-30 1.86744e-31 0 1.49075e-30 0 8.36541e-30 0 3.54325e-29 0 1.22545e-28 0 3.69173e-28 0 9.81296e-28 0 2.32654e-27 0 5.16407e-27 0 1.07807e-26 0 2.12545e-26 0 3.90019e-26 0 6.93289e-26 0 1.19579e-25 0 1.97045e-25 0 3.16186e-25 0
9.11674 2.94515e-14 2.94505e-14 9.97268e-19 3.38613e-05 6.32492e-06 1.35926e-43 1.56114e-34 4.87798e-39 8.87905e-33 5.74101e-35 7.66229e-31 8.60285e-33 1.23989e-29 2.4812e-31 9.55718e-29 2.97933e-30 0 2.14897e-29 0 1.10851e-28 0 4.37566e-28 0 1.42438e-27 0 4.0661e-27 0 1.03043e-26 0 2.3422e-26 0 5.00033e-26 0 1.00704e-25 0 1.92069e-25 0 3.42153e-25 0 5.9136e-25 0 9.93194e-25 0 1.59718e-24 0 2.5044e-24 0
9.5847 2.73736e-14 2.73728e-14 8.1674e-19 2.98368e-05 5.52644e-06 8.45123e-42 2.10069e-33 1.81729e-37 1.07653e-31 1.35339e-33 8.22145e-30 1.58801e-31 1.22595e-28 3.88675e-30 8.87073e-28 4.13371e-29 0 2.70742e-28 0 1.28907e-27 0 4.75847e-27 0 1.46226e-26 0 3.96582e-26 0 9.60411e-26 0 2.09725e-25 0 4.31464e-25 0 8.39748e-25 0 1.55192e-24 0 2.68774e-24 0 4.5229e-24 0 7.40635e-24 0 1.16373e-23 0 1.7851e-23 0
