# 0.000285692 0 86 : grain size, compostion index, size index
# Heating and cooling timescale: 3.03955e-05 6.09432e+09
# Ratio of heating to cooling to determine stochastic cutoff: 100
# Equilibrium emission is recorded even for those grains in the stochastic regime.
# Emission spectrum was computed for: 
# Type: ISRF
# Scales: 0.25 0.5 1 1.5 2 2.5 3 3.5 4 4.5 5 5.5 6 6.5 7 7.5 8 8.5 9 9.5 10
# StochasticallyHeated: 0 0 0 0 0 0 0 0 0 0 0 0 0 0 0 0 0 0 0 0 0
# Temperature: -1
# Wavelength  CExt  CAbs  CSca  Albedo G EqEm1 StEm1 EqEm2 StEm2 EqEm3 StEm3 EqEm4 StEm4 EqEm5 StEm5 EqEm6 StEm6 EqEm7 StEm7 EqEm8 StEm8 EqEm9 StEm9 EqEm10 StEm10 EqEm11 StEm11 EqEm12 StEm12 EqEm13 StEm13 EqEm14 StEm14 EqEm15 StEm15 EqEm16 StEm16 EqEm17 StEm17 EqEm18 StEm18 EqEm19 StEm19 EqEm20 StEm20 EqEm21 StEm21
0.05 5.17193e-07 2.4372e-07 2.73473e-07 0.528764 0.989755 0 0 0 0 0 0 0 0 0 0 0 0 0 0 0 0 0 0 0 0 0 0 0 0 0 0 0 0 0 0 0 0 0 0 0 0 0 0 0 0 0 0
0.0525665 5.18333e-07 2.39235e-07 2.79098e-07 0.538453 0.983143 0 0 0 0 0 0 0 0 0 0 0 0 0 0 0 0 0 0 0 0 0 0 0 0 0 0 0 0 0 0 0 0 0 0 0 0 0 0 0 0 0 0
0.0552647 5.19047e-07 2.38024e-07 2.81023e-07 0.541421 0.979555 0 0 0 0 0 0 0 0 0 0 0 0 0 0 0 0 0 0 0 0 0 0 0 0 0 0 0 0 0 0 0 0 0 0 0 0 0 0 0 0 0 0
0.0581015 5.19625e-07 2.3758e-07 2.82045e-07 0.542785 0.977066 0 0 0 0 0 0 0 0 0 0 0 0 0 0 0 0 0 0 0 0 0 0 0 0 0 0 0 0 0 0 0 0 0 0 0 0 0 0 0 0 0 0
0.0610839 5.20127e-07 2.37432e-07 2.82694e-07 0.543511 0.975206 0 0 0 0 0 0 0 0 0 0 0 0 0 0 0 0 0 0 0 0 0 0 0 0 0 0 0 0 0 0 0 0 0 0 0 0 0 0 0 0 0 0
0.0642193 5.20587e-07 2.37303e-07 2.83283e-07 0.544162 0.973575 0 0 0 0 0 0 0 0 0 0 0 0 0 0 0 0 0 0 0 0 0 0 0 0 0 0 0 0 0 0 0 0 0 0 0 0 0 0 0 0 0 0
0.0675157 5.21029e-07 2.37036e-07 2.83993e-07 0.545062 0.971861 0 0 0 0 0 0 0 0 0 0 0 0 0 0 0 0 0 0 0 0 0 0 0 0 0 0 0 0 0 0 0 0 0 0 0 0 0 0 0 0 0 0
0.0709813 5.21481e-07 2.36613e-07 2.84868e-07 0.546268 0.969896 0 0 0 0 0 0 0 0 0 0 0 0 0 0 0 0 0 0 0 0 0 0 0 0 0 0 0 0 0 0 0 0 0 0 0 0 0 0 0 0 0 0
0.0746248 5.21959e-07 2.36097e-07 2.85862e-07 0.547671 0.967674 0 0 0 0 0 0 0 0 0 0 0 0 0 0 0 0 0 0 0 0 0 0 0 0 0 0 0 0 0 0 0 0 0 0 0 0 0 0 0 0 0 0
0.0784553 5.22457e-07 2.3559e-07 2.86867e-07 0.549073 0.965355 0 0 0 0 0 0 0 0 0 0 0 0 0 0 0 0 0 0 0 0 0 0 0 0 0 0 0 0 0 0 0 0 0 0 0 0 0 0 0 0 0 0
0.0824824 5.22974e-07 2.35115e-07 2.87859e-07 0.550427 0.962997 0 0 0 0 0 0 0 0 0 0 0 0 0 0 0 0 0 0 0 0 0 0 0 0 0 0 0 0 0 0 0 0 0 0 0 0 0 0 0 0 0 0
0.0867162 5.23509e-07 2.34659e-07 2.88851e-07 0.551759 0.960592 0 0 0 0 0 0 0 0 0 0 0 0 0 0 0 0 0 0 0 0 0 0 0 0 0 0 0 0 0 0 0 0 0 0 0 0 0 0 0 0 0 0
0.0911674 5.24065e-07 2.34219e-07 2.89846e-07 0.553072 0.958126 0 0 0 0 0 0 0 0 0 0 0 0 0 0 0 0 0 0 0 0 0 0 0 0 0 0 0 0 0 0 0 0 0 0 0 0 0 0 0 0 0 0
0.095847 5.24647e-07 2.33809e-07 2.90838e-07 0.55435 0.955609 0 0 0 0 0 0 0 0 0 0 0 0 0 0 0 0 0 0 0 0 0 0 0 0 0 0 0 0 0 0 0 0 0 0 0 0 0 0 0 0 0 0
0.100767 5.25257e-07 2.33459e-07 2.91798e-07 0.555534 0.953097 0 0 0 0 0 0 0 0 0 0 0 0 0 0 0 0 0 0 0 0 0 0 0 0 0 0 0 0 0 0 0 0 0 0 0 0 0 0 0 0 0 0
0.105939 5.259e-07 2.33291e-07 2.9261e-07 0.556398 0.950794 0 0 0 0 0 0 0 0 0 0 0 0 0 0 0 0 0 0 0 0 0 0 0 0 0 0 0 0 0 0 0 0 0 0 0 0 0 0 0 0 0 0
0.111377 5.26545e-07 2.33387e-07 2.93157e-07 0.556757 0.949065 0 0 0 0 0 0 0 0 0 0 0 0 0 0 0 0 0 0 0 0 0 0 0 0 0 0 0 0 0 0 0 0 0 0 0 0 0 0 0 0 0 0
0.117094 5.27166e-07 2.33651e-07 2.93515e-07 0.556779 0.947881 0 0 0 0 0 0 0 0 0 0 0 0 0 0 0 0 0 0 0 0 0 0 0 0 0 0 0 0 0 0 0 0 0 0 0 0 0 0 0 0 0 0
0.123105 5.27805e-07 2.33808e-07 2.93998e-07 0.557019 0.946488 0 0 0 0 0 0 0 0 0 0 0 0 0 0 0 0 0 0 0 0 0 0 0 0 0 0 0 0 0 0 0 0 0 0 0 0 0 0 0 0 0 0
0.129424 5.28478e-07 2.34157e-07 2.94321e-07 0.556922 0.945388 0 0 0 0 0 0 0 0 0 0 0 0 0 0 0 0 0 0 0 0 0 0 0 0 0 0 0 0 0 0 0 0 0 0 0 0 0 0 0 0 0 0
0.136067 5.29102e-07 2.34927e-07 2.94176e-07 0.55599 0.945472 0 0 0 0 0 0 0 0 0 0 0 0 0 0 0 0 0 0 0 0 0 0 0 0 0 0 0 0 0 0 0 0 0 0 0 0 0 0 0 0 0 0
0.143051 5.2972e-07 2.35439e-07 2.9428e-07 0.55554 0.945155 0 0 0 0 0 0 0 0 0 0 0 0 0 0 0 0 0 0 0 0 0 0 0 0 0 0 0 0 0 0 0 0 0 0 0 0 0 0 0 0 0 0
0.150394 5.30389e-07 2.36505e-07 2.93884e-07 0.554091 0.945783 0 0 0 0 0 0 0 0 0 0 0 0 0 0 0 0 0 0 0 0 0 0 0 0 0 0 0 0 0 0 0 0 0 0 0 0 0 0 0 0 0 0
0.158114 5.30708e-07 2.38747e-07 2.9196e-07 0.550134 0.950297 0 0 0 0 0 0 0 0 0 0 0 0 0 0 0 0 0 0 0 0 0 0 0 0 0 0 0 0 0 0 0 0 0 0 0 0 0 0 0 0 0 0
0.16623 5.30785e-07 2.39042e-07 2.91744e-07 0.549645 0.951693 0 0 0 0 0 0 0 0 0 0 0 0 0 0 0 0 0 0 0 0 0 0 0 0 0 0 0 0 0 0 0 0 0 0 0 0 0 0 0 0 0 0
0.174762 5.31131e-07 2.37374e-07 2.93757e-07 0.553078 0.948302 0 0 0 0 0 0 0 0 0 0 0 0 0 0 0 0 0 0 0 0 0 0 0 0 0 0 0 0 0 0 0 0 0 0 0 0 0 0 0 0 0 0
0.183733 5.31745e-07 2.34797e-07 2.96947e-07 0.55844 0.942256 0 0 0 0 0 0 0 0 0 0 0 0 0 0 0 0 0 0 0 0 0 0 0 0 0 0 0 0 0 0 0 0 0 0 0 0 0 0 0 0 0 0
0.193164 5.32663e-07 2.31051e-07 3.01613e-07 0.566235 0.932734 0 0 0 0 0 0 0 0 0 0 0 0 0 0 0 0 0 0 0 0 0 0 0 0 0 0 0 0 0 0 0 0 0 0 0 0 0 0 0 0 0 0
0.203079 5.33986e-07 2.27374e-07 3.06612e-07 0.574195 0.921455 0 0 0 0 0 0 0 0 0 0 0 0 0 0 0 0 0 0 0 0 0 0 0 0 0 0 0 0 0 0 0 0 0 0 0 0 0 0 0 0 0 0
0.213503 5.35328e-07 2.2475e-07 3.10578e-07 0.580164 0.912048 0 0 0 0 0 0 0 0 0 0 0 0 0 0 0 0 0 0 0 0 0 0 0 0 0 0 0 0 0 0 0 0 0 0 0 0 0 0 0 0 0 0
0.224463 5.36691e-07 2.22621e-07 3.1407e-07 0.585197 0.903596 0 0 0 0 0 0 0 0 0 0 0 0 0 0 0 0 0 0 0 0 0 0 0 0 0 0 0 0 0 0 0 0 0 0 0 0 0 0 0 0 0 0
0.235984 5.38084e-07 2.20481e-07 3.17603e-07 0.590248 0.895112 0 0 0 0 0 0 0 0 0 0 0 0 0 0 0 0 0 0 0 0 0 0 0 0 0 0 0 0 0 0 0 0 0 0 0 0 0 0 0 0 0 0
0.248097 5.39674e-07 2.17945e-07 3.21728e-07 0.596154 0.885093 0 0 0 0 0 0 0 0 0 0 0 0 0 0 0 0 0 0 0 0 0 0 0 0 0 0 0 0 0 0 0 0 0 0 0 0 0 0 0 0 0 0
0.260832 5.41355e-07 2.16257e-07 3.25098e-07 0.600527 0.876585 0 0 0 0 0 0 0 0 0 0 0 0 0 0 0 0 0 0 0 0 0 0 0 0 0 0 0 0 0 0 0 0 0 0 0 0 0 0 0 0 0 0
0.274221 5.43066e-07 2.15181e-07 3.27884e-07 0.603765 0.869432 0 0 0 0 0 0 0 0 0 0 0 0 0 0 0 0 0 0 0 0 0 0 0 0 0 0 0 0 0 0 0 0 0 0 0 0 0 0 0 0 0 0
0.288297 5.44757e-07 2.14544e-07 3.30213e-07 0.606167 0.863514 0 0 0 0 0 0 0 0 0 0 0 0 0 0 0 0 0 0 0 0 0 0 0 0 0 0 0 0 0 0 0 0 0 0 0 0 0 0 0 0 0 0
0.303095 5.46487e-07 2.14221e-07 3.32266e-07 0.608003 0.858263 0 0 0 0 0 0 0 0 0 0 0 0 0 0 0 0 0 0 0 0 0 0 0 0 0 0 0 0 0 0 0 0 0 0 0 0 0 0 0 0 0 0
0.318653 5.48212e-07 2.14138e-07 3.34075e-07 0.609389 0.853714 0 0 0 0 0 0 0 0 0 0 0 0 0 0 0 0 0 0 0 0 0 0 0 0 0 0 0 0 0 0 0 0 0 0 0 0 0 0 0 0 0 0
0.335009 5.49956e-07 2.14204e-07 3.35752e-07 0.610507 0.849559 0 0 0 0 0 0 0 0 0 0 0 0 0 0 0 0 0 0 0 0 0 0 0 0 0 0 0 0 0 0 0 0 0 0 0 0 0 0 0 0 0 0
0.352205 5.51721e-07 2.14413e-07 3.37308e-07 0.611374 0.845764 0 0 0 0 0 0 0 0 0 0 0 0 0 0 0 0 0 0 0 0 0 0 0 0 0 0 0 0 0 0 0 0 0 0 0 0 0 0 0 0 0 0
0.370284 5.53516e-07 2.14647e-07 3.3887e-07 0.612213 0.842041 0 0 0 0 0 0 0 0 0 0 0 0 0 0 0 0 0 0 0 0 0 0 0 0 0 0 0 0 0 0 0 0 0 0 0 0 0 0 0 0 0 0
0.389291 5.55339e-07 2.14937e-07 3.40402e-07 0.612962 0.838451 0 0 0 0 0 0 0 0 0 0 0 0 0 0 0 0 0 0 0 0 0 0 0 0 0 0 0 0 0 0 0 0 0 0 0 0 0 0 0 0 0 0
0.409273 5.57203e-07 2.15213e-07 3.4199e-07 0.613762 0.834804 0 0 0 0 0 0 0 0 0 0 0 0 0 0 0 0 0 0 0 0 0 0 0 0 0 0 0 0 0 0 0 0 0 0 0 0 0 0 0 0 0 0
0.430281 5.59105e-07 2.155e-07 3.43605e-07 0.614563 0.831129 0 0 0 0 0 0 0 0 0 0 0 0 0 0 0 0 0 0 0 0 0 0 0 0 0 0 0 0 0 0 0 0 0 0 0 0 0 0 0 0 0 0
0.452368 5.61028e-07 2.15862e-07 3.45166e-07 0.615239 0.827577 0 0 0 0 0 0 0 0 0 0 0 0 0 0 0 0 0 0 0 0 0 0 0 0 0 0 0 0 0 0 0 0 0 0 0 0 0 0 0 0 0 0
0.475588 5.62967e-07 2.16253e-07 3.46714e-07 0.615869 0.824056 0 0 0 0 0 0 0 0 0 0 0 0 0 0 0 0 0 0 0 0 0 0 0 0 0 0 0 0 0 0 0 0 0 0 0 0 0 0 0 0 0 0
0.5 5.6488e-07 2.16792e-07 3.48088e-07 0.616216 0.820885 0 0 0 0 0 0 0 0 0 0 0 0 0 0 0 0 0 0 0 0 0 0 0 0 0 0 0 0 0 0 0 0 0 0 0 0 0 0 0 0 0 0
0.525665 5.66757e-07 2.17458e-07 3.49299e-07 0.616312 0.818068 0 0 0 0 0 0 0 0 0 0 0 0 0 0 0 0 0 0 0 0 0 0 0 0 0 0 0 0 0 0 0 0 0 0 0 0 0 0 0 0 0 0
0.552648 5.68597e-07 2.18232e-07 3.50366e-07 0.616193 0.81558 0 0 0 0 0 0 0 0 0 0 0 0 0 0 0 0 0 0 0 0 0 0 0 0 0 0 0 0 0 0 0 0 0 0 0 0 0 0 0 0 0 0
0.581015 5.70411e-07 2.19069e-07 3.51341e-07 0.615945 0.813302 0 0 0 0 0 0 0 0 0 0 0 0 0 0 0 0 0 0 0 0 0 0 0 0 0 0 0 0 0 0 0 0 0 0 0 0 0 0 0 0 0 0
0.610839 5.72219e-07 2.19919e-07 3.52299e-07 0.615672 0.811081 0 0 0 0 0 0 0 0 0 0 0 0 0 0 0 0 0 0 0 0 0 0 0 0 0 0 0 0 0 0 0 0 0 0 0 0 0 0 0 0 0 0
0.642193 5.74021e-07 2.20789e-07 3.53232e-07 0.615364 0.808932 0 0 0 0 0 0 0 0 0 0 0 0 0 0 0 0 0 0 0 0 0 0 0 0 0 0 0 0 0 0 0 0 0 0 0 0 0 0 0 0 0 0
0.675157 5.75831e-07 2.21654e-07 3.54177e-07 0.615072 0.806776 0 0 0 0 0 0 0 0 0 0 0 0 0 0 0 0 0 0 0 0 0 0 0 0 0 0 0 0 0 0 0 0 0 0 0 0 0 0 0 0 0 0
0.709813 5.77639e-07 2.22512e-07 3.55127e-07 0.614791 0.804589 0 0 0 0 0 0 0 0 0 0 0 0 0 0 0 0 0 0 0 0 0 0 0 0 0 0 0 0 0 0 0 0 0 0 0 0 0 0 0 0 0 0
0.746248 5.7944e-07 2.23392e-07 3.56048e-07 0.614469 0.802444 0 0 0 0 0 0 0 0 0 0 0 0 0 0 0 0 0 0 0 0 0 0 0 0 0 0 0 0 0 0 0 0 0 0 0 0 0 0 0 0 0 0
0.784553 5.81211e-07 2.2431e-07 3.56901e-07 0.614064 0.800368 0 0 0 0 0 0 0 0 0 0 0 0 0 0 0 0 0 0 0 0 0 0 0 0 0 0 0 0 0 0 0 0 0 0 0 0 0 0 0 0 0 0
0.824824 5.82929e-07 2.25399e-07 3.5753e-07 0.613334 0.798706 0 0 0 0 0 0 0 0 0 0 0 0 0 0 0 0 0 0 0 0 0 0 0 0 0 0 0 0 0 0 0 0 0 0 0 0 0 0 0 0 0 0
0.867162 5.84655e-07 2.26685e-07 3.5797e-07 0.612276 0.797504 0 0 0 0 0 0 0 0 0 0 0 0 0 0 0 0 0 0 0 0 0 0 0 0 0 0 0 0 0 0 0 0 0 0 0 0 0 0 0 0 0 0
0.911674 5.86456e-07 2.28029e-07 3.58427e-07 0.611175 0.796366 0 0 0 0 0 0 0 0 0 0 0 0 0 0 0 0 0 0 0 0 0 0 0 0 0 0 0 0 0 0 0 0 0 0 0 0 0 0 0 0 0 0
0.95847 5.88371e-07 2.29255e-07 3.59116e-07 0.610356 0.794828 0 0 0 0 0 0 0 0 0 0 0 0 0 0 0 0 0 0 0 0 0 0 0 0 0 0 0 0 0 0 0 0 0 0 0 0 0 0 0 0 0 0
1.00767 5.90326e-07 2.304e-07 3.59926e-07 0.609708 0.792983 0 0 0 0 0 0 0 0 0 0 0 0 0 0 0 0 0 0 0 0 0 0 0 0 0 0 0 0 0 0 0 0 0 0 0 0 0 0 0 0 0 0
1.05939 5.92311e-07 2.31591e-07 3.60721e-07 0.609005 0.791145 0 0 0 0 0 0 0 0 0 0 0 0 0 0 0 0 0 0 0 0 0 0 0 0 0 0 0 0 0 0 0 0 0 0 0 0 0 0 0 0 0 0
1.11377 5.94336e-07 2.32818e-07 3.61518e-07 0.608272 0.789276 0 0 0 0 0 0 0 0 0 0 0 0 0 0 0 0 0 0 0 0 0 0 0 0 0 0 0 0 0 0 0 0 0 0 0 0 0 0 0 0 0 0
1.17094 5.9641e-07 2.34026e-07 3.62383e-07 0.607608 0.787236 0 0 0 0 0 0 0 0 0 0 0 0 0 0 0 0 0 0 0 0 0 0 0 0 0 0 0 0 0 0 0 0 0 0 0 0 0 0 0 0 0 0
1.23105 5.9853e-07 2.35263e-07 3.63266e-07 0.606931 0.78513 0 0 0 0 0 0 0 0 0 0 0 0 0 0 0 0 0 0 0 0 0 0 0 0 0 0 0 0 0 0 0 0 0 0 0 0 0 0 0 0 0 0
1.29424 6.00674e-07 2.36562e-07 3.64113e-07 0.606173 0.783031 0 0 0 0 0 0 0 0 0 0 0 0 0 0 0 0 0 0 0 0 0 0 0 0 0 0 0 0 0 0 0 0 0 0 0 0 0 0 0 0 0 0
1.36067 6.0285e-07 2.3804e-07 3.6481e-07 0.605142 0.781185 0 0 0 0 0 0 0 0 0 0 0 0 0 0 0 0 0 0 0 0 0 0 0 0 0 0 0 0 0 0 0 0 0 0 0 0 0 0 0 0 0 0
1.43051 6.05167e-07 2.3961e-07 3.65557e-07 0.60406 0.779321 0 0 0 0 0 0 0 0 0 0 0 0 0 0 0 0 0 0 0 0 0 0 0 0 0 0 0 0 0 0 0 0 0 0 0 0 0 0 0 0 0 0
1.50394 6.0758e-07 2.41046e-07 3.66533e-07 0.603268 0.776974 0 0 0 0 0 0 0 0 0 0 0 0 0 0 0 0 0 0 0 0 0 0 0 0 0 0 0 0 0 0 0 0 0 0 0 0 0 0 0 0 0 0
1.58114 6.10018e-07 2.4246e-07 3.67558e-07 0.602536 0.774426 0 0 0 0 0 0 0 0 0 0 0 0 0 0 0 0 0 0 0 0 0 0 0 0 0 0 0 0 0 0 0 0 0 0 0 0 0 0 0 0 0 0
1.6623 6.12486e-07 2.43952e-07 3.68534e-07 0.601701 0.771857 0 0 0 0 0 0 0 0 0 0 0 0 0 0 0 0 0 0 0 0 0 0 0 0 0 0 0 0 0 0 0 0 0 0 0 0 0 0 0 0 0 0
1.74763 6.15021e-07 2.45572e-07 3.69449e-07 0.60071 0.769356 0 0 0 0 0 0 0 0 0 0 0 0 0 0 0 0 0 0 0 0 0 0 0 0 0 0 0 0 0 0 0 0 0 0 0 0 0 0 0 0 0 0
1.83733 6.1769e-07 2.47263e-07 3.70427e-07 0.599697 0.766741 0 0 0 0 0 0 0 0 0 0 0 0 0 0 0 0 0 0 0 0 0 0 0 0 0 0 0 0 0 0 0 0 0 0 0 0 0 0 0 0 0 0
1.93164 6.20413e-07 2.48824e-07 3.7159e-07 0.598939 0.763663 0 0 0 0 0 0 0 0 0 0 0 0 0 0 0 0 0 0 0 0 0 0 0 0 0 0 0 0 0 0 0 0 0 0 0 0 0 0 0 0 0 0
2.03079 6.23122e-07 2.505e-07 3.72621e-07 0.597991 0.760619 0 0 0 0 0 0 0 0 0 0 0 0 0 0 0 0 0 0 0 0 0 0 0 0 0 0 0 0 0 0 0 0 0 0 0 0 0 0 0 0 0 0
2.13503 6.25978e-07 2.52345e-07 3.73633e-07 0.596878 0.757628 0 0 0 0 0 0 0 0 0 0 0 0 0 0 0 0 0 0 0 0 0 0 0 0 0 0 0 0 0 0 0 0 0 0 0 0 0 0 0 0 0 0
2.24463 6.28881e-07 2.54237e-07 3.74643e-07 0.59573 0.754442 0 0 0 0 0 0 0 0 0 0 0 0 0 0 0 0 0 0 0 0 0 0 0 0 0 0 0 0 0 0 0 0 0 0 0 0 0 0 0 0 0 0
2.35984 6.31928e-07 2.56198e-07 3.7573e-07 0.594577 0.751141 0 0 0 0 0 0 0 0 0 0 0 0 0 0 0 0 0 0 0 0 0 0 0 0 0 0 0 0 0 0 0 0 0 0 0 0 0 0 0 0 0 0
2.48097 6.35013e-07 2.58148e-07 3.76864e-07 0.593475 0.747469 0 0 0 0 0 0 0 0 0 0 0 0 0 0 0 0 0 0 0 0 0 0 0 0 0 0 0 0 0 0 0 0 0 0 0 0 0 0 0 0 0 0
2.60832 6.38157e-07 2.60409e-07 3.77748e-07 0.591936 0.744129 0 0 0 0 0 0 0 0 0 0 0 0 0 0 0 0 0 0 0 0 0 0 0 0 0 0 0 0 0 0 0 0 0 0 0 0 0 0 0 0 0 0
2.74221 6.41663e-07 2.62588e-07 3.79075e-07 0.590769 0.740188 0 0 0 0 0 0 0 0 0 0 0 0 0 0 0 0 0 0 0 0 0 0 0 0 0 0 0 0 0 0 0 0 0 0 0 0 0 0 0 0 0 0
2.88297 6.44951e-07 2.64605e-07 3.80346e-07 0.589728 0.735676 0 0 0 0 0 0 0 0 0 0 0 0 0 0 0 0 0 0 0 0 0 0 0 0 0 0 0 0 0 0 0 0 0 0 0 0 0 0 0 0 0 0
3.03095 6.48431e-07 2.66869e-07 3.81562e-07 0.588439 0.73133 0 0 0 0 0 0 0 0 0 0 0 0 0 0 0 0 0 0 0 0 0 0 0 0 0 0 0 0 0 0 0 0 0 0 0 0 0 0 0 0 0 0
3.18653 6.52192e-07 2.6903e-07 3.83162e-07 0.587499 0.726366 0 0 0 0 0 0 0 0 0 0 0 0 0 0 0 0 0 0 0 0 0 0 0 0 0 0 0 0 0 0 0 0 0 0 0 0 0 0 0 0 0 0
3.35009 6.55552e-07 2.71046e-07 3.84505e-07 0.586537 0.7208 0 0 0 0 0 0 0 0 0 0 0 0 0 0 0 0 0 0 0 0 0 0 0 0 0 0 0 0 0 0 0 0 0 0 0 0 0 0 0 0 0 0
3.52205 6.59214e-07 2.73472e-07 3.85742e-07 0.585155 0.715518 0 0 0 0 0 0 0 0 0 0 0 0 0 0 0 0 0 0 0 0 0 0 0 0 0 0 0 0 0 0 0 0 0 0 0 0 0 0 0 0 0 0
3.70284 6.63189e-07 2.75824e-07 3.87365e-07 0.584095 0.709808 0 0 0 0 0 0 0 0 0 0 0 0 0 0 0 0 0 0 0 0 0 0 0 0 0 0 0 0 0 0 0 0 0 0 0 0 0 0 0 0 0 0
3.89291 6.67138e-07 2.78242e-07 3.88896e-07 0.582932 0.703592 0 0 0 0 0 0 0 0 0 0 0 0 0 0 0 0 0 0 0 0 0 0 0 0 0 0 0 0 0 0 0 0 0 0 0 0 0 0 0 0 0 0
4.09273 6.70781e-07 2.80576e-07 3.90205e-07 0.581717 0.696651 0 0 0 0 0 0 0 0 0 0 0 0 0 0 0 0 0 0 0 0 0 0 0 0 0 0 0 0 0 0 0 0 0 0 0 0 0 0 0 0 0 0
4.30281 6.74564e-07 2.83095e-07 3.91468e-07 0.580328 0.689647 0 0 0 0 0 0 0 0 0 0 0 0 0 0 0 0 0 0 0 0 0 0 0 0 0 0 0 0 0 0 0 0 0 0 0 0 0 0 0 0 0 0
4.52368 6.78978e-07 2.86009e-07 3.9297e-07 0.578766 0.682879 0 0 0 0 0 0 0 0 0 0 0 0 0 0 0 0 0 0 0 0 0 0 0 0 0 0 0 0 0 0 0 0 0 0 0 0 0 0 0 0 0 0
4.75588 6.83662e-07 2.89273e-07 3.9439e-07 0.576878 0.675932 0 0 0 0 0 0 0 0 0 0 0 0 0 0 0 0 0 0 0 0 0 0 0 0 0 0 0 0 0 0 0 0 0 0 0 0 0 0 0 0 0 0
5 6.87551e-07 2.9232e-07 3.95231e-07 0.574839 0.667786 0 0 0 0 0 0 0 0 0 0 0 0 0 0 0 0 0 0 0 0 0 0 0 0 0 0 0 0 0 0 0 0 0 0 0 0 0 0 0 0 0 0
5.25665 6.91196e-07 2.95525e-07 3.95671e-07 0.572444 0.658833 0 0 0 0 0 0 0 0 0 0 0 0 0 0 0 0 0 0 0 0 0 0 0 0 0 0 0 0 0 0 0 0 0 0 0 0 0 0 0 0 0 0
5.52648 6.95485e-07 2.98956e-07 3.96529e-07 0.570147 0.64949 0 0 0 0 0 0 0 0 0 0 0 0 0 0 0 0 0 0 0 0 0 0 0 0 0 0 0 0 0 0 0 0 0 0 0 0 0 0 0 0 0 0
5.81015 7.01568e-07 3.04114e-07 3.97454e-07 0.566522 0.641781 0 0 0 0 0 0 0 0 0 0 0 0 0 0 0 0 0 0 0 0 0 0 0 0 0 0 0 0 0 0 0 0 0 0 0 0 0 0 0 0 0 0
6.10839 7.08682e-07 3.08929e-07 3.99753e-07 0.56408 0.633213 0 0 0 0 0 0 0 0 0 0 0 0 0 0 0 0 0 0 0 0 0 0 0 0 0 0 0 0 0 0 0 0 0 0 0 0 0 0 0 0 0 0
6.42193 7.1372e-07 3.10238e-07 4.03482e-07 0.565323 0.619941 0 0 0 0 0 0 0 0 0 0 0 0 0 0 0 0 0 0 0 0 0 0 0 0 0 0 0 0 0 0 0 0 0 0 0 0 0 0 0 0 0 0
6.75157 7.17141e-07 3.12854e-07 4.04287e-07 0.563749 0.60651 0 0 0 0 0 0 0 0 0 0 0 0 0 0 0 0 0 0 0 0 0 0 0 0 0 0 0 0 0 0 0 0 0 0 0 0 0 0 0 0 0 0
7.09813 7.20229e-07 3.14673e-07 4.05555e-07 0.563093 0.589952 0 0 0 0 0 0 0 0 0 0 0 0 0 0 0 0 0 0 0 0 0 0 0 0 0 0 0 0 0 0 0 0 0 0 0 0 0 0 0 0 0 0
7.46248 7.23011e-07 3.13806e-07 4.09205e-07 0.565974 0.568803 0 0 0 0 0 0 0 0 0 0 0 0 0 0 0 0 0 0 0 0 0 0 0 0 0 0 0 0 0 0 0 0 0 0 0 0 0 0 0 0 0 0
7.84553 7.27569e-07 3.14143e-07 4.13425e-07 0.568229 0.548535 0 0 0 0 0 0 0 0 0 0 0 0 0 0 0 0 0 0 0 0 0 0 0 0 0 0 0 0 0 0 0 0 0 0 0 0 0 0 0 0 0 0
8.24824 7.34043e-07 3.15252e-07 4.18791e-07 0.570526 0.529785 0 0 0 0 0 0 0 0 0 0 0 0 0 0 0 0 0 0 0 0 0 0 0 0 0 0 0 0 0 0 0 0 0 0 0 0 1.4013e-45 0 2.8026e-45 0 7.00649e-45 0
8.67162 7.41149e-07 3.18337e-07 4.22812e-07 0.570481 0.514131 0 0 0 0 0 0 0 0 0 0 0 0 0 0 0 0 0 0 0 0 0 0 0 0 0 0 0 0 2.8026e-45 0 8.40779e-45 0 2.66247e-44 0 7.9874e-44 0 2.158e-43 0 5.52112e-43 0 1.34104e-42 0
9.11674 7.46657e-07 3.22324e-07 4.24333e-07 0.568311 0.499634 0 0 0 0 0 0 0 0 0 0 0 0 0 0 0 0 0 0 0 0 1.4013e-45 0 5.60519e-45 0 2.8026e-44 0 1.16308e-43 0 4.23192e-43 0 1.42372e-42 0 4.3132e-42 0 1.22908e-41 0 3.18067e-41 0 7.79528e-41 0 1.8137e-40 0
9.5847 7.48898e-07 3.25976e-07 4.22923e-07 0.564726 0.483285 0 0 0 0 0 0 0 0 0 0 0 0 0 0 0 0 2.8026e-45 0 2.8026e-44 0 1.87774e-43 0 9.96323e-43 0 4.44912e-42 0 1.75877e-41 0 5.96869e-41 0 1.8945e-40 0 5.43799e-40 0 1.47221e-39 0 3.63717e-39 0 8.53252e-39 0 1.90503e-38 0
10.0767 7.47982e-07 3.29039e-07 4.18943e-07 0.560098 0.462477 0 0 0 0 0 0 0 0 0 0 0 0 2.8026e-45 0 5.60519e-44 0 5.94151e-43 0 4.5374e-42 0 2.7174e-41 0 1.33108e-40 0 5.52455e-40 0 2.0423e-39 0 6.52946e-39 0 1.95887e-38 0 5.34062e-38 0 1.37722e-37 0 3.25552e-37 0 7.32578e-37 0 1.57271e-36 0
10.5939 7.45609e-07 3.31704e-07 4.13905e-07 0.555124 0.435304 0 0 0 0 0 0 0 0 0 0 2.24208e-44 0 5.91348e-43 0 8.44563e-42 0 8.04107e-41 0 5.55583e-40 0 3.04907e-39 0 1.38206e-38 0 5.35112e-38 0 1.85586e-37 0 5.60607e-37 0 1.59401e-36 0 4.13818e-36 0 1.01891e-35 0 2.30946e-35 0 4.99513e-35 0 1.0331e-34 0
11.1377 7.43192e-07 3.32008e-07 4.11184e-07 0.553268 0.399381 0 0 0 0 0 0 0 0 7.14662e-44 0 3.58172e-42 0 7.84643e-41 0 9.84472e-40 0 8.39628e-39 0 5.27881e-38 0 2.66596e-37 0 1.12245e-36 0 4.068e-36 0 1.32773e-35 0 3.8e-35 0 1.02673e-34 0 2.54418e-34 0 5.9947e-34 0 1.30555e-33 0 2.71938e-33 0 5.42821e-33 0
11.7094 7.41319e-07 3.30193e-07 4.11125e-07 0.554587 0.355737 0 0 0 0 0 0 6.86636e-44 0 1.03276e-41 0 4.27411e-40 0 8.05191e-39 0 8.92885e-38 0 6.8585e-37 0 3.9418e-36 0 1.83939e-35 0 7.2195e-35 0 2.45706e-34 0 7.56945e-34 0 2.05797e-33 0 5.2971e-33 0 1.2557e-32 0 2.83749e-32 0 5.94914e-32 0 1.19557e-31 0 2.3073e-31 0
12.3105 7.42863e-07 3.30338e-07 4.12525e-07 0.555318 0.309932 0 0 0 0 8.40779e-45 0 9.83291e-42 0 1.16238e-39 0 4.01123e-38 0 6.54754e-37 0 6.45592e-36 0 4.48913e-35 0 2.3689e-34 0 1.02533e-33 0 3.76447e-33 0 1.20682e-32 0 3.51911e-32 0 9.11173e-32 0 2.23951e-31 0 5.08979e-31 0 1.10525e-30 0 2.23503e-30 0 4.34113e-30 0 8.11319e-30 0
12.9424 7.488e-07 3.33712e-07 4.15088e-07 0.554338 0.265485 0 0 0 0 1.23595e-42 0 1.10662e-39 0 1.03632e-37 0 3.0084e-36 0 4.28472e-35 0 3.77813e-34 0 2.3898e-33 0 1.16272e-32 0 4.68518e-32 0 1.61431e-31 0 4.88905e-31 0 1.35307e-30 0 3.34439e-30 0 7.86683e-30 0 1.71767e-29 0 3.59135e-29 0 7.01696e-29 0 1.31945e-28 0 2.39178e-28 0
13.6067 7.55814e-07 3.34609e-07 4.21205e-07 0.557286 0.218385 0 0 1.4013e-45 0 1.50991e-40 0 9.70166e-38 0 7.27921e-36 0 1.79269e-34 0 2.24268e-33 0 1.77814e-32 0 1.02787e-31 0 4.6292e-31 0 1.74263e-30 0 5.65243e-30 0 1.62172e-29 0 4.2706e-29 0 1.00994e-28 0 2.27846e-28 0 4.78876e-28 0 9.65834e-28 0 1.82638e-27 0 3.33e-27 0 5.86355e-27 0
14.3051 7.6611e-07 3.41856e-07 4.24255e-07 0.553778 0.17868 0 0 1.34525e-43 0 1.46866e-38 0 6.88213e-36 0 4.1822e-34 0 8.80825e-33 0 9.74048e-32 0 6.98035e-31 0 3.70379e-30 0 1.5499e-29 0 5.46884e-29 0 1.67485e-28 0 4.56423e-28 0 1.14643e-27 0 2.59959e-27 0 5.63636e-27 0 1.14243e-26 0 2.22656e-26 0 4.08144e-26 0 7.22655e-26 0 1.2378e-25 0
15.0394 7.77109e-07 3.51343e-07 4.25766e-07 0.547884 0.143032 0 0 1.8343e-41 0 1.13648e-36 0 3.94424e-34 0 1.96136e-32 0 3.5598e-31 0 3.50074e-30 0 2.27875e-29 0 1.1145e-28 0 4.34897e-28 0 1.44292e-27 0 4.18397e-27 0 1.08573e-26 0 2.60721e-26 0 5.68033e-26 0 1.18593e-25 0 2.32225e-25 0 4.38089e-25 0 7.79638e-25 0 1.34244e-24 0 2.23978e-24 0
15.8114 7.87522e-07 3.61253e-07 4.26268e-07 0.541278 0.1105 1.4013e-44 0 1.94681e-39 0 7.03813e-35 0 1.8358e-32 0 7.54373e-31 0 1.18848e-29 0 1.04533e-28 0 6.20973e-28 0 2.81059e-27 0 1.0262e-26 0 3.21113e-26 0 8.83959e-26 0 2.18951e-25 0 5.03761e-25 0 1.0566e-24 0 2.12807e-24 0 4.03262e-24 0 7.37536e-24 0 1.27612e-23 0 2.13979e-23 0 3.48198e-23 0
