# 4.217e-05 1 123 : grain size, compostion index, size index
# Heating and cooling timescale: 0.00268121 9.40782e+06
# Ratio of heating to cooling to determine stochastic cutoff: 100
# Equilibrium emission is recorded even for those grains in the stochastic regime.
# Emission spectrum was computed for: 
# Type: IRSF
# Scales: 0.25 0.5 1 1.5 2 2.5 3 3.5 4 4.5 5 5.5 6 6.5 7 7.5 8 8.5 9 9.5 10
# StochasticallyHeated: 0 0 0 0 0 0 0 0 0 0 0 0 0 0 0 0 0 0 0 0 0
# Temperature: -1
# Wavelength  CExt  CAbs  CSca  Albedo G EqEm1 StEm1 EqEm2 StEm2 EqEm3 StEm3 EqEm4 StEm4 EqEm5 StEm5 EqEm6 StEm6 EqEm7 StEm7 EqEm8 StEm8 EqEm9 StEm9 EqEm10 StEm10 EqEm11 StEm11 EqEm12 StEm12 EqEm13 StEm13 EqEm14 StEm14 EqEm15 StEm15 EqEm16 StEm16 EqEm17 StEm17 EqEm18 StEm18 EqEm19 StEm19 EqEm20 StEm20 EqEm21 StEm21
0.05 3.0961e-09 1.3774e-09 1.7187e-09 0.555118 0.214272 0 0 0 0 0 0 0 0 0 0 0 0 0 0 0 0 0 0 0 0 0 0 0 0 0 0 0 0 0 0 0 0 0 0 0 0 0 0 0 0 0 0
0.0525665 3.4221e-09 1.52243e-09 1.89967e-09 0.555118 0.236833 0 0 0 0 0 0 0 0 0 0 0 0 0 0 0 0 0 0 0 0 0 0 0 0 0 0 0 0 0 0 0 0 0 0 0 0 0 0 0 0 0 0
0.0552647 3.78243e-09 1.68274e-09 2.0997e-09 0.555118 0.261771 0 0 0 0 0 0 0 0 0 0 0 0 0 0 0 0 0 0 0 0 0 0 0 0 0 0 0 0 0 0 0 0 0 0 0 0 0 0 0 0 0 0
0.0581015 4.1807e-09 1.85992e-09 2.32078e-09 0.555118 0.289334 0 0 0 0 0 0 0 0 0 0 0 0 0 0 0 0 0 0 0 0 0 0 0 0 0 0 0 0 0 0 0 0 0 0 0 0 0 0 0 0 0 0
0.0610839 4.62091e-09 2.05576e-09 2.56515e-09 0.555118 0.3198 0 0 0 0 0 0 0 0 0 0 0 0 0 0 0 0 0 0 0 0 0 0 0 0 0 0 0 0 0 0 0 0 0 0 0 0 0 0 0 0 0 0
0.0642193 5.10747e-09 2.27222e-09 2.83525e-09 0.555118 0.353473 0 0 0 0 0 0 0 0 0 0 0 0 0 0 0 0 0 0 0 0 0 0 0 0 0 0 0 0 0 0 0 0 0 0 0 0 0 0 0 0 0 0
0.0675157 5.64526e-09 2.51148e-09 3.13379e-09 0.555118 0.390692 0 0 0 0 0 0 0 0 0 0 0 0 0 0 0 0 0 0 0 0 0 0 0 0 0 0 0 0 0 0 0 0 0 0 0 0 0 0 0 0 0 0
0.0709813 6.23968e-09 2.77592e-09 3.46376e-09 0.555118 0.43183 0 0 0 0 0 0 0 0 0 0 0 0 0 0 0 0 0 0 0 0 0 0 0 0 0 0 0 0 0 0 0 0 0 0 0 0 0 0 0 0 0 0
0.0746248 6.89669e-09 3.06822e-09 3.82847e-09 0.555118 0.477299 0 0 0 0 0 0 0 0 0 0 0 0 0 0 0 0 0 0 0 0 0 0 0 0 0 0 0 0 0 0 0 0 0 0 0 0 0 0 0 0 0 0
0.0784553 7.62288e-09 3.39128e-09 4.23159e-09 0.555118 0.527557 0 0 0 0 0 0 0 0 0 0 0 0 0 0 0 0 0 0 0 0 0 0 0 0 0 0 0 0 0 0 0 0 0 0 0 0 0 0 0 0 0 0
0.0824824 8.42553e-09 3.74837e-09 4.67716e-09 0.555118 0.583106 0 0 0 0 0 0 0 0 0 0 0 0 0 0 0 0 0 0 0 0 0 0 0 0 0 0 0 0 0 0 0 0 0 0 0 0 0 0 0 0 0 0
0.0867162 9.3127e-09 4.14306e-09 5.16965e-09 0.555118 0.644504 0 0 0 0 0 0 0 0 0 0 0 0 0 0 0 0 0 0 0 0 0 0 0 0 0 0 0 0 0 0 0 0 0 0 0 0 0 0 0 0 0 0
0.0911674 1.02933e-08 4.5793e-09 5.71398e-09 0.555118 0.712368 0 0 0 0 0 0 0 0 0 0 0 0 0 0 0 0 0 0 0 0 0 0 0 0 0 0 0 0 0 0 0 0 0 0 0 0 0 0 0 0 0 0
0.095847 1.13771e-08 5.06148e-09 6.31564e-09 0.555118 0.787376 0 0 0 0 0 0 0 0 0 0 0 0 0 0 0 0 0 0 0 0 0 0 0 0 0 0 0 0 0 0 0 0 0 0 0 0 0 0 0 0 0 0
0.100767 1.23941e-08 5.51473e-09 6.87938e-09 0.555052 0.857048 0 0 0 0 0 0 0 0 0 0 0 0 0 0 0 0 0 0 0 0 0 0 0 0 0 0 0 0 0 0 0 0 0 0 0 0 0 0 0 0 0 0
0.105939 1.24606e-08 5.55018e-09 6.91044e-09 0.554582 0.860143 0 0 0 0 0 0 0 0 0 0 0 0 0 0 0 0 0 0 0 0 0 0 0 0 0 0 0 0 0 0 0 0 0 0 0 0 0 0 0 0 0 0
0.111377 1.25273e-08 5.58889e-09 6.93843e-09 0.553864 0.864289 0 0 0 0 0 0 0 0 0 0 0 0 0 0 0 0 0 0 0 0 0 0 0 0 0 0 0 0 0 0 0 0 0 0 0 0 0 0 0 0 0 0
0.117094 1.25945e-08 5.62694e-09 6.96756e-09 0.553222 0.866723 0 0 0 0 0 0 0 0 0 0 0 0 0 0 0 0 0 0 0 0 0 0 0 0 0 0 0 0 0 0 0 0 0 0 0 0 0 0 0 0 0 0
0.123105 1.26617e-08 5.6716e-09 6.99014e-09 0.552068 0.868011 0 0 0 0 0 0 0 0 0 0 0 0 0 0 0 0 0 0 0 0 0 0 0 0 0 0 0 0 0 0 0 0 0 0 0 0 0 0 0 0 0 0
0.129424 1.27265e-08 5.71869e-09 7.00786e-09 0.550649 0.868291 0 0 0 0 0 0 0 0 0 0 0 0 0 0 0 0 0 0 0 0 0 0 0 0 0 0 0 0 0 0 0 0 0 0 0 0 0 0 0 0 0 0
0.136067 1.27951e-08 5.75956e-09 7.03551e-09 0.549861 0.867377 0 0 0 0 0 0 0 0 0 0 0 0 0 0 0 0 0 0 0 0 0 0 0 0 0 0 0 0 0 0 0 0 0 0 0 0 0 0 0 0 0 0
0.143051 1.28604e-08 5.81323e-09 7.04719e-09 0.547975 0.864467 0 0 0 0 0 0 0 0 0 0 0 0 0 0 0 0 0 0 0 0 0 0 0 0 0 0 0 0 0 0 0 0 0 0 0 0 0 0 0 0 0 0
0.150394 1.2913e-08 5.89214e-09 7.02085e-09 0.543705 0.864747 0 0 0 0 0 0 0 0 0 0 0 0 0 0 0 0 0 0 0 0 0 0 0 0 0 0 0 0 0 0 0 0 0 0 0 0 0 0 0 0 0 0
0.158114 1.29685e-08 5.99223e-09 6.97624e-09 0.537938 0.869962 0 0 0 0 0 0 0 0 0 0 0 0 0 0 0 0 0 0 0 0 0 0 0 0 0 0 0 0 0 0 0 0 0 0 0 0 0 0 0 0 0 0
0.16623 1.30293e-08 6.10391e-09 6.92536e-09 0.531524 0.876604 0 0 0 0 0 0 0 0 0 0 0 0 0 0 0 0 0 0 0 0 0 0 0 0 0 0 0 0 0 0 0 0 0 0 0 0 0 0 0 0 0 0
0.174762 1.30688e-08 6.20138e-09 6.86742e-09 0.525482 0.882344 0 0 0 0 0 0 0 0 0 0 0 0 0 0 0 0 0 0 0 0 0 0 0 0 0 0 0 0 0 0 0 0 0 0 0 0 0 0 0 0 0 0
0.183733 1.33647e-08 6.22263e-09 7.14206e-09 0.534398 0.884332 0 0 0 0 0 0 0 0 0 0 0 0 0 0 0 0 0 0 0 0 0 0 0 0 0 0 0 0 0 0 0 0 0 0 0 0 0 0 0 0 0 0
0.193164 1.31488e-08 6.12452e-09 7.02432e-09 0.534216 0.874573 0 0 0 0 0 0 0 0 0 0 0 0 0 0 0 0 0 0 0 0 0 0 0 0 0 0 0 0 0 0 0 0 0 0 0 0 0 0 0 0 0 0
0.203079 1.29222e-08 6.10538e-09 6.81683e-09 0.527528 0.858204 0 0 0 0 0 0 0 0 0 0 0 0 0 0 0 0 0 0 0 0 0 0 0 0 0 0 0 0 0 0 0 0 0 0 0 0 0 0 0 0 0 0
0.213503 1.35371e-08 6.1369e-09 7.40019e-09 0.54666 0.826085 0 0 0 0 0 0 0 0 0 0 0 0 0 0 0 0 0 0 0 0 0 0 0 0 0 0 0 0 0 0 0 0 0 0 0 0 0 0 0 0 0 0
0.224463 1.39685e-08 6.14911e-09 7.81941e-09 0.559788 0.810705 0 0 0 0 0 0 0 0 0 0 0 0 0 0 0 0 0 0 0 0 0 0 0 0 0 0 0 0 0 0 0 0 0 0 0 0 0 0 0 0 0 0
0.235984 1.38619e-08 6.16923e-09 7.69269e-09 0.554951 0.815103 0 0 0 0 0 0 0 0 0 0 0 0 0 0 0 0 0 0 0 0 0 0 0 0 0 0 0 0 0 0 0 0 0 0 0 0 0 0 0 0 0 0
0.248097 1.35392e-08 6.19667e-09 7.3425e-09 0.542315 0.804234 0 0 0 0 0 0 0 0 0 0 0 0 0 0 0 0 0 0 0 0 0 0 0 0 0 0 0 0 0 0 0 0 0 0 0 0 0 0 0 0 0 0
0.260832 1.33837e-08 6.20047e-09 7.18319e-09 0.536713 0.783623 0 0 0 0 0 0 0 0 0 0 0 0 0 0 0 0 0 0 0 0 0 0 0 0 0 0 0 0 0 0 0 0 0 0 0 0 0 0 0 0 0 0
0.274221 1.35332e-08 6.21221e-09 7.32097e-09 0.540964 0.759325 0 0 0 0 0 0 0 0 0 0 0 0 0 0 0 0 0 0 0 0 0 0 0 0 0 0 0 0 0 0 0 0 0 0 0 0 0 0 0 0 0 0
0.288297 1.38821e-08 6.24019e-09 7.64194e-09 0.550488 0.764418 0 0 0 0 0 0 0 0 0 0 0 0 0 0 0 0 0 0 0 0 0 0 0 0 0 0 0 0 0 0 0 0 0 0 0 0 0 0 0 0 0 0
0.303095 1.4184e-08 6.21284e-09 7.9712e-09 0.561984 0.784522 0 0 0 0 0 0 0 0 0 0 0 0 0 0 0 0 0 0 0 0 0 0 0 0 0 0 0 0 0 0 0 0 0 0 0 0 0 0 0 0 0 0
0.318653 1.43268e-08 6.17964e-09 8.14718e-09 0.568666 0.808505 0 0 0 0 0 0 0 0 0 0 0 0 0 0 0 0 0 0 0 0 0 0 0 0 0 0 0 0 0 0 0 0 0 0 0 0 0 0 0 0 0 0
0.335009 1.42846e-08 6.16709e-09 8.11747e-09 0.568269 0.823344 0 0 0 0 0 0 0 0 0 0 0 0 0 0 0 0 0 0 0 0 0 0 0 0 0 0 0 0 0 0 0 0 0 0 0 0 0 0 0 0 0 0
0.352205 1.40978e-08 6.06881e-09 8.02898e-09 0.569521 0.817373 0 0 0 0 0 0 0 0 0 0 0 0 0 0 0 0 0 0 0 0 0 0 0 0 0 0 0 0 0 0 0 0 0 0 0 0 0 0 0 0 0 0
0.370284 1.38342e-08 6.05999e-09 7.77417e-09 0.561955 0.800742 0 0 0 0 0 0 0 0 0 0 0 0 0 0 0 0 0 0 0 0 0 0 0 0 0 0 0 0 0 0 0 0 0 0 0 0 0 0 0 0 0 0
0.389291 1.36842e-08 5.94147e-09 7.74274e-09 0.565816 0.762585 0 0 0 0 0 0 0 0 0 0 0 0 0 0 0 0 0 0 0 0 0 0 0 0 0 0 0 0 0 0 0 0 0 0 0 0 0 0 0 0 0 0
0.409273 1.36691e-08 5.88329e-09 7.78581e-09 0.569592 0.707744 0 0 0 0 0 0 0 0 0 0 0 0 0 0 0 0 0 0 0 0 0 0 0 0 0 0 0 0 0 0 0 0 0 0 0 0 0 0 0 0 0 0
0.430281 1.3825e-08 5.73745e-09 8.08755e-09 0.584995 0.640228 0 0 0 0 0 0 0 0 0 0 0 0 0 0 0 0 0 0 0 0 0 0 0 0 0 0 0 0 0 0 0 0 0 0 0 0 0 0 0 0 0 0
0.452368 1.43432e-08 5.70859e-09 8.63464e-09 0.602001 0.580291 0 0 0 0 0 0 0 0 0 0 0 0 0 0 0 0 0 0 0 0 0 0 0 0 0 0 0 0 0 0 0 0 0 0 0 0 0 0 0 0 0 0
0.475588 1.48539e-08 5.55659e-09 9.2973e-09 0.625917 0.499763 0 0 0 0 0 0 0 0 0 0 0 0 0 0 0 0 0 0 0 0 0 0 0 0 0 0 0 0 0 0 0 0 0 0 0 0 0 0 0 0 0 0
0.5 1.5794e-08 5.41754e-09 1.03765e-08 0.656988 0.50607 0 0 0 0 0 0 0 0 0 0 0 0 0 0 0 0 0 0 0 0 0 0 0 0 0 0 0 0 0 0 0 0 0 0 0 0 0 0 0 0 0 0
0.525665 1.67116e-08 5.33095e-09 1.13807e-08 0.681003 0.481366 0 0 0 0 0 0 0 0 0 0 0 0 0 0 0 0 0 0 0 0 0 0 0 0 0 0 0 0 0 0 0 0 0 0 0 0 0 0 0 0 0 0
0.552648 1.75603e-08 5.19116e-09 1.23691e-08 0.704381 0.514726 0 0 0 0 0 0 0 0 0 0 0 0 0 0 0 0 0 0 0 0 0 0 0 0 0 0 0 0 0 0 0 0 0 0 0 0 0 0 0 0 0 0
0.581015 1.86365e-08 5.07494e-09 1.35616e-08 0.727688 0.563492 0 0 0 0 0 0 0 0 0 0 0 0 0 0 0 0 0 0 0 0 0 0 0 0 0 0 0 0 0 0 0 0 0 0 0 0 0 0 0 0 0 0
0.610839 1.9536e-08 4.94467e-09 1.45913e-08 0.746894 0.573516 0 0 0 0 0 0 0 0 0 0 0 0 0 0 0 0 0 0 0 0 0 0 0 0 0 0 0 0 0 0 0 0 0 0 0 0 0 0 0 0 0 0
0.642193 2.02334e-08 4.80496e-09 1.54284e-08 0.762523 0.615072 0 0 0 0 0 0 0 0 0 0 0 0 0 0 0 0 0 0 0 0 0 0 0 0 0 0 0 0 0 0 0 0 0 0 0 0 0 0 0 0 0 0
0.675157 2.07651e-08 4.64056e-09 1.61245e-08 0.776521 0.641989 0 0 0 0 0 0 0 0 0 0 0 0 0 0 0 0 0 0 0 0 0 0 0 0 0 0 0 0 0 0 0 0 0 0 0 0 0 0 0 0 0 0
0.709813 2.1088e-08 4.45444e-09 1.66335e-08 0.788769 0.649486 0 0 0 0 0 0 0 0 0 0 0 0 0 0 0 0 0 0 0 0 0 0 0 0 0 0 0 0 0 0 0 0 0 0 0 0 0 0 0 0 0 0
0.746248 2.13081e-08 4.32614e-09 1.69819e-08 0.796972 0.660796 0 0 0 0 0 0 0 0 0 0 0 0 0 0 0 0 0 0 0 0 0 0 0 0 0 0 0 0 0 0 0 0 0 0 0 0 0 0 0 0 0 0
0.784553 2.14063e-08 4.27033e-09 1.71359e-08 0.80051 0.685634 0 0 0 0 0 0 0 0 0 0 0 0 0 0 0 0 0 0 0 0 0 0 0 0 0 0 0 0 0 0 0 0 0 0 0 0 0 0 0 0 0 0
0.824824 2.11183e-08 4.14312e-09 1.69752e-08 0.803814 0.688251 0 0 0 0 0 0 0 0 0 0 0 0 0 0 0 0 0 0 0 0 0 0 0 0 0 0 0 0 0 0 0 0 0 0 0 0 0 0 0 0 0 0
0.867162 2.04674e-08 3.89407e-09 1.65733e-08 0.809743 0.678893 0 0 0 0 0 0 0 0 0 0 0 0 0 0 0 0 0 0 0 0 0 0 0 0 0 0 0 0 0 0 0 0 0 0 0 0 0 0 0 0 0 0
0.911674 1.97945e-08 3.64633e-09 1.61482e-08 0.815791 0.667141 0 0 0 0 0 0 0 0 0 0 0 0 0 0 0 0 0 0 0 0 0 0 0 0 0 0 0 0 0 0 0 0 0 0 0 0 0 0 0 0 0 0
0.95847 1.92478e-08 3.50904e-09 1.57388e-08 0.817691 0.671961 0 0 0 0 0 0 0 0 0 0 0 0 0 0 0 0 0 0 0 0 0 0 0 0 0 0 0 0 0 0 0 0 0 0 0 0 0 0 0 0 0 0
1.00767 1.85687e-08 3.44622e-09 1.51225e-08 0.814408 0.683986 0 0 0 0 0 0 0 0 0 0 0 0 0 0 0 0 0 0 0 0 0 0 0 0 0 0 0 0 0 0 0 0 0 0 0 0 0 0 0 0 0 0
1.05939 1.7497e-08 3.40294e-09 1.40941e-08 0.805513 0.68667 0 0 0 0 0 0 0 0 0 0 0 0 0 0 0 0 0 0 0 0 0 0 0 0 0 0 0 0 0 0 0 0 0 0 0 0 0 0 0 0 0 0
1.11377 1.6166e-08 3.27286e-09 1.28932e-08 0.797547 0.674325 0 0 0 0 0 0 0 0 0 0 0 0 0 0 0 0 0 0 0 0 0 0 0 0 0 0 0 0 0 0 0 0 0 0 0 0 0 0 0 0 0 0
1.17094 1.4897e-08 3.10557e-09 1.17915e-08 0.791531 0.647682 0 0 0 0 0 0 0 0 0 0 0 0 0 0 0 0 0 0 0 0 0 0 0 0 0 0 0 0 0 0 0 0 0 0 0 0 0 0 0 0 0 0
1.23105 1.38426e-08 2.96914e-09 1.08735e-08 0.785507 0.614745 0 0 0 0 0 0 0 0 0 0 0 0 0 0 0 0 0 0 0 0 0 0 0 0 0 0 0 0 0 0 0 0 0 0 0 0 0 0 0 0 0 0
1.29424 1.29737e-08 2.88745e-09 1.00862e-08 0.777438 0.588932 0 0 0 0 0 0 0 0 0 0 0 0 0 0 0 0 0 0 0 0 0 0 0 0 0 0 0 0 0 0 0 0 0 0 0 0 0 0 0 0 0 0
1.36067 1.22003e-08 2.84736e-09 9.35297e-09 0.766616 0.57639 0 0 0 0 0 0 0 0 0 0 0 0 0 0 0 0 0 0 0 0 0 0 0 0 0 0 0 0 0 0 0 0 0 0 0 0 0 0 0 0 0 0
1.43051 1.12473e-08 2.79638e-09 8.45088e-09 0.751372 0.576246 0 0 0 0 0 0 0 0 0 0 0 0 0 0 0 0 0 0 0 0 0 0 0 0 0 0 0 0 0 0 0 0 0 0 0 0 0 0 0 0 0 0
1.50394 1.02565e-08 2.72246e-09 7.53399e-09 0.734561 0.583012 0 0 0 0 0 0 0 0 0 0 0 0 0 0 0 0 0 0 0 0 0 0 0 0 0 0 0 0 0 0 0 0 0 0 0 0 0 0 0 0 0 0
1.58114 9.23545e-09 2.61321e-09 6.62224e-09 0.717046 0.588351 0 0 0 0 0 0 0 0 0 0 0 0 0 0 0 0 0 0 0 0 0 0 0 0 0 0 0 0 0 0 0 0 0 0 0 0 0 0 0 0 0 0
1.6623 8.24704e-09 2.47781e-09 5.76923e-09 0.699552 0.583519 0 0 0 0 0 0 0 0 0 0 0 0 0 0 0 0 0 0 0 0 0 0 0 0 0 0 0 0 0 0 0 0 0 0 0 0 0 0 0 0 0 0
1.74763 7.35001e-09 2.33677e-09 5.01324e-09 0.682073 0.562624 0 0 0 0 0 0 0 0 0 0 0 0 0 0 0 0 0 0 0 0 0 0 0 0 0 0 0 0 0 0 0 0 0 0 0 0 0 0 0 0 0 0
1.83733 6.56637e-09 2.20819e-09 4.35818e-09 0.663712 0.525569 0 0 0 0 0 0 0 0 0 0 0 0 0 0 0 0 0 0 0 0 0 0 0 0 0 0 0 0 0 0 0 0 0 0 0 0 0 0 0 0 0 0
1.93164 5.89209e-09 2.10194e-09 3.79015e-09 0.643261 0.4778 0 0 0 0 0 0 0 0 0 0 0 0 0 0 0 0 0 0 0 0 0 0 0 0 0 0 0 0 0 0 0 0 0 0 0 0 0 0 0 0 0 0
2.03079 5.31496e-09 2.02055e-09 3.29441e-09 0.619837 0.426729 0 0 0 0 0 0 0 0 0 0 0 0 0 0 0 0 0 0 0 0 0 0 0 0 0 0 0 0 0 0 0 0 0 0 0 0 0 0 0 0 0 0
2.13503 4.81581e-09 1.95968e-09 2.85612e-09 0.593073 0.377586 0 0 0 0 0 0 0 0 0 0 0 0 0 0 0 0 0 0 0 0 0 0 0 0 0 0 0 0 0 0 0 0 0 0 0 0 0 0 0 0 0 0
2.24463 4.37657e-09 1.91023e-09 2.46635e-09 0.563533 0.333118 0 0 0 0 0 0 0 0 0 0 0 0 0 0 0 0 0 0 0 0 0 0 0 0 0 0 0 0 0 0 0 0 0 0 0 0 0 0 0 0 0 0
2.35984 3.9856e-09 1.86754e-09 2.11805e-09 0.531427 0.294238 0 0 0 0 0 0 0 0 0 0 0 0 0 0 0 0 0 0 0 0 0 0 0 0 0 0 0 0 0 0 0 0 0 0 0 0 0 0 0 0 0 0
2.48097 3.63949e-09 1.83168e-09 1.80781e-09 0.496721 0.260546 0 0 0 0 0 0 0 0 0 0 0 0 0 0 0 0 0 0 0 0 0 0 0 0 0 0 0 0 0 0 0 0 0 0 0 0 0 0 0 0 0 0
2.60832 3.33574e-09 1.80141e-09 1.53433e-09 0.459967 0.231459 0 0 0 0 0 0 0 0 0 0 0 0 0 0 0 0 0 0 0 0 0 0 0 0 0 0 0 0 0 0 0 0 0 0 0 0 0 0 0 0 0 0
2.74221 3.07334e-09 1.77786e-09 1.29548e-09 0.421522 0.20628 0 0 0 0 0 0 0 0 0 0 0 0 0 0 0 0 0 0 0 0 0 0 0 0 0 0 0 0 0 0 0 0 0 0 0 0 0 0 0 0 0 0
2.88297 2.85132e-09 1.76104e-09 1.09027e-09 0.382375 0.184357 0 0 0 0 0 0 0 0 0 0 0 0 0 0 0 0 0 0 0 0 0 0 0 0 0 0 0 0 0 0 0 0 0 0 0 0 0 0 0 0 0 0
3.03095 2.66844e-09 1.75097e-09 9.17473e-10 0.343823 0.165179 0 0 0 0 0 0 0 0 0 0 0 0 0 0 0 0 0 0 0 0 0 0 0 0 0 0 0 0 0 0 0 0 0 0 0 0 0 0 0 0 0 0
3.18653 2.49921e-09 1.72729e-09 7.71912e-10 0.308863 0.148282 0 0 0 0 0 0 0 0 0 0 0 0 0 0 0 0 0 0 0 0 0 0 0 0 0 0 0 0 0 0 0 0 0 0 0 0 0 0 0 0 0 0
3.35009 2.36974e-09 1.73242e-09 6.3732e-10 0.268941 0.133306 0 0 0 0 0 0 0 0 0 0 0 0 0 0 0 0 0 0 0 0 0 0 0 0 0 0 0 0 0 0 0 0 0 0 0 0 0 0 0 0 0 0
3.52205 2.27755e-09 1.71305e-09 5.64498e-10 0.247853 0.119979 0 0 0 0 0 0 0 0 0 0 0 0 0 0 0 0 0 0 0 0 0 0 0 0 0 0 0 0 0 0 0 0 0 0 0 0 0 0 0 0 0 0
3.70284 2.03789e-09 1.57394e-09 4.63955e-10 0.227664 0.108084 0 0 0 0 0 0 0 0 0 0 0 0 0 0 0 0 0 0 0 0 0 0 0 0 0 0 0 0 0 0 0 0 0 0 0 0 0 0 0 0 0 0
3.89291 1.89824e-09 1.51572e-09 3.82517e-10 0.201511 0.0974135 0 0 0 0 0 0 0 0 0 0 0 0 0 0 0 0 0 0 0 0 0 0 0 0 0 0 0 0 0 0 0 0 0 0 0 0 0 0 0 0 0 0
4.09273 1.78173e-09 1.46664e-09 3.15091e-10 0.176846 0.087808 0 0 0 0 0 0 0 0 0 0 0 0 0 0 0 0 0 0 0 0 0 0 0 0 0 0 0 0 0 0 0 0 0 0 0 0 0 0 0 0 0 0
4.30281 1.68573e-09 1.4264e-09 2.59332e-10 0.153839 0.0791503 0 0 0 0 0 0 0 0 0 0 0 0 0 0 0 0 0 0 0 0 0 0 0 0 0 0 0 0 0 0 0 0 0 0 0 0 0 0 0 0 0 0
4.52368 1.60867e-09 1.39522e-09 2.13453e-10 0.132689 0.0713454 0 0 0 0 0 0 0 0 0 0 0 0 0 0 0 0 0 0 0 0 0 0 0 0 0 0 0 0 0 0 0 0 0 0 0 0 0 0 0 0 0 0
4.75588 1.54692e-09 1.37106e-09 1.75858e-10 0.113683 0.0642821 0 0 0 0 0 0 0 0 0 0 0 0 0 0 0 0 0 0 0 0 0 0 0 0 0 0 0 0 0 0 0 0 0 0 0 0 0 0 0 0 0 0
5 1.49523e-09 1.35011e-09 1.45129e-10 0.0970609 0.0578695 0 0 0 0 0 0 0 0 0 0 0 0 0 0 0 0 0 0 0 0 0 0 0 0 0 0 0 0 0 0 0 0 0 0 0 0 0 0 0 0 0 0
5.25665 1.4486e-09 1.32874e-09 1.19864e-10 0.0827444 0.0520466 0 0 0 0 0 0 0 0 0 0 0 0 0 0 0 0 0 0 0 0 0 0 0 0 0 0 0 0 0 0 0 0 0 0 0 0 0 0 0 0 0 0
5.52648 1.40607e-09 1.30711e-09 9.89602e-11 0.0703807 0.0467763 0 0 0 0 0 0 0 0 0 0 0 0 0 0 0 0 0 0 0 0 0 0 0 0 0 0 0 0 0 0 0 0 0 0 0 0 0 0 0 0 0 0
5.81015 1.36577e-09 1.28418e-09 8.15878e-11 0.0597377 0.0419711 0 0 0 0 0 0 0 0 0 0 0 0 0 0 0 0 0 0 0 0 0 0 0 0 0 0 0 0 0 0 0 0 0 0 0 0 0 0 0 0 0 0
6.10839 1.32822e-09 1.26111e-09 6.71069e-11 0.0505239 0.0376004 0 0 0 0 0 0 0 0 0 0 0 0 0 0 0 0 0 0 0 0 0 0 0 0 0 0 0 0 0 0 0 0 0 0 1.4013e-45 0 2.8026e-45 0 5.60519e-45 0 1.54143e-44 0
6.42193 1.2925e-09 1.23752e-09 5.49784e-11 0.0425366 0.0336086 0 0 0 0 0 0 0 0 0 0 0 0 0 0 0 0 0 0 0 0 0 0 0 0 0 0 1.4013e-45 0 4.2039e-45 0 1.4013e-44 0 4.62428e-44 0 1.30321e-43 0 3.47522e-43 0 8.82818e-43 0 2.09774e-42 0
6.75157 1.26244e-09 1.21777e-09 4.46665e-11 0.0353811 0.0299272 0 0 0 0 0 0 0 0 0 0 0 0 0 0 0 0 0 0 0 0 1.4013e-45 0 9.80909e-45 0 4.34403e-44 0 1.75162e-43 0 6.22177e-43 0 1.97583e-42 0 5.79717e-42 0 1.578e-41 0 4.00099e-41 0 9.72179e-41 0 2.21273e-40 0
7.09813 1.22499e-09 1.18872e-09 3.62739e-11 0.0296115 0.0264617 0 0 0 0 0 0 0 0 0 0 0 0 0 0 0 0 5.60519e-45 0 4.06377e-44 0 2.52234e-43 0 1.25276e-42 0 5.45385e-42 0 2.04141e-41 0 6.81844e-41 0 2.04662e-40 0 5.69758e-40 0 1.47704e-39 0 3.57864e-39 0 8.32676e-39 0 1.82063e-38 0
7.46248 1.19154e-09 1.16284e-09 2.87031e-11 0.0240891 0.0230995 0 0 0 0 0 0 0 0 0 0 0 0 4.2039e-45 0 7.00649e-44 0 6.96445e-43 0 4.9648e-42 0 2.85529e-41 0 1.31248e-40 0 5.31619e-40 0 1.86578e-39 0 5.87553e-39 0 1.67144e-38 0 4.42624e-38 0 1.09531e-37 0 2.54155e-37 0 5.6748e-37 0 1.19428e-36 0
7.84553 1.15731e-09 1.13565e-09 2.16629e-11 0.0187183 0.0199084 0 0 0 0 0 0 0 0 0 0 2.66247e-44 0 6.33387e-43 0 8.3055e-42 0 7.38877e-41 0 4.78964e-40 0 2.52923e-39 0 1.07915e-38 0 4.08251e-38 0 1.34761e-37 0 4.01262e-37 0 1.08469e-36 0 2.73904e-36 0 6.48468e-36 0 1.44411e-35 0 3.10043e-35 0 6.29217e-35 0
8.24824 1.26557e-09 1.24973e-09 1.58428e-11 0.0125182 0.0171867 0 0 0 0 0 0 0 0 8.68805e-44 0 3.76249e-42 0 7.51839e-41 0 8.68759e-40 0 6.94679e-39 0 4.11036e-38 0 2.00116e-37 0 7.95445e-37 0 2.81997e-36 0 8.78132e-36 0 2.47906e-35 0 6.38377e-35 0 1.54074e-34 0 3.4974e-34 0 7.49e-34 0 1.54918e-33 0 3.03719e-33 0
8.67162 1.5167e-09 1.50302e-09 1.36796e-11 0.0090193 0.0149875 0 0 0 0 0 0 9.66896e-44 0 1.22502e-41 0 4.43679e-40 0 7.66062e-39 0 7.85506e-38 0 5.67482e-37 0 3.07858e-36 0 1.38737e-35 0 5.15534e-35 0 1.71813e-34 0 5.06158e-34 0 1.35834e-33 0 3.33996e-33 0 7.72166e-33 0 1.68401e-32 0 3.47483e-32 0 6.93653e-32 0 1.31595e-31 0
9.11674 2.06413e-09 2.04789e-09 1.62332e-11 0.00786442 0.0127999 0 0 0 0 1.54143e-44 0 1.5347e-41 0 1.54019e-39 0 4.68129e-38 0 7.03324e-37 0 6.43703e-36 0 4.22239e-35 0 2.10912e-34 0 8.83116e-34 0 3.07788e-33 0 9.67219e-33 0 2.70299e-32 0 6.91249e-32 0 1.62664e-31 0 3.60986e-31 0 7.57863e-31 0 1.50945e-30 0 2.9132e-30 0 5.35661e-30 0
9.5847 2.5331e-09 2.51039e-09 2.271e-11 0.00896532 0.0113878 0 0 0 0 2.38781e-42 0 1.72182e-39 0 1.37984e-37 0 3.54996e-36 0 4.67259e-35 0 3.83833e-34 0 2.29684e-33 0 1.06064e-32 0 4.14115e-32 0 1.35794e-31 0 4.03529e-31 0 1.07252e-30 0 2.61989e-30 0 5.91281e-30 0 1.26209e-29 0 2.55543e-29 0 4.92135e-29 0 9.19801e-29 0 1.64172e-28 0
10.0767 2.48513e-09 2.45981e-09 2.53147e-11 0.0101865 0.0107403 0 0 1.4013e-45 0 2.33909e-40 0 1.22352e-37 0 7.9159e-36 0 1.73794e-34 0 2.01706e-33 0 1.49503e-32 0 8.19791e-32 0 3.51317e-31 0 1.28342e-30 0 3.97144e-30 0 1.11905e-29 0 2.83564e-29 0 6.63121e-29 0 1.43828e-28 0 2.95844e-28 0 5.78733e-28 0 1.07945e-27 0 1.95681e-27 0 3.39523e-27 0
10.5939 2.13275e-09 2.1101e-09 2.26469e-11 0.0106186 0.0104977 0 0 2.12997e-43 0 1.58307e-38 0 6.10009e-36 0 3.21965e-34 0 6.07918e-33 0 6.25959e-32 0 4.2073e-31 0 2.12311e-30 0 8.47449e-30 0 2.90611e-29 0 8.51017e-29 0 2.27968e-28 0 5.52026e-28 0 1.23848e-27 0 2.58655e-27 0 5.13627e-27 0 9.7238e-27 0 1.7593e-26 0 3.09796e-26 0 5.23253e-26 0
11.1377 1.78763e-09 1.76852e-09 1.91035e-11 0.0106865 0.0107288 0 0 1.94304e-41 0 8.3547e-37 0 2.40722e-34 0 1.04686e-32 0 1.71248e-31 0 1.57356e-30 0 9.63696e-30 0 4.49353e-29 0 1.6764e-28 0 5.4131e-28 0 1.50415e-27 0 3.84e-27 0 8.90564e-27 0 1.9207e-26 0 3.86971e-26 0 7.43119e-26 0 1.36368e-25 0 2.39688e-25 0 4.10566e-25 0 6.75934e-25 0
11.7094 1.43408e-09 1.41914e-09 1.4944e-11 0.0104206 0.010802 1.4013e-44 0 1.33385e-39 0 3.4066e-35 0 7.44421e-33 0 2.69278e-31 0 3.84306e-30 0 3.16887e-29 0 1.77637e-28 0 7.6831e-28 0 2.68788e-27 0 8.19639e-27 0 2.16669e-26 0 5.28402e-26 0 1.17615e-25 0 2.4432e-25 0 4.75689e-25 0 8.84847e-25 0 1.57634e-24 0 2.6954e-24 0 4.49727e-24 0 7.22602e-24 0
12.3105 1.14623e-09 1.13511e-09 1.11159e-11 0.00969783 0.0107709 1.37187e-42 0 7.25565e-38 0 1.12905e-33 0 1.89665e-31 0 5.75815e-30 0 7.21759e-29 0 5.36891e-28 0 2.76672e-27 0 1.11408e-26 0 3.66635e-26 0 1.05878e-25 0 2.66911e-25 0 6.23206e-25 0 1.33402e-24 0 2.67398e-24 0 5.03959e-24 0 9.09452e-24 0 1.57513e-23 0 2.62371e-23 0 4.2696e-23 0 6.70319e-23 0
12.9424 1.03237e-09 1.02432e-09 8.05461e-12 0.00780205 0.01033 1.15139e-40 0 3.57974e-36 0 3.47708e-32 0 4.54823e-30 0 1.16887e-28 0 1.29498e-27 0 8.73385e-27 0 4.15449e-26 0 1.5629e-25 0 4.8528e-25 0 1.33069e-24 0 3.20651e-24 0 7.1832e-24 0 1.48153e-23 0 2.87053e-23 0 5.24519e-23 0 9.1966e-23 0 1.55067e-22 0 2.51941e-22 0 4.00354e-22 0 6.14858e-22 0
