# 3.9811e-05 1 122 : grain size, compostion index, size index
# Heating and cooling timescale: 0.00317698 7.97656e+06
# Ratio of heating to cooling to determine stochastic cutoff: 100
# Equilibrium emission is recorded even for those grains in the stochastic regime.
# Emission spectrum was computed for: 
# Type: IRSF
# Scales: 0.25 0.5 1 1.5 2 2.5 3 3.5 4 4.5 5 5.5 6 6.5 7 7.5 8 8.5 9 9.5 10
# StochasticallyHeated: 0 0 0 0 0 0 0 0 0 0 0 0 0 0 0 0 0 0 0 0 0
# Temperature: -1
# Wavelength  CExt  CAbs  CSca  Albedo G EqEm1 StEm1 EqEm2 StEm2 EqEm3 StEm3 EqEm4 StEm4 EqEm5 StEm5 EqEm6 StEm6 EqEm7 StEm7 EqEm8 StEm8 EqEm9 StEm9 EqEm10 StEm10 EqEm11 StEm11 EqEm12 StEm12 EqEm13 StEm13 EqEm14 StEm14 EqEm15 StEm15 EqEm16 StEm16 EqEm17 StEm17 EqEm18 StEm18 EqEm19 StEm19 EqEm20 StEm20 EqEm21 StEm21
0.05 2.77343e-09 1.23382e-09 1.53961e-09 0.555127 0.214184 0 0 0 0 0 0 0 0 0 0 0 0 0 0 0 0 0 0 0 0 0 0 0 0 0 0 0 0 0 0 0 0 0 0 0 0 0 0 0 0 0 0
0.0525665 3.06546e-09 1.36374e-09 1.70172e-09 0.555127 0.236736 0 0 0 0 0 0 0 0 0 0 0 0 0 0 0 0 0 0 0 0 0 0 0 0 0 0 0 0 0 0 0 0 0 0 0 0 0 0 0 0 0 0
0.0552647 3.38824e-09 1.50734e-09 1.8809e-09 0.555127 0.261664 0 0 0 0 0 0 0 0 0 0 0 0 0 0 0 0 0 0 0 0 0 0 0 0 0 0 0 0 0 0 0 0 0 0 0 0 0 0 0 0 0 0
0.0581015 3.745e-09 1.66605e-09 2.07895e-09 0.555127 0.289216 0 0 0 0 0 0 0 0 0 0 0 0 0 0 0 0 0 0 0 0 0 0 0 0 0 0 0 0 0 0 0 0 0 0 0 0 0 0 0 0 0 0
0.0610839 4.13933e-09 1.84148e-09 2.29785e-09 0.555127 0.319669 0 0 0 0 0 0 0 0 0 0 0 0 0 0 0 0 0 0 0 0 0 0 0 0 0 0 0 0 0 0 0 0 0 0 0 0 0 0 0 0 0 0
0.0642193 4.57518e-09 2.03538e-09 2.53981e-09 0.555127 0.353328 0 0 0 0 0 0 0 0 0 0 0 0 0 0 0 0 0 0 0 0 0 0 0 0 0 0 0 0 0 0 0 0 0 0 0 0 0 0 0 0 0 0
0.0675157 5.05693e-09 2.24969e-09 2.80724e-09 0.555127 0.390532 0 0 0 0 0 0 0 0 0 0 0 0 0 0 0 0 0 0 0 0 0 0 0 0 0 0 0 0 0 0 0 0 0 0 0 0 0 0 0 0 0 0
0.0709813 5.5894e-09 2.48657e-09 3.10282e-09 0.555127 0.431653 0 0 0 0 0 0 0 0 0 0 0 0 0 0 0 0 0 0 0 0 0 0 0 0 0 0 0 0 0 0 0 0 0 0 0 0 0 0 0 0 0 0
0.0746248 6.17793e-09 2.7484e-09 3.42954e-09 0.555127 0.477104 0 0 0 0 0 0 0 0 0 0 0 0 0 0 0 0 0 0 0 0 0 0 0 0 0 0 0 0 0 0 0 0 0 0 0 0 0 0 0 0 0 0
0.0784553 6.82844e-09 3.03779e-09 3.79065e-09 0.555127 0.527341 0 0 0 0 0 0 0 0 0 0 0 0 0 0 0 0 0 0 0 0 0 0 0 0 0 0 0 0 0 0 0 0 0 0 0 0 0 0 0 0 0 0
0.0824824 7.54744e-09 3.35765e-09 4.18979e-09 0.555127 0.582867 0 0 0 0 0 0 0 0 0 0 0 0 0 0 0 0 0 0 0 0 0 0 0 0 0 0 0 0 0 0 0 0 0 0 0 0 0 0 0 0 0 0
0.0867162 8.34215e-09 3.7112e-09 4.63095e-09 0.555127 0.64424 0 0 0 0 0 0 0 0 0 0 0 0 0 0 0 0 0 0 0 0 0 0 0 0 0 0 0 0 0 0 0 0 0 0 0 0 0 0 0 0 0 0
0.0911674 9.22054e-09 4.10197e-09 5.11857e-09 0.555127 0.712076 0 0 0 0 0 0 0 0 0 0 0 0 0 0 0 0 0 0 0 0 0 0 0 0 0 0 0 0 0 0 0 0 0 0 0 0 0 0 0 0 0 0
0.095847 1.01914e-08 4.53389e-09 5.65753e-09 0.555127 0.787054 0 0 0 0 0 0 0 0 0 0 0 0 0 0 0 0 0 0 0 0 0 0 0 0 0 0 0 0 0 0 0 0 0 0 0 0 0 0 0 0 0 0
0.100767 1.1103e-08 4.94019e-09 6.16281e-09 0.555058 0.856691 0 0 0 0 0 0 0 0 0 0 0 0 0 0 0 0 0 0 0 0 0 0 0 0 0 0 0 0 0 0 0 0 0 0 0 0 0 0 0 0 0 0
0.105939 1.11657e-08 4.97334e-09 6.19236e-09 0.554588 0.859739 0 0 0 0 0 0 0 0 0 0 0 0 0 0 0 0 0 0 0 0 0 0 0 0 0 0 0 0 0 0 0 0 0 0 0 0 0 0 0 0 0 0
0.111377 1.12288e-08 5.00953e-09 6.21926e-09 0.553867 0.863836 0 0 0 0 0 0 0 0 0 0 0 0 0 0 0 0 0 0 0 0 0 0 0 0 0 0 0 0 0 0 0 0 0 0 0 0 0 0 0 0 0 0
0.117094 1.12922e-08 5.045e-09 6.2472e-09 0.553231 0.866223 0 0 0 0 0 0 0 0 0 0 0 0 0 0 0 0 0 0 0 0 0 0 0 0 0 0 0 0 0 0 0 0 0 0 0 0 0 0 0 0 0 0
0.123105 1.13556e-08 5.08651e-09 6.2691e-09 0.55207 0.867465 0 0 0 0 0 0 0 0 0 0 0 0 0 0 0 0 0 0 0 0 0 0 0 0 0 0 0 0 0 0 0 0 0 0 0 0 0 0 0 0 0 0
0.129424 1.14147e-08 5.13079e-09 6.28394e-09 0.550512 0.867696 0 0 0 0 0 0 0 0 0 0 0 0 0 0 0 0 0 0 0 0 0 0 0 0 0 0 0 0 0 0 0 0 0 0 0 0 0 0 0 0 0 0
0.136067 1.14722e-08 5.17063e-09 6.30161e-09 0.549292 0.866732 0 0 0 0 0 0 0 0 0 0 0 0 0 0 0 0 0 0 0 0 0 0 0 0 0 0 0 0 0 0 0 0 0 0 0 0 0 0 0 0 0 0
0.143051 1.15176e-08 5.22412e-09 6.29352e-09 0.546424 0.863771 0 0 0 0 0 0 0 0 0 0 0 0 0 0 0 0 0 0 0 0 0 0 0 0 0 0 0 0 0 0 0 0 0 0 0 0 0 0 0 0 0 0
0.150394 1.15623e-08 5.2979e-09 6.26444e-09 0.541797 0.86399 0 0 0 0 0 0 0 0 0 0 0 0 0 0 0 0 0 0 0 0 0 0 0 0 0 0 0 0 0 0 0 0 0 0 0 0 0 0 0 0 0 0
0.158114 1.16131e-08 5.3901e-09 6.22305e-09 0.535862 0.86914 0 0 0 0 0 0 0 0 0 0 0 0 0 0 0 0 0 0 0 0 0 0 0 0 0 0 0 0 0 0 0 0 0 0 0 0 0 0 0 0 0 0
0.16623 1.16606e-08 5.49303e-09 6.16759e-09 0.528925 0.875729 0 0 0 0 0 0 0 0 0 0 0 0 0 0 0 0 0 0 0 0 0 0 0 0 0 0 0 0 0 0 0 0 0 0 0 0 0 0 0 0 0 0
0.174762 1.1766e-08 5.57586e-09 6.19019e-09 0.526106 0.881379 0 0 0 0 0 0 0 0 0 0 0 0 0 0 0 0 0 0 0 0 0 0 0 0 0 0 0 0 0 0 0 0 0 0 0 0 0 0 0 0 0 0
0.183733 1.19111e-08 5.57525e-09 6.33584e-09 0.531928 0.881049 0 0 0 0 0 0 0 0 0 0 0 0 0 0 0 0 0 0 0 0 0 0 0 0 0 0 0 0 0 0 0 0 0 0 0 0 0 0 0 0 0 0
0.193164 1.15066e-08 5.46434e-09 6.04227e-09 0.525113 0.875104 0 0 0 0 0 0 0 0 0 0 0 0 0 0 0 0 0 0 0 0 0 0 0 0 0 0 0 0 0 0 0 0 0 0 0 0 0 0 0 0 0 0
0.203079 1.18785e-08 5.45773e-09 6.42074e-09 0.540536 0.84461 0 0 0 0 0 0 0 0 0 0 0 0 0 0 0 0 0 0 0 0 0 0 0 0 0 0 0 0 0 0 0 0 0 0 0 0 0 0 0 0 0 0
0.213503 1.2433e-08 5.48271e-09 6.9503e-09 0.55902 0.817212 0 0 0 0 0 0 0 0 0 0 0 0 0 0 0 0 0 0 0 0 0 0 0 0 0 0 0 0 0 0 0 0 0 0 0 0 0 0 0 0 0 0
0.224463 1.24271e-08 5.49137e-09 6.9357e-09 0.558112 0.819662 0 0 0 0 0 0 0 0 0 0 0 0 0 0 0 0 0 0 0 0 0 0 0 0 0 0 0 0 0 0 0 0 0 0 0 0 0 0 0 0 0 0
0.235984 1.21194e-08 5.51315e-09 6.60628e-09 0.545098 0.80698 0 0 0 0 0 0 0 0 0 0 0 0 0 0 0 0 0 0 0 0 0 0 0 0 0 0 0 0 0 0 0 0 0 0 0 0 0 0 0 0 0 0
0.248097 1.19359e-08 5.51242e-09 6.42352e-09 0.538166 0.774155 0 0 0 0 0 0 0 0 0 0 0 0 0 0 0 0 0 0 0 0 0 0 0 0 0 0 0 0 0 0 0 0 0 0 0 0 0 0 0 0 0 0
0.260832 1.20526e-08 5.52226e-09 6.5303e-09 0.541819 0.754499 0 0 0 0 0 0 0 0 0 0 0 0 0 0 0 0 0 0 0 0 0 0 0 0 0 0 0 0 0 0 0 0 0 0 0 0 0 0 0 0 0 0
0.274221 1.2374e-08 5.54449e-09 6.82955e-09 0.551925 0.753432 0 0 0 0 0 0 0 0 0 0 0 0 0 0 0 0 0 0 0 0 0 0 0 0 0 0 0 0 0 0 0 0 0 0 0 0 0 0 0 0 0 0
0.288297 1.26652e-08 5.53563e-09 7.12955e-09 0.562925 0.783525 0 0 0 0 0 0 0 0 0 0 0 0 0 0 0 0 0 0 0 0 0 0 0 0 0 0 0 0 0 0 0 0 0 0 0 0 0 0 0 0 0 0
0.303095 1.27843e-08 5.49862e-09 7.28571e-09 0.569894 0.808895 0 0 0 0 0 0 0 0 0 0 0 0 0 0 0 0 0 0 0 0 0 0 0 0 0 0 0 0 0 0 0 0 0 0 0 0 0 0 0 0 0 0
0.318653 1.27319e-08 5.4836e-09 7.24833e-09 0.569303 0.821492 0 0 0 0 0 0 0 0 0 0 0 0 0 0 0 0 0 0 0 0 0 0 0 0 0 0 0 0 0 0 0 0 0 0 0 0 0 0 0 0 0 0
0.335009 1.25625e-08 5.40421e-09 7.15832e-09 0.569815 0.823462 0 0 0 0 0 0 0 0 0 0 0 0 0 0 0 0 0 0 0 0 0 0 0 0 0 0 0 0 0 0 0 0 0 0 0 0 0 0 0 0 0 0
0.352205 1.23056e-08 5.3856e-09 6.92001e-09 0.562346 0.79926 0 0 0 0 0 0 0 0 0 0 0 0 0 0 0 0 0 0 0 0 0 0 0 0 0 0 0 0 0 0 0 0 0 0 0 0 0 0 0 0 0 0
0.370284 1.22003e-08 5.28778e-09 6.91256e-09 0.566588 0.761402 0 0 0 0 0 0 0 0 0 0 0 0 0 0 0 0 0 0 0 0 0 0 0 0 0 0 0 0 0 0 0 0 0 0 0 0 0 0 0 0 0 0
0.389291 1.21729e-08 5.22617e-09 6.94675e-09 0.570672 0.708062 0 0 0 0 0 0 0 0 0 0 0 0 0 0 0 0 0 0 0 0 0 0 0 0 0 0 0 0 0 0 0 0 0 0 0 0 0 0 0 0 0 0
0.409273 1.23758e-08 5.10653e-09 7.26929e-09 0.587379 0.634757 0 0 0 0 0 0 0 0 0 0 0 0 0 0 0 0 0 0 0 0 0 0 0 0 0 0 0 0 0 0 0 0 0 0 0 0 0 0 0 0 0 0
0.430281 1.28367e-08 5.0801e-09 7.75662e-09 0.604252 0.547553 0 0 0 0 0 0 0 0 0 0 0 0 0 0 0 0 0 0 0 0 0 0 0 0 0 0 0 0 0 0 0 0 0 0 0 0 0 0 0 0 0 0
0.452368 1.333e-08 4.92705e-09 8.40297e-09 0.63038 0.521071 0 0 0 0 0 0 0 0 0 0 0 0 0 0 0 0 0 0 0 0 0 0 0 0 0 0 0 0 0 0 0 0 0 0 0 0 0 0 0 0 0 0
0.475588 1.42086e-08 4.81887e-09 9.38974e-09 0.660849 0.460972 0 0 0 0 0 0 0 0 0 0 0 0 0 0 0 0 0 0 0 0 0 0 0 0 0 0 0 0 0 0 0 0 0 0 0 0 0 0 0 0 0 0
0.5 1.49996e-08 4.73373e-09 1.02659e-08 0.68441 0.502732 0 0 0 0 0 0 0 0 0 0 0 0 0 0 0 0 0 0 0 0 0 0 0 0 0 0 0 0 0 0 0 0 0 0 0 0 0 0 0 0 0 0
0.525665 1.57901e-08 4.60754e-09 1.11826e-08 0.708201 0.528465 0 0 0 0 0 0 0 0 0 0 0 0 0 0 0 0 0 0 0 0 0 0 0 0 0 0 0 0 0 0 0 0 0 0 0 0 0 0 0 0 0 0
0.552648 1.6752e-08 4.50907e-09 1.22429e-08 0.730834 0.537921 0 0 0 0 0 0 0 0 0 0 0 0 0 0 0 0 0 0 0 0 0 0 0 0 0 0 0 0 0 0 0 0 0 0 0 0 0 0 0 0 0 0
0.581015 1.75146e-08 4.38719e-09 1.31274e-08 0.749513 0.600498 0 0 0 0 0 0 0 0 0 0 0 0 0 0 0 0 0 0 0 0 0 0 0 0 0 0 0 0 0 0 0 0 0 0 0 0 0 0 0 0 0 0
0.610839 1.81162e-08 4.26284e-09 1.38534e-08 0.764695 0.625368 0 0 0 0 0 0 0 0 0 0 0 0 0 0 0 0 0 0 0 0 0 0 0 0 0 0 0 0 0 0 0 0 0 0 0 0 0 0 0 0 0 0
0.642193 1.85635e-08 4.11119e-09 1.44523e-08 0.778534 0.626447 0 0 0 0 0 0 0 0 0 0 0 0 0 0 0 0 0 0 0 0 0 0 0 0 0 0 0 0 0 0 0 0 0 0 0 0 0 0 0 0 0 0
0.675157 1.88235e-08 3.94635e-09 1.48772e-08 0.79035 0.645212 0 0 0 0 0 0 0 0 0 0 0 0 0 0 0 0 0 0 0 0 0 0 0 0 0 0 0 0 0 0 0 0 0 0 0 0 0 0 0 0 0 0
0.709813 1.90158e-08 3.84519e-09 1.51706e-08 0.79779 0.679914 0 0 0 0 0 0 0 0 0 0 0 0 0 0 0 0 0 0 0 0 0 0 0 0 0 0 0 0 0 0 0 0 0 0 0 0 0 0 0 0 0 0
0.746248 1.90611e-08 3.79463e-09 1.52665e-08 0.800923 0.691945 0 0 0 0 0 0 0 0 0 0 0 0 0 0 0 0 0 0 0 0 0 0 0 0 0 0 0 0 0 0 0 0 0 0 0 0 0 0 0 0 0 0
0.784553 1.87422e-08 3.6628e-09 1.50794e-08 0.804569 0.683843 0 0 0 0 0 0 0 0 0 0 0 0 0 0 0 0 0 0 0 0 0 0 0 0 0 0 0 0 0 0 0 0 0 0 0 0 0 0 0 0 0 0
0.824824 1.81392e-08 3.43279e-09 1.47064e-08 0.810752 0.665449 0 0 0 0 0 0 0 0 0 0 0 0 0 0 0 0 0 0 0 0 0 0 0 0 0 0 0 0 0 0 0 0 0 0 0 0 0 0 0 0 0 0
0.867162 1.7565e-08 3.22295e-09 1.43421e-08 0.816513 0.666163 0 0 0 0 0 0 0 0 0 0 0 0 0 0 0 0 0 0 0 0 0 0 0 0 0 0 0 0 0 0 0 0 0 0 0 0 0 0 0 0 0 0
0.911674 1.70909e-08 3.11468e-09 1.39762e-08 0.817758 0.678445 0 0 0 0 0 0 0 0 0 0 0 0 0 0 0 0 0 0 0 0 0 0 0 0 0 0 0 0 0 0 0 0 0 0 0 0 0 0 0 0 0 0
0.95847 1.64762e-08 3.06382e-09 1.34124e-08 0.814046 0.690646 0 0 0 0 0 0 0 0 0 0 0 0 0 0 0 0 0 0 0 0 0 0 0 0 0 0 0 0 0 0 0 0 0 0 0 0 0 0 0 0 0 0
1.00767 1.5491e-08 2.96537e-09 1.25256e-08 0.808575 0.691297 0 0 0 0 0 0 0 0 0 0 0 0 0 0 0 0 0 0 0 0 0 0 0 0 0 0 0 0 0 0 0 0 0 0 0 0 0 0 0 0 0 0
1.05939 1.42624e-08 2.82893e-09 1.14334e-08 0.801651 0.671922 0 0 0 0 0 0 0 0 0 0 0 0 0 0 0 0 0 0 0 0 0 0 0 0 0 0 0 0 0 0 0 0 0 0 0 0 0 0 0 0 0 0
1.11377 1.31263e-08 2.67012e-09 1.04562e-08 0.796582 0.63862 0 0 0 0 0 0 0 0 0 0 0 0 0 0 0 0 0 0 0 0 0 0 0 0 0 0 0 0 0 0 0 0 0 0 0 0 0 0 0 0 0 0
1.17094 1.22151e-08 2.55436e-09 9.66076e-09 0.790886 0.605766 0 0 0 0 0 0 0 0 0 0 0 0 0 0 0 0 0 0 0 0 0 0 0 0 0 0 0 0 0 0 0 0 0 0 0 0 0 0 0 0 0 0
1.23105 1.14491e-08 2.49425e-09 8.95488e-09 0.782145 0.582819 0 0 0 0 0 0 0 0 0 0 0 0 0 0 0 0 0 0 0 0 0 0 0 0 0 0 0 0 0 0 0 0 0 0 0 0 0 0 0 0 0 0
1.29424 1.07108e-08 2.46411e-09 8.24669e-09 0.769942 0.573872 0 0 0 0 0 0 0 0 0 0 0 0 0 0 0 0 0 0 0 0 0 0 0 0 0 0 0 0 0 0 0 0 0 0 0 0 0 0 0 0 0 0
1.36067 9.95176e-09 2.43418e-09 7.51758e-09 0.755402 0.577425 0 0 0 0 0 0 0 0 0 0 0 0 0 0 0 0 0 0 0 0 0 0 0 0 0 0 0 0 0 0 0 0 0 0 0 0 0 0 0 0 0 0
1.43051 9.0064e-09 2.36187e-09 6.64453e-09 0.737757 0.58749 0 0 0 0 0 0 0 0 0 0 0 0 0 0 0 0 0 0 0 0 0 0 0 0 0 0 0 0 0 0 0 0 0 0 0 0 0 0 0 0 0 0
1.50394 8.07852e-09 2.25932e-09 5.81921e-09 0.720331 0.593752 0 0 0 0 0 0 0 0 0 0 0 0 0 0 0 0 0 0 0 0 0 0 0 0 0 0 0 0 0 0 0 0 0 0 0 0 0 0 0 0 0 0
1.58114 7.20004e-09 2.13492e-09 5.06511e-09 0.703485 0.585974 0 0 0 0 0 0 0 0 0 0 0 0 0 0 0 0 0 0 0 0 0 0 0 0 0 0 0 0 0 0 0 0 0 0 0 0 0 0 0 0 0 0
1.6623 6.40788e-09 2.00558e-09 4.40231e-09 0.687014 0.560025 0 0 0 0 0 0 0 0 0 0 0 0 0 0 0 0 0 0 0 0 0 0 0 0 0 0 0 0 0 0 0 0 0 0 0 0 0 0 0 0 0 0
1.74763 5.71746e-09 1.88681e-09 3.83065e-09 0.669991 0.518878 0 0 0 0 0 0 0 0 0 0 0 0 0 0 0 0 0 0 0 0 0 0 0 0 0 0 0 0 0 0 0 0 0 0 0 0 0 0 0 0 0 0
1.83733 5.12147e-09 1.78727e-09 3.33419e-09 0.651023 0.469329 0 0 0 0 0 0 0 0 0 0 0 0 0 0 0 0 0 0 0 0 0 0 0 0 0 0 0 0 0 0 0 0 0 0 0 0 0 0 0 0 0 0
1.93164 4.60521e-09 1.70908e-09 2.89613e-09 0.628881 0.418174 0 0 0 0 0 0 0 0 0 0 0 0 0 0 0 0 0 0 0 0 0 0 0 0 0 0 0 0 0 0 0 0 0 0 0 0 0 0 0 0 0 0
2.03079 4.15785e-09 1.65061e-09 2.50724e-09 0.603014 0.369914 0 0 0 0 0 0 0 0 0 0 0 0 0 0 0 0 0 0 0 0 0 0 0 0 0 0 0 0 0 0 0 0 0 0 0 0 0 0 0 0 0 0
2.13503 3.76723e-09 1.60694e-09 2.16029e-09 0.573442 0.326524 0 0 0 0 0 0 0 0 0 0 0 0 0 0 0 0 0 0 0 0 0 0 0 0 0 0 0 0 0 0 0 0 0 0 0 0 0 0 0 0 0 0
2.24463 3.42216e-09 1.57041e-09 1.85175e-09 0.541106 0.288541 0 0 0 0 0 0 0 0 0 0 0 0 0 0 0 0 0 0 0 0 0 0 0 0 0 0 0 0 0 0 0 0 0 0 0 0 0 0 0 0 0 0
2.35984 3.1158e-09 1.5378e-09 1.578e-09 0.506452 0.255751 0 0 0 0 0 0 0 0 0 0 0 0 0 0 0 0 0 0 0 0 0 0 0 0 0 0 0 0 0 0 0 0 0 0 0 0 0 0 0 0 0 0
2.48097 2.84637e-09 1.50961e-09 1.33676e-09 0.469636 0.22738 0 0 0 0 0 0 0 0 0 0 0 0 0 0 0 0 0 0 0 0 0 0 0 0 0 0 0 0 0 0 0 0 0 0 0 0 0 0 0 0 0 0
2.60832 2.61213e-09 1.48538e-09 1.12675e-09 0.431353 0.202785 0 0 0 0 0 0 0 0 0 0 0 0 0 0 0 0 0 0 0 0 0 0 0 0 0 0 0 0 0 0 0 0 0 0 0 0 0 0 0 0 0 0
2.74221 2.41217e-09 1.46649e-09 9.45676e-10 0.392044 0.181357 0 0 0 0 0 0 0 0 0 0 0 0 0 0 0 0 0 0 0 0 0 0 0 0 0 0 0 0 0 0 0 0 0 0 0 0 0 0 0 0 0 0
2.88297 2.24489e-09 1.45313e-09 7.91759e-10 0.352694 0.162565 0 0 0 0 0 0 0 0 0 0 0 0 0 0 0 0 0 0 0 0 0 0 0 0 0 0 0 0 0 0 0 0 0 0 0 0 0 0 0 0 0 0
3.03095 2.10859e-09 1.44525e-09 6.63337e-10 0.314588 0.146012 0 0 0 0 0 0 0 0 0 0 0 0 0 0 0 0 0 0 0 0 0 0 0 0 0 0 0 0 0 0 0 0 0 0 0 0 0 0 0 0 0 0
3.18653 1.98218e-09 1.42621e-09 5.55974e-10 0.280486 0.131338 0 0 0 0 0 0 0 0 0 0 0 0 0 0 0 0 0 0 0 0 0 0 0 0 0 0 0 0 0 0 0 0 0 0 0 0 0 0 0 0 0 0
3.35009 1.88944e-09 1.43171e-09 4.5773e-10 0.242256 0.118262 0 0 0 0 0 0 0 0 0 0 0 0 0 0 0 0 0 0 0 0 0 0 0 0 0 0 0 0 0 0 0 0 0 0 0 0 0 0 0 0 0 0
3.52205 1.81924e-09 1.41512e-09 4.0412e-10 0.222137 0.106573 0 0 0 0 0 0 0 0 0 0 0 0 0 0 0 0 0 0 0 0 0 0 0 0 0 0 0 0 0 0 0 0 0 0 0 0 0 0 0 0 0 0
3.70284 1.63198e-09 1.30072e-09 3.31267e-10 0.202984 0.0961021 0 0 0 0 0 0 0 0 0 0 0 0 0 0 0 0 0 0 0 0 0 0 0 0 0 0 0 0 0 0 0 0 0 0 0 0 0 0 0 0 0 0
3.89291 1.5262e-09 1.25357e-09 2.72629e-10 0.178632 0.0866791 0 0 0 0 0 0 0 0 0 0 0 0 0 0 0 0 0 0 0 0 0 0 0 0 0 0 0 0 0 0 0 0 0 0 0 0 0 0 0 0 0 0
4.09273 1.43824e-09 1.21399e-09 2.24253e-10 0.155922 0.0781769 0 0 0 0 0 0 0 0 0 0 0 0 0 0 0 0 0 0 0 0 0 0 0 0 0 0 0 0 0 0 0 0 0 0 0 0 0 0 0 0 0 0
4.30281 1.36614e-09 1.18178e-09 1.84361e-10 0.13495 0.0704988 0 0 0 0 0 0 0 0 0 0 0 0 0 0 0 0 0 0 0 0 0 0 0 0 0 0 0 0 0 0 0 0 0 0 0 0 0 0 0 0 0 0
4.52368 1.30866e-09 1.15705e-09 1.51611e-10 0.115852 0.0635663 0 0 0 0 0 0 0 0 0 0 0 0 0 0 0 0 0 0 0 0 0 0 0 0 0 0 0 0 0 0 0 0 0 0 0 0 0 0 0 0 0 0
4.75588 1.26297e-09 1.13815e-09 1.24822e-10 0.0988318 0.0572852 0 0 0 0 0 0 0 0 0 0 0 0 0 0 0 0 0 0 0 0 0 0 0 0 0 0 0 0 0 0 0 0 0 0 0 0 0 0 0 0 0 0
5 1.22473e-09 1.12177e-09 1.02959e-10 0.0840672 0.0515776 0 0 0 0 0 0 0 0 0 0 0 0 0 0 0 0 0 0 0 0 0 0 0 0 0 0 0 0 0 0 0 0 0 0 0 0 0 0 0 0 0 0
5.25665 1.19005e-09 1.10506e-09 8.49931e-11 0.0714198 0.0463912 0 0 0 0 0 0 0 0 0 0 0 0 0 0 0 0 0 0 0 0 0 0 0 0 0 0 0 0 0 0 0 0 0 0 0 0 0 0 0 0 0 0
5.52648 1.15813e-09 1.08799e-09 7.01467e-11 0.0605687 0.0416945 0 0 0 0 0 0 0 0 0 0 0 0 0 0 0 0 0 0 0 0 0 0 0 0 0 0 0 0 0 0 0 0 0 0 0 0 0 0 0 0 0 0
5.81015 1.12753e-09 1.06971e-09 5.78155e-11 0.0512763 0.0374108 0 0 0 0 0 0 0 0 0 0 0 0 0 0 0 0 0 0 0 0 0 0 0 0 0 0 0 0 0 0 0 0 0 0 0 0 0 0 0 0 0 0
6.10839 1.09895e-09 1.05141e-09 4.75435e-11 0.0432627 0.0335134 0 0 0 0 0 0 0 0 0 0 0 0 0 0 0 0 0 0 0 0 0 0 0 0 0 0 0 0 0 0 0 0 0 0 1.4013e-45 0 2.8026e-45 0 7.00649e-45 0 1.82169e-44 0
6.42193 1.07142e-09 1.03247e-09 3.89455e-11 0.0363496 0.0299534 0 0 0 0 0 0 0 0 0 0 0 0 0 0 0 0 0 0 0 0 0 0 0 0 0 0 1.4013e-45 0 5.60519e-45 0 1.82169e-44 0 5.60519e-44 0 1.59748e-43 0 4.21791e-43 0 1.06499e-42 0 2.51393e-42 0
6.75157 1.04848e-09 1.01684e-09 3.16383e-11 0.0301755 0.0266697 0 0 0 0 0 0 0 0 0 0 0 0 0 0 0 0 0 0 0 0 1.4013e-45 0 1.12104e-44 0 5.32493e-44 0 2.11596e-43 0 7.45491e-43 0 2.41023e-42 0 7.0163e-42 0 1.89596e-41 0 4.7745e-41 0 1.15268e-40 0 2.60808e-40 0
7.09813 1.01893e-09 9.93242e-10 2.56918e-11 0.0252144 0.0235782 0 0 0 0 0 0 0 0 0 0 0 0 0 0 0 0 5.60519e-45 0 5.04467e-44 0 2.99878e-43 0 1.51901e-42 0 6.53846e-42 0 2.42411e-41 0 8.02748e-41 0 2.45318e-40 0 6.77731e-40 0 1.7446e-39 0 4.19954e-39 0 9.7117e-39 0 2.11151e-38 0
7.46248 9.92795e-10 9.72464e-10 2.03313e-11 0.0204789 0.0205768 0 0 0 0 0 0 0 0 0 0 0 0 5.60519e-45 0 8.54792e-44 0 8.36575e-43 0 6.05921e-42 0 3.34448e-41 0 1.56316e-40 0 6.2672e-40 0 2.17974e-39 0 6.80845e-39 0 1.97021e-38 0 5.17953e-38 0 1.27315e-37 0 2.93602e-37 0 6.51743e-37 0 1.36429e-36 0
7.84553 9.65907e-10 9.50559e-10 1.53478e-11 0.0158895 0.0177256 0 0 0 0 0 0 0 0 0 0 3.36312e-44 0 7.76319e-43 0 9.97584e-42 0 8.73541e-41 0 5.74408e-40 0 2.91677e-39 0 1.26437e-38 0 4.73697e-38 0 1.55025e-37 0 4.58032e-37 0 1.25843e-36 0 3.15582e-36 0 7.42387e-36 0 1.64359e-35 0 3.50915e-35 0 7.08544e-35 0
8.24824 1.05865e-09 1.04742e-09 1.12309e-11 0.0106087 0.0152941 0 0 0 0 0 0 0 0 1.06499e-43 0 4.63129e-42 0 9.04706e-41 0 1.02658e-39 0 8.08605e-39 0 4.85e-38 0 2.27493e-37 0 9.17999e-37 0 3.22449e-36 0 9.95916e-36 0 2.7909e-35 0 7.29873e-35 0 1.74999e-34 0 3.94835e-34 0 8.40865e-34 0 1.73002e-33 0 3.37534e-33 0
8.67162 1.27074e-09 1.26104e-09 9.70215e-12 0.00763503 0.0133332 0 0 0 0 0 0 1.16308e-43 0 1.47529e-41 0 5.36643e-40 0 9.06642e-39 0 9.13733e-38 0 6.50728e-37 0 3.57618e-36 0 1.55552e-35 0 5.86363e-35 0 1.93707e-34 0 5.66234e-34 0 1.50893e-33 0 3.76518e-33 0 8.65032e-33 0 1.87568e-32 0 3.84981e-32 0 7.64657e-32 0 1.44398e-31 0
9.11674 1.7313e-09 1.71978e-09 1.15175e-11 0.00665251 0.0113847 0 0 0 0 1.82169e-44 0 1.81847e-41 0 1.82401e-39 0 5.56708e-38 0 8.19284e-37 0 7.37613e-36 0 4.7729e-35 0 2.41363e-34 0 9.77134e-34 0 3.45231e-33 0 1.07585e-32 0 2.98439e-32 0 7.58132e-32 0 1.80915e-31 0 3.99101e-31 0 8.33293e-31 0 1.65132e-30 0 3.17182e-30 0 5.80661e-30 0
9.5847 2.12319e-09 2.10709e-09 1.60993e-11 0.00758262 0.0101343 0 0 0 0 2.9161e-42 0 2.00517e-39 0 1.60609e-37 0 4.14844e-36 0 5.35395e-35 0 4.32983e-34 0 2.55759e-33 0 1.19496e-32 0 4.51841e-32 0 1.50099e-31 0 4.42505e-31 0 1.16785e-30 0 2.83471e-30 0 6.4833e-30 0 1.37603e-29 0 2.77162e-29 0 5.31209e-29 0 9.88329e-29 0 1.75668e-28 0
10.0767 2.07971e-09 2.06179e-09 1.79184e-11 0.00861582 0.00956533 0 0 2.8026e-45 0 2.80208e-40 0 1.40034e-37 0 9.05543e-36 0 1.99563e-34 0 2.27319e-33 0 1.66001e-32 0 8.99103e-32 0 3.89621e-31 0 1.38062e-30 0 4.32523e-30 0 1.20955e-29 0 3.04451e-29 0 7.07676e-29 0 1.55446e-28 0 3.1802e-28 0 6.19031e-28 0 1.14934e-27 0 2.07454e-27 0 3.58523e-27 0
10.5939 1.78296e-09 1.76694e-09 1.60145e-11 0.00898197 0.00935607 0 0 2.62043e-43 0 1.86182e-38 0 6.86954e-36 0 3.62409e-34 0 6.86738e-33 0 6.94643e-32 0 4.60339e-31 0 2.29591e-30 0 9.2618e-30 0 3.08532e-29 0 9.14161e-29 0 2.43126e-28 0 5.84994e-28 0 1.30492e-27 0 2.75831e-27 0 5.4493e-27 0 1.02678e-26 0 1.84966e-26 0 3.24371e-26 0 5.45805e-26 0
11.1377 1.49376e-09 1.48026e-09 1.35013e-11 0.00903846 0.00956518 0 0 2.34928e-41 0 9.65993e-37 0 2.67075e-34 0 1.16096e-32 0 1.90559e-31 0 1.72161e-30 0 1.04028e-29 0 4.79683e-29 0 1.80767e-28 0 5.67819e-28 0 1.59552e-27 0 4.04547e-27 0 9.32548e-27 0 2.00029e-26 0 4.07644e-26 0 7.79006e-26 0 1.42312e-25 0 2.49103e-25 0 4.25028e-25 0 6.97235e-25 0
11.7094 1.19836e-09 1.1878e-09 1.05604e-11 0.00881235 0.00963033 1.82169e-44 0 1.584e-39 0 3.8771e-35 0 8.14619e-33 0 2.94547e-31 0 4.21733e-30 0 3.42193e-29 0 1.89385e-28 0 8.10474e-28 0 2.86269e-27 0 8.50343e-27 0 2.27184e-26 0 5.5045e-26 0 1.21818e-25 0 2.51739e-25 0 4.955e-25 0 9.17427e-25 0 1.62741e-24 0 2.7718e-24 0 4.60756e-24 0 7.37799e-24 0
12.3105 9.58268e-10 9.50412e-10 7.85594e-12 0.00819806 0.00960056 1.67035e-42 0 8.47348e-38 0 1.2663e-33 0 2.04924e-31 0 6.21893e-30 0 7.81923e-29 0 5.72803e-28 0 2.91608e-27 0 1.16243e-26 0 3.8605e-26 0 1.08737e-25 0 2.76901e-25 0 6.4254e-25 0 1.36789e-24 0 2.72834e-24 0 5.19556e-24 0 9.33465e-24 0 1.61016e-23 0 2.67204e-23 0 4.33288e-23 0 6.78048e-23 0
12.9424 8.64026e-10 8.58331e-10 5.69446e-12 0.00659061 0.00920536 1.37736e-40 0 4.11649e-36 0 3.84758e-32 0 4.85723e-30 0 1.24781e-28 0 1.38649e-27 0 9.21579e-27 0 4.33329e-26 0 1.61459e-25 0 5.05696e-25 0 1.35415e-24 0 3.29453e-24 0 7.33701e-24 0 1.50538e-23 0 2.90306e-23 0 5.35713e-23 0 9.35349e-23 0 1.57103e-22 0 2.54342e-22 0 4.02812e-22 0 6.16724e-22 0
