# 3.3497e-06 1 79 : grain size, compostion index, size index
# Heating and cooling timescale: 6.16316 93828.3
# Ratio of heating to cooling to determine stochastic cutoff: 100
# Equilibrium emission is recorded even for those grains in the stochastic regime.
# Emission spectrum was computed for: 
# Type: IRSF
# Scales: 0.25 0.5 1 1.5 2 2.5 3 3.5 4 4.5 5 5.5 6 6.5 7 7.5 8 8.5 9 9.5 10
# StochasticallyHeated: 0 0 0 0 0 0 0 0 0 0 0 0 0 0 0 0 0 0 0 0 0
# Temperature: -1
# Wavelength  CExt  CAbs  CSca  Albedo G EqEm1 StEm1 EqEm2 StEm2 EqEm3 StEm3 EqEm4 StEm4 EqEm5 StEm5 EqEm6 StEm6 EqEm7 StEm7 EqEm8 StEm8 EqEm9 StEm9 EqEm10 StEm10 EqEm11 StEm11 EqEm12 StEm12 EqEm13 StEm13 EqEm14 StEm14 EqEm15 StEm15 EqEm16 StEm16 EqEm17 StEm17 EqEm18 StEm18 EqEm19 StEm19 EqEm20 StEm20 EqEm21 StEm21
0.05 2.2126e-11 1.35593e-11 8.56675e-12 0.38718 0.163068 0 0 0 0 0 0 0 0 0 0 0 0 0 0 0 0 0 0 0 0 0 0 0 0 0 0 0 0 0 0 0 0 0 0 0 0 0 0 0 0 0 0
0.0525665 2.44558e-11 1.4987e-11 9.46879e-12 0.38718 0.180238 0 0 0 0 0 0 0 0 0 0 0 0 0 0 0 0 0 0 0 0 0 0 0 0 0 0 0 0 0 0 0 0 0 0 0 0 0 0 0 0 0 0
0.0552647 2.70308e-11 1.6565e-11 1.04658e-11 0.38718 0.199216 0 0 0 0 0 0 0 0 0 0 0 0 0 0 0 0 0 0 0 0 0 0 0 0 0 0 0 0 0 0 0 0 0 0 0 0 0 0 0 0 0 0
0.0581015 2.98771e-11 1.83092e-11 1.15678e-11 0.38718 0.220193 0 0 0 0 0 0 0 0 0 0 0 0 0 0 0 0 0 0 0 0 0 0 0 0 0 0 0 0 0 0 0 0 0 0 0 0 0 0 0 0 0 0
0.0610839 3.3023e-11 2.02371e-11 1.27858e-11 0.38718 0.243378 0 0 0 0 0 0 0 0 0 0 0 0 0 0 0 0 0 0 0 0 0 0 0 0 0 0 0 0 0 0 0 0 0 0 0 0 0 0 0 0 0 0
0.0642193 3.65001e-11 2.2368e-11 1.41321e-11 0.38718 0.269004 0 0 0 0 0 0 0 0 0 0 0 0 0 0 0 0 0 0 0 0 0 0 0 0 0 0 0 0 0 0 0 0 0 0 0 0 0 0 0 0 0 0
0.0675157 4.03434e-11 2.47232e-11 1.56202e-11 0.38718 0.297329 0 0 0 0 0 0 0 0 0 0 0 0 0 0 0 0 0 0 0 0 0 0 0 0 0 0 0 0 0 0 0 0 0 0 0 0 0 0 0 0 0 0
0.0709813 4.45914e-11 2.73265e-11 1.72649e-11 0.38718 0.328636 0 0 0 0 0 0 0 0 0 0 0 0 0 0 0 0 0 0 0 0 0 0 0 0 0 0 0 0 0 0 0 0 0 0 0 0 0 0 0 0 0 0
0.0746248 4.92866e-11 3.02038e-11 1.90828e-11 0.38718 0.36324 0 0 0 0 0 0 0 0 0 0 0 0 0 0 0 0 0 0 0 0 0 0 0 0 0 0 0 0 0 0 0 0 0 0 0 0 0 0 0 0 0 0
0.0784553 5.44763e-11 3.33841e-11 2.10921e-11 0.38718 0.401488 0 0 0 0 0 0 0 0 0 0 0 0 0 0 0 0 0 0 0 0 0 0 0 0 0 0 0 0 0 0 0 0 0 0 0 0 0 0 0 0 0 0
0.0824824 6.02123e-11 3.68993e-11 2.3313e-11 0.38718 0.443762 0 0 0 0 0 0 0 0 0 0 0 0 0 0 0 0 0 0 0 0 0 0 0 0 0 0 0 0 0 0 0 0 0 0 0 0 0 0 0 0 0 0
0.0867162 6.65524e-11 4.07847e-11 2.57678e-11 0.38718 0.490489 0 0 0 0 0 0 0 0 0 0 0 0 0 0 0 0 0 0 0 0 0 0 0 0 0 0 0 0 0 0 0 0 0 0 0 0 0 0 0 0 0 0
0.0911674 7.35601e-11 4.50791e-11 2.8481e-11 0.38718 0.542135 0 0 0 0 0 0 0 0 0 0 0 0 0 0 0 0 0 0 0 0 0 0 0 0 0 0 0 0 0 0 0 0 0 0 0 0 0 0 0 0 0 0
0.095847 8.13056e-11 4.98257e-11 3.14799e-11 0.38718 0.599219 0 0 0 0 0 0 0 0 0 0 0 0 0 0 0 0 0 0 0 0 0 0 0 0 0 0 0 0 0 0 0 0 0 0 0 0 0 0 0 0 0 0
0.100767 8.87032e-11 5.43396e-11 3.43636e-11 0.3874 0.650231 0 0 0 0 0 0 0 0 0 0 0 0 0 0 0 0 0 0 0 0 0 0 0 0 0 0 0 0 0 0 0 0 0 0 0 0 0 0 0 0 0 0
0.105939 9.00836e-11 5.49568e-11 3.51268e-11 0.389936 0.63894 0 0 0 0 0 0 0 0 0 0 0 0 0 0 0 0 0 0 0 0 0 0 0 0 0 0 0 0 0 0 0 0 0 0 0 0 0 0 0 0 0 0
0.111377 9.13309e-11 5.53358e-11 3.59951e-11 0.394117 0.624712 0 0 0 0 0 0 0 0 0 0 0 0 0 0 0 0 0 0 0 0 0 0 0 0 0 0 0 0 0 0 0 0 0 0 0 0 0 0 0 0 0 0
0.117094 9.25359e-11 5.5426e-11 3.71098e-11 0.401032 0.603907 0 0 0 0 0 0 0 0 0 0 0 0 0 0 0 0 0 0 0 0 0 0 0 0 0 0 0 0 0 0 0 0 0 0 0 0 0 0 0 0 0 0
0.123105 9.3584e-11 5.50505e-11 3.85336e-11 0.411754 0.577322 0 0 0 0 0 0 0 0 0 0 0 0 0 0 0 0 0 0 0 0 0 0 0 0 0 0 0 0 0 0 0 0 0 0 0 0 0 0 0 0 0 0
0.129424 9.4202e-11 5.4171e-11 4.00311e-11 0.424949 0.547331 0 0 0 0 0 0 0 0 0 0 0 0 0 0 0 0 0 0 0 0 0 0 0 0 0 0 0 0 0 0 0 0 0 0 0 0 0 0 0 0 0 0
0.136067 9.56397e-11 5.31155e-11 4.25243e-11 0.44463 0.516935 0 0 0 0 0 0 0 0 0 0 0 0 0 0 0 0 0 0 0 0 0 0 0 0 0 0 0 0 0 0 0 0 0 0 0 0 0 0 0 0 0 0
0.143051 9.69543e-11 5.09001e-11 4.60542e-11 0.47501 0.488184 0 0 0 0 0 0 0 0 0 0 0 0 0 0 0 0 0 0 0 0 0 0 0 0 0 0 0 0 0 0 0 0 0 0 0 0 0 0 0 0 0 0
0.150394 9.47154e-11 4.58131e-11 4.89023e-11 0.516308 0.473937 0 0 0 0 0 0 0 0 0 0 0 0 0 0 0 0 0 0 0 0 0 0 0 0 0 0 0 0 0 0 0 0 0 0 0 0 0 0 0 0 0 0
0.158114 8.29859e-11 3.57549e-11 4.7231e-11 0.569145 0.487309 0 0 0 0 0 0 0 0 0 0 0 0 0 0 0 0 0 0 0 0 0 0 0 0 0 0 0 0 0 0 0 0 0 0 0 0 0 0 0 0 0 0
0.16623 6.37196e-11 2.35499e-11 4.01697e-11 0.630414 0.495752 0 0 0 0 0 0 0 0 0 0 0 0 0 0 0 0 0 0 0 0 0 0 0 0 0 0 0 0 0 0 0 0 0 0 0 0 0 0 0 0 0 0
0.174762 4.74541e-11 1.54706e-11 3.19835e-11 0.673989 0.459473 0 0 0 0 0 0 0 0 0 0 0 0 0 0 0 0 0 0 0 0 0 0 0 0 0 0 0 0 0 0 0 0 0 0 0 0 0 0 0 0 0 0
0.183733 3.52161e-11 1.01472e-11 2.50689e-11 0.71186 0.394294 0 0 0 0 0 0 0 0 0 0 0 0 0 0 0 0 0 0 0 0 0 0 0 0 0 0 0 0 0 0 0 0 0 0 0 0 0 0 0 0 0 0
0.193164 2.66605e-11 7.14766e-12 1.95128e-11 0.731901 0.330993 0 0 0 0 0 0 0 0 0 0 0 0 0 0 0 0 0 0 0 0 0 0 0 0 0 0 0 0 0 0 0 0 0 0 0 0 0 0 0 0 0 0
0.203079 2.1333e-11 6.2035e-12 1.51295e-11 0.709207 0.280127 0 0 0 0 0 0 0 0 0 0 0 0 0 0 0 0 0 0 0 0 0 0 0 0 0 0 0 0 0 0 0 0 0 0 0 0 0 0 0 0 0 0
0.213503 1.75413e-11 5.66016e-12 1.18811e-11 0.677323 0.240412 0 0 0 0 0 0 0 0 0 0 0 0 0 0 0 0 0 0 0 0 0 0 0 0 0 0 0 0 0 0 0 0 0 0 0 0 0 0 0 0 0 0
0.224463 1.46292e-11 5.14991e-12 9.47928e-12 0.64797 0.209286 0 0 0 0 0 0 0 0 0 0 0 0 0 0 0 0 0 0 0 0 0 0 0 0 0 0 0 0 0 0 0 0 0 0 0 0 0 0 0 0 0 0
0.235984 1.23347e-11 4.75257e-12 7.58209e-12 0.614698 0.18434 0 0 0 0 0 0 0 0 0 0 0 0 0 0 0 0 0 0 0 0 0 0 0 0 0 0 0 0 0 0 0 0 0 0 0 0 0 0 0 0 0 0
0.248097 1.04924e-11 4.41338e-12 6.07898e-12 0.579372 0.163649 0 0 0 0 0 0 0 0 0 0 0 0 0 0 0 0 0 0 0 0 0 0 0 0 0 0 0 0 0 0 0 0 0 0 0 0 0 0 0 0 0 0
0.260832 9.02132e-12 4.12701e-12 4.89431e-12 0.542527 0.145979 0 0 0 0 0 0 0 0 0 0 0 0 0 0 0 0 0 0 0 0 0 0 0 0 0 0 0 0 0 0 0 0 0 0 0 0 0 0 0 0 0 0
0.274221 7.81169e-12 3.86317e-12 3.94852e-12 0.505463 0.130653 0 0 0 0 0 0 0 0 0 0 0 0 0 0 0 0 0 0 0 0 0 0 0 0 0 0 0 0 0 0 0 0 0 0 0 0 0 0 0 0 0 0
0.288297 6.80982e-12 3.61732e-12 3.1925e-12 0.468808 0.117269 0 0 0 0 0 0 0 0 0 0 0 0 0 0 0 0 0 0 0 0 0 0 0 0 0 0 0 0 0 0 0 0 0 0 0 0 0 0 0 0 0 0
0.303095 5.97264e-12 3.38812e-12 2.58452e-12 0.432726 0.105472 0 0 0 0 0 0 0 0 0 0 0 0 0 0 0 0 0 0 0 0 0 0 0 0 0 0 0 0 0 0 0 0 0 0 0 0 0 0 0 0 0 0
0.318653 5.27032e-12 3.17452e-12 2.09581e-12 0.397662 0.0949938 0 0 0 0 0 0 0 0 0 0 0 0 0 0 0 0 0 0 0 0 0 0 0 0 0 0 0 0 0 0 0 0 0 0 0 0 0 0 0 0 0 0
0.335009 4.67749e-12 2.97568e-12 1.70181e-12 0.36383 0.0856538 0 0 0 0 0 0 0 0 0 0 0 0 0 0 0 0 0 0 0 0 0 0 0 0 0 0 0 0 0 0 0 0 0 0 0 0 0 0 0 0 0 0
0.352205 4.17438e-12 2.79106e-12 1.38332e-12 0.331383 0.0773044 0 0 0 0 0 0 0 0 0 0 0 0 0 0 0 0 0 0 0 0 0 0 0 0 0 0 0 0 0 0 0 0 0 0 0 0 0 0 0 0 0 0
0.370284 3.7455e-12 2.6193e-12 1.1262e-12 0.30068 0.0698193 0 0 0 0 0 0 0 0 0 0 0 0 0 0 0 0 0 0 0 0 0 0 0 0 0 0 0 0 0 0 0 0 0 0 0 0 0 0 0 0 0 0
0.389291 3.37709e-12 2.45984e-12 9.17256e-13 0.271611 0.0630946 0 0 0 0 0 0 0 0 0 0 0 0 0 0 0 0 0 0 0 0 0 0 0 0 0 0 0 0 0 0 0 0 0 0 0 0 0 0 0 0 0 0
0.409273 3.05937e-12 2.31139e-12 7.4798e-13 0.244488 0.0570394 0 0 0 0 0 0 0 0 0 0 0 0 0 0 0 0 0 0 0 0 0 0 0 0 0 0 0 0 0 0 0 0 0 0 0 0 0 0 0 0 0 0
0.430281 2.78389e-12 2.17363e-12 6.10262e-13 0.219212 0.0515778 0 0 0 0 0 0 0 0 0 0 0 0 0 0 0 0 0 0 0 0 0 0 0 0 0 0 0 0 0 0 0 0 0 0 0 0 0 0 0 0 0 0
0.452368 2.54366e-12 2.04544e-12 4.98219e-13 0.195867 0.0466627 0 0 0 0 0 0 0 0 0 0 0 0 0 0 0 0 0 0 0 0 0 0 0 0 0 0 0 0 0 0 0 0 0 0 0 0 0 0 0 0 0 0
0.475588 2.33279e-12 1.92585e-12 4.06934e-13 0.174441 0.0422192 0 0 0 0 0 0 0 0 0 0 0 0 0 0 0 0 0 0 0 0 0 0 0 0 0 0 0 0 0 0 0 0 0 0 0 0 0 0 0 0 0 0
0.5 2.14715e-12 1.81459e-12 3.32558e-13 0.154884 0.0382012 0 0 0 0 0 0 0 0 0 0 0 0 0 0 0 0 0 0 0 0 0 0 0 0 0 0 0 0 0 0 0 0 0 0 0 0 0 0 0 0 0 0
0.525665 1.98267e-12 1.71071e-12 2.71966e-13 0.137172 0.0345679 0 0 0 0 0 0 0 0 0 0 0 0 0 0 0 0 0 0 0 0 0 0 0 0 0 0 0 0 0 0 0 0 0 0 0 0 0 0 0 0 0 0
0.552648 1.83605e-12 1.61351e-12 2.22538e-13 0.121205 0.0312844 0 0 0 0 0 0 0 0 0 0 0 0 0 0 0 0 0 0 0 0 0 0 0 0 0 0 0 0 0 0 0 0 0 0 0 0 0 0 0 0 0 0
0.581015 1.70506e-12 1.52303e-12 1.82032e-13 0.10676 0.0283196 0 0 0 0 0 0 0 0 0 0 0 0 0 0 0 0 0 0 0 0 0 0 0 0 0 0 0 0 0 0 0 0 0 0 0 0 0 0 0 0 0 0
0.610839 1.58736e-12 1.43844e-12 1.48929e-13 0.0938214 0.025633 0 0 0 0 0 0 0 0 0 0 0 0 0 0 0 0 0 0 0 0 0 0 0 0 0 0 0 0 0 0 0 0 0 0 0 0 0 0 0 0 0 0
0.642193 1.48052e-12 1.3586e-12 1.21918e-13 0.0823482 0.0231987 0 0 0 0 0 0 0 0 0 0 0 0 0 0 0 0 0 0 0 0 0 0 0 0 0 0 0 0 0 0 0 0 0 0 0 0 0 0 0 0 0 0
0.675157 1.38401e-12 1.28419e-12 9.98129e-14 0.0721187 0.0210001 0 0 0 0 0 0 0 0 0 0 0 0 0 0 0 0 0 0 0 0 0 0 0 0 0 0 0 0 0 0 0 0 0 0 0 0 0 0 0 0 0 0
0.709813 1.2964e-12 1.2147e-12 8.17007e-14 0.0630213 0.0190099 0 0 0 0 0 0 0 0 0 0 0 0 0 0 0 0 0 0 0 0 0 0 0 0 0 0 0 0 0 0 0 0 0 0 0 0 0 0 0 0 0 0
0.746248 1.2166e-12 1.14971e-12 6.68916e-14 0.0549823 0.0172064 0 0 0 0 0 0 0 0 0 0 0 0 0 0 0 0 0 0 0 0 0 0 0 0 0 0 0 0 0 0 0 0 0 0 0 0 0 0 0 0 0 0
0.784553 1.14347e-12 1.08872e-12 5.47519e-14 0.0478821 0.0155723 0 0 0 0 0 0 0 0 0 0 0 0 0 0 0 0 0 0 0 0 0 0 0 0 0 0 0 0 0 0 0 0 0 0 0 0 0 0 0 0 0 0
0.824824 1.07626e-12 1.03144e-12 4.48218e-14 0.0416459 0.0140962 0 0 0 0 0 0 0 0 0 0 0 0 0 0 0 0 0 0 0 0 0 0 0 0 0 0 0 0 0 0 0 0 0 0 0 0 0 0 0 0 0 0
0.867162 1.01396e-12 9.77274e-13 3.66902e-14 0.0361849 0.0127601 0 0 0 0 0 0 0 0 0 0 0 0 0 0 0 0 0 0 0 0 0 0 0 0 0 0 0 0 0 0 0 0 0 0 0 0 0 0 0 0 0 0
0.911674 9.57034e-13 9.27013e-13 3.00207e-14 0.0313685 0.0115496 0 0 0 0 0 0 0 0 0 0 0 0 0 0 0 0 0 0 0 0 0 0 0 0 0 0 0 0 0 0 0 0 0 0 0 0 0 0 0 0 0 0
0.95847 9.04717e-13 8.80172e-13 2.45448e-14 0.0271299 0.0104533 0 0 0 0 0 0 0 0 0 0 0 0 0 0 0 0 0 0 0 0 0 0 0 0 0 0 0 0 0 0 0 0 0 0 0 0 0 0 0 0 0 0
1.00767 8.56078e-13 8.36061e-13 2.00176e-14 0.0233829 0.00946151 0 0 0 0 0 0 0 0 0 0 0 0 0 0 0 0 0 0 0 0 0 0 0 0 0 0 0 0 0 0 0 0 0 0 0 0 0 0 0 0 0 0
1.05939 8.28553e-13 8.12223e-13 1.63298e-14 0.0197088 0.00856399 0 0 0 0 0 0 0 0 0 0 0 0 0 0 0 0 0 0 0 0 0 0 0 0 0 0 0 0 0 0 0 0 0 0 0 0 0 0 0 0 0 0
1.11377 8.05565e-13 7.92224e-13 1.33412e-14 0.0165613 0.00775082 0 0 0 0 0 0 0 0 0 0 0 0 0 0 0 0 0 0 0 0 0 0 0 0 0 0 0 0 0 0 0 0 0 0 0 0 0 0 0 0 0 0
1.17094 7.86789e-13 7.75866e-13 1.09226e-14 0.0138825 0.0070141 0 0 0 0 0 0 0 0 0 0 0 0 0 0 0 0 0 0 0 0 0 0 0 0 0 0 0 0 0 0 0 0 0 0 0 0 0 0 0 0 0 0
1.23105 7.70315e-13 7.61375e-13 8.93991e-15 0.0116055 0.00634734 0 0 0 0 0 0 0 0 0 0 0 0 0 0 0 0 0 0 0 0 0 0 0 0 0 0 0 0 0 0 0 0 0 0 0 0 0 0 0 0 0 0
1.29424 7.53204e-13 7.45883e-13 7.3209e-15 0.00971967 0.00574402 0 0 0 0 0 0 0 0 0 0 0 0 0 0 0 0 0 0 0 0 0 0 0 0 0 0 0 0 0 0 0 0 0 0 0 0 0 0 0 0 0 0
1.36067 7.34859e-13 7.28838e-13 6.02107e-15 0.00819351 0.00519833 0 0 0 0 0 0 0 0 0 0 0 0 0 0 0 0 0 0 0 0 0 0 0 0 0 0 0 0 0 0 0 0 0 0 0 0 0 0 0 0 0 0
1.43051 7.15664e-13 7.10766e-13 4.89787e-15 0.00684382 0.00470338 0 0 0 0 0 0 0 0 0 0 0 0 0 0 0 0 0 0 0 0 0 0 0 0 0 0 0 0 0 0 0 0 0 0 0 0 0 0 0 0 0 0
1.50394 6.96334e-13 6.92332e-13 4.00266e-15 0.0057482 0.00425563 0 0 0 0 0 0 0 0 0 0 0 0 0 0 0 0 0 0 0 0 0 0 0 0 0 0 0 0 0 0 0 0 0 0 0 0 0 0 0 0 0 0
1.58114 6.77873e-13 6.74598e-13 3.27474e-15 0.0048309 0.00385097 0 0 0 0 0 0 0 0 0 0 0 0 0 0 0 0 0 0 0 0 0 0 0 0 0 0 0 0 0 0 0 0 0 0 0 0 0 0 0 0 0 0
1.6623 6.61141e-13 6.58462e-13 2.67896e-15 0.00405202 0.00348406 0 0 0 0 0 0 0 0 0 0 0 0 0 0 0 0 0 0 0 0 0 0 0 0 0 0 0 0 0 0 0 0 0 0 0 0 0 0 0 0 0 0
1.74763 6.46967e-13 6.44776e-13 2.19135e-15 0.00338712 0.00315184 0 0 0 0 0 0 0 0 0 0 0 0 0 0 0 0 0 0 0 0 0 0 0 0 0 0 0 0 0 0 0 0 0 0 0 0 0 0 0 0 0 0
1.83733 6.36256e-13 6.34464e-13 1.79185e-15 0.00281623 0.0028509 0 0 0 0 0 0 0 0 0 0 0 0 0 0 0 0 0 0 0 0 0 0 0 0 0 0 0 0 0 0 0 0 0 0 0 0 0 0 0 0 0 0
1.93164 6.2943e-13 6.27965e-13 1.46455e-15 0.00232679 0.00257897 0 0 0 0 0 0 0 0 0 0 0 0 0 0 0 0 0 0 0 0 0 0 0 0 0 0 0 0 0 0 0 0 0 0 0 0 0 0 0 0 0 0
2.03079 6.26425e-13 6.25227e-13 1.19781e-15 0.00191213 0.00233291 0 0 0 0 0 0 0 0 0 0 0 0 0 0 0 0 0 0 0 0 0 0 0 0 0 0 0 0 0 0 0 0 0 0 0 0 0 0 0 0 0 0
2.13503 6.26335e-13 6.25354e-13 9.80537e-16 0.00156552 0.00210989 0 0 0 0 0 0 0 0 0 0 0 0 0 0 0 0 0 0 0 0 0 0 0 0 0 0 0 0 0 0 0 0 0 0 0 0 0 0 0 0 0 0
2.24463 6.27076e-13 6.26273e-13 8.03438e-16 0.00128124 0.00190786 0 0 0 0 0 0 0 0 0 0 0 0 0 0 0 0 0 0 0 0 0 0 0 0 0 0 0 0 0 0 0 0 0 0 0 0 0 0 0 0 0 0
2.35984 6.28035e-13 6.27376e-13 6.58682e-16 0.0010488 0.00172534 0 0 0 0 0 0 0 0 0 0 0 0 0 0 0 0 0 0 0 0 0 0 0 0 0 0 0 0 0 0 0 0 0 0 0 0 0 0 0 0 0 0
2.48097 6.3004e-13 6.295e-13 5.40225e-16 0.000857446 0.00155993 0 0 0 0 0 0 0 0 0 0 0 0 0 0 0 0 0 0 0 0 0 0 0 0 0 0 0 0 0 0 0 0 0 0 0 0 0 0 0 0 0 0
2.60832 6.33177e-13 6.32733e-13 4.43337e-16 0.000700179 0.00141021 0 0 0 0 0 0 0 0 0 0 0 0 0 0 0 0 0 0 0 0 0 0 0 0 0 0 0 0 0 0 0 0 0 0 0 0 0 0 0 0 0 0
2.74221 6.38269e-13 6.37905e-13 3.64126e-16 0.00057049 0.00127472 0 0 0 0 0 0 0 0 0 0 0 0 0 0 0 0 0 0 0 0 0 0 0 0 0 0 0 0 0 0 0 0 0 0 0 0 0 0 0 0 0 0
2.88297 6.45399e-13 6.451e-13 2.99556e-16 0.00046414 0.001152 0 0 0 0 0 0 0 0 0 0 0 0 0 0 0 0 0 0 0 0 0 0 0 0 0 0 0 0 0 0 0 0 0 0 0 0 0 0 0 0 0 0
3.03095 6.54403e-13 6.54156e-13 2.47387e-16 0.000378035 0.00104103 0 0 0 0 0 0 0 0 0 0 0 0 0 0 0 0 0 0 0 0 0 0 0 0 0 0 0 0 0 0 0 0 0 0 0 0 0 0 0 0 0 0
3.18653 6.57336e-13 6.57131e-13 2.04799e-16 0.000311559 0.000940545 0 0 0 0 0 0 0 0 0 0 0 0 0 0 0 0 0 0 0 0 0 0 0 0 0 0 0 0 0 0 0 0 0 0 0 0 0 0 0 0 0 0
3.35009 6.73738e-13 6.7357e-13 1.67436e-16 0.000248519 0.000849527 0 0 0 0 0 0 0 0 0 0 0 0 0 0 0 0 0 0 0 0 0 0 0 0 0 0 0 0 0 0 0 0 0 0 0 0 0 0 0 0 0 0
3.52205 6.71223e-13 6.71077e-13 1.45692e-16 0.000217054 0.000767132 0 0 0 0 0 0 0 0 0 0 0 0 0 0 0 0 0 0 0 0 0 0 0 0 0 0 0 0 0 0 0 0 0 0 0 0 0 0 0 0 0 0
3.70284 6.26412e-13 6.26294e-13 1.18517e-16 0.000189199 0.000692608 0 0 0 0 0 0 0 0 0 0 0 0 0 0 0 0 0 0 0 0 0 0 0 0 0 0 0 0 0 0 0 0 0 0 0 0 0 0 0 0 0 0
3.89291 6.1354e-13 6.13443e-13 9.71105e-17 0.000158279 0.000625066 0 0 0 0 0 0 0 0 0 0 0 0 0 0 0 0 0 0 0 0 0 0 0 0 0 0 0 0 0 0 0 0 0 0 0 0 0 0 0 0 0 0
4.09273 6.03409e-13 6.0333e-13 7.96277e-17 0.000131963 0.000563812 0 0 0 0 0 0 0 0 0 0 0 0 0 0 0 0 0 0 0 0 0 0 0 0 0 0 0 0 0 0 0 0 0 0 0 0 0 0 0 0 0 0
4.30281 5.96061e-13 5.95996e-13 6.53203e-17 0.000109587 0.000508303 0 0 0 0 0 0 0 0 0 0 0 0 0 0 0 0 0 0 0 0 0 0 0 0 0 0 0 0 0 0 0 0 0 0 0 0 0 0 0 0 0 0
4.52368 5.91727e-13 5.91674e-13 5.36381e-17 9.06467e-05 0.000458069 0 0 0 0 0 0 0 0 0 0 0 0 0 0 0 0 0 0 0 0 0 0 0 0 0 0 0 0 0 0 0 0 0 0 0 0 0 0 0 0 0 0
4.75588 5.89614e-13 5.8957e-13 4.41218e-17 7.48316e-05 0.000412495 0 0 0 0 0 0 0 0 0 0 0 0 0 0 0 0 0 0 0 0 0 0 0 0 0 0 0 0 0 0 0 0 0 0 0 0 0 0 0 0 0 0
5 5.88088e-13 5.88052e-13 3.63657e-17 6.18372e-05 0.000371053 0 0 0 0 0 0 0 0 0 0 0 0 0 0 0 0 0 0 0 0 0 0 0 0 0 0 0 0 0 0 0 0 0 0 0 0 0 0 0 0 0 0
5.25665 5.85699e-13 5.85669e-13 3.00067e-17 5.12323e-05 0.000333393 0 0 0 0 0 0 0 0 0 0 0 0 0 0 0 0 0 0 0 0 0 0 0 0 0 0 0 0 0 0 0 0 0 0 0 0 0 0 0 0 0 0
5.52648 5.82531e-13 5.82506e-13 2.4759e-17 4.25025e-05 0.000299305 0 0 0 0 0 0 0 0 0 0 0 0 0 0 0 0 0 0 0 0 0 0 0 0 0 0 0 0 0 0 0 0 0 0 0 0 0 0 0 0 0 0
5.81015 5.78183e-13 5.78163e-13 2.04054e-17 3.52923e-05 0.000268233 0 0 0 0 0 0 0 0 0 0 0 0 0 0 0 0 0 0 0 0 0 0 0 0 0 0 0 0 0 0 0 0 1.4013e-45 0 4.2039e-45 0 9.80909e-45 0 2.52234e-44 0 5.74532e-44 0
6.10839 5.73292e-13 5.73275e-13 1.67824e-17 2.92737e-05 0.00023999 0 0 0 0 0 0 0 0 0 0 0 0 0 0 0 0 0 0 0 0 0 0 0 0 1.4013e-45 0 5.60519e-45 0 1.82169e-44 0 5.46506e-44 0 1.54143e-43 0 4.00771e-43 0 9.76705e-43 0 2.29533e-42 0 5.09512e-42 0
6.42193 5.67707e-13 5.67693e-13 1.37529e-17 2.42254e-05 0.000214223 0 0 0 0 0 0 0 0 0 0 0 0 0 0 0 0 0 0 1.4013e-45 0 8.40779e-45 0 3.64338e-44 0 1.48538e-43 0 5.15678e-43 0 1.66895e-42 0 4.80225e-42 0 1.29382e-41 0 3.20589e-41 0 7.48966e-41 0 1.68805e-40 0 3.60401e-40 0
6.75157 5.63672e-13 5.63661e-13 1.11819e-17 1.98376e-05 0.000190476 0 0 0 0 0 0 0 0 0 0 0 0 0 0 2.8026e-45 0 2.10195e-44 0 1.37327e-43 0 7.45491e-43 0 3.2398e-42 0 1.23132e-41 0 4.04261e-41 0 1.23383e-40 0 3.37307e-40 0 8.65798e-40 0 2.05231e-39 0 4.60008e-39 0 9.96459e-39 0 2.05011e-38 0
7.09813 5.54548e-13 5.54538e-13 9.08593e-18 1.63844e-05 0.000168115 0 0 0 0 0 0 0 0 0 0 1.4013e-45 0 1.96182e-44 0 2.28412e-43 0 1.8399e-42 0 1.1251e-41 0 5.60786e-41 0 2.26944e-40 0 8.08202e-40 0 2.50378e-39 0 7.23649e-39 0 1.88353e-38 0 4.61716e-38 0 1.0493e-37 0 2.26105e-37 0 4.71643e-37 0 9.36772e-37 0
7.46248 5.47149e-13 5.47142e-13 7.2009e-18 1.31608e-05 0.000146349 0 0 0 0 0 0 0 0 2.8026e-45 0 9.80909e-44 0 1.75302e-42 0 1.80193e-41 0 1.31181e-40 0 7.34248e-40 0 3.38372e-39 0 1.279e-38 0 4.28094e-38 0 1.25499e-37 0 3.44403e-37 0 8.55513e-37 0 2.00732e-36 0 4.38264e-36 0 9.09634e-36 0 1.83055e-35 0 3.51602e-35 0
7.84553 5.39462e-13 5.39456e-13 5.45034e-18 1.01033e-05 0.000125586 0 0 0 0 0 0 2.8026e-45 0 2.53635e-43 0 7.95377e-42 0 1.23595e-40 0 1.13375e-39 0 7.49108e-39 0 3.85475e-38 0 1.64873e-37 0 5.84027e-37 0 1.84282e-36 0 5.12599e-36 0 1.33906e-35 0 3.18175e-35 0 7.161e-35 0 1.50499e-34 0 3.01427e-34 0 5.8623e-34 0 1.09068e-33 0
8.24824 6.01279e-13 6.01275e-13 4.00993e-18 6.669e-06 0.000107947 0 0 0 0 0 0 2.63444e-43 0 2.19766e-41 0 5.81214e-40 0 7.89932e-39 0 6.50295e-38 0 3.91834e-37 0 1.86131e-36 0 7.41578e-36 0 2.46957e-35 0 7.36726e-35 0 1.94943e-34 0 4.85925e-34 0 1.10684e-33 0 2.39436e-33 0 4.85291e-33 0 9.39555e-33 0 1.7689e-32 0 3.19278e-32 0
8.67162 7.30261e-13 7.30258e-13 3.47695e-18 4.76125e-06 9.39456e-05 0 0 0 0 4.34403e-44 0 2.45928e-41 0 1.65369e-39 0 3.72716e-38 0 4.45966e-37 0 3.31225e-36 0 1.82824e-35 0 8.04837e-35 0 2.99734e-34 0 9.4122e-34 0 2.66195e-33 0 6.7169e-33 0 1.60127e-32 0 3.50367e-32 0 7.29909e-32 0 1.42923e-31 0 2.67924e-31 0 4.89077e-31 0 8.57672e-31 0
9.11674 1.00232e-12 1.00232e-12 4.13585e-18 4.12627e-06 8.0151e-05 0 0 0 0 5.06429e-42 0 2.07424e-39 0 1.1357e-37 0 2.19852e-36 0 2.33038e-35 0 1.56939e-34 0 7.96924e-34 0 3.26337e-33 0 1.13976e-32 0 3.38459e-32 0 9.09852e-32 0 2.19439e-31 0 5.01403e-31 0 1.05595e-30 0 2.1224e-30 0 4.02171e-30 0 7.31134e-30 0 1.29599e-29 0 2.21123e-29 0
9.5847 1.22186e-12 1.22186e-12 5.73669e-18 4.69503e-06 7.17259e-05 0 0 8.40779e-45 0 4.11138e-40 0 1.25534e-37 0 5.65312e-36 0 9.46948e-35 0 8.94462e-34 0 5.48814e-33 0 2.57429e-32 0 9.84041e-32 0 3.23328e-31 0 9.10449e-31 0 2.33213e-30 0 5.388e-30 0 1.18244e-29 0 2.40129e-29 0 4.6647e-29 0 8.56752e-29 0 1.51275e-28 0 2.60756e-28 0 4.3345e-28 0
10.0767 1.1828e-12 1.18279e-12 6.31165e-18 5.3362e-06 6.81056e-05 0 0 7.76319e-43 0 2.13289e-38 0 4.9252e-36 0 1.84171e-34 0 2.68841e-33 0 2.27571e-32 0 1.27795e-31 0 5.55869e-31 0 1.9902e-30 0 6.17023e-30 0 1.65182e-29 0 4.04124e-29 0 8.9626e-29 0 1.89287e-28 0 3.71332e-28 0 6.98333e-28 0 1.2451e-27 0 2.13826e-27 0 3.58906e-27 0 5.81983e-27 0
10.5939 1.00705e-12 1.00704e-12 5.60284e-18 5.56362e-06 6.6975e-05 1.4013e-45 0 4.74297e-41 0 7.91538e-37 0 1.40131e-34 0 4.39077e-33 0 5.62304e-32 0 4.28847e-31 0 2.21366e-30 0 8.96184e-30 0 3.01492e-29 0 8.84482e-29 0 2.25668e-28 0 5.28508e-28 0 1.12741e-27 0 2.2957e-27 0 4.35783e-27 0 7.94652e-27 0 1.37739e-26 0 2.30381e-26 0 3.77039e-26 0 5.97125e-26 0
11.1377 8.41358e-13 8.41354e-13 4.70888e-18 5.59675e-06 6.85916e-05 6.72623e-44 0 2.28115e-39 0 2.3682e-35 0 3.25628e-33 0 8.62356e-32 0 9.75097e-31 0 6.73441e-30 0 3.20853e-29 0 1.21323e-28 0 3.84678e-28 0 1.07075e-27 0 2.60981e-27 0 5.86336e-27 0 1.20535e-26 0 2.37065e-26 0 4.36146e-26 0 7.72326e-26 0 1.30321e-25 0 2.12569e-25 0 3.39621e-25 0 5.25925e-25 0
11.7094 6.75656e-13 6.75653e-13 3.68201e-18 5.44953e-06 6.90037e-05 4.2095e-42 0 8.54722e-38 0 5.64936e-34 0 6.10804e-32 0 1.37845e-30 0 1.3846e-29 0 8.70163e-29 0 3.84152e-28 0 1.36125e-27 0 4.07966e-27 0 1.08021e-26 0 2.5208e-26 0 5.44393e-26 0 1.08043e-25 0 2.05594e-25 0 3.67154e-25 0 6.32267e-25 0 1.03997e-24 0 1.65627e-24 0 2.58637e-24 0 3.92055e-24 0
12.3105 5.42737e-13 5.42734e-13 2.74363e-18 5.05518e-06 6.86364e-05 2.09702e-40 0 2.62316e-36 0 1.12845e-32 0 9.70695e-31 0 1.88144e-29 0 1.68851e-28 0 9.70075e-28 0 3.9831e-27 0 1.32688e-26 0 3.76914e-26 0 9.51658e-26 0 2.13079e-25 0 4.4319e-25 0 8.5063e-25 0 1.5686e-24 0 2.72303e-24 0 4.56647e-24 0 7.33078e-24 0 1.14128e-23 0 1.74382e-23 0 2.59022e-23 0
