# 4.7315e-06 0 85 : grain size, compostion index, size index
# Heating and cooling timescale: 0.449702 25798.1
# Ratio of heating to cooling to determine stochastic cutoff: 100
# Equilibrium emission is recorded even for those grains in the stochastic regime.
# Emission spectrum was computed for: 
# Type: IRSF
# Scales: 0.25 0.5 1 1.5 2 2.5 3 3.5 4 4.5 5 5.5 6 6.5 7 7.5 8 8.5 9 9.5 10
# StochasticallyHeated: 0 0 0 0 0 0 0 0 0 0 0 0 0 0 0 0 0 0 0 0 0
# Temperature: -1
# Wavelength  CExt  CAbs  CSca  Albedo G EqEm1 StEm1 EqEm2 StEm2 EqEm3 StEm3 EqEm4 StEm4 EqEm5 StEm5 EqEm6 StEm6 EqEm7 StEm7 EqEm8 StEm8 EqEm9 StEm9 EqEm10 StEm10 EqEm11 StEm11 EqEm12 StEm12 EqEm13 StEm13 EqEm14 StEm14 EqEm15 StEm15 EqEm16 StEm16 EqEm17 StEm17 EqEm18 StEm18 EqEm19 StEm19 EqEm20 StEm20 EqEm21 StEm21
0.05 5.01215e-11 2.48065e-11 2.5315e-11 0.505073 0.00576547 0 0 0 0 0 0 0 0 0 0 0 0 0 0 0 0 0 0 0 0 0 0 0 0 0 0 0 0 0 0 0 0 0 0 0 0 0 0 0 0 0 0
0.0525665 5.5399e-11 2.74185e-11 2.79805e-11 0.505073 0.00637255 0 0 0 0 0 0 0 0 0 0 0 0 0 0 0 0 0 0 0 0 0 0 0 0 0 0 0 0 0 0 0 0 0 0 0 0 0 0 0 0 0 0
0.0552647 6.12323e-11 3.03055e-11 3.09267e-11 0.505073 0.00704355 0 0 0 0 0 0 0 0 0 0 0 0 0 0 0 0 0 0 0 0 0 0 0 0 0 0 0 0 0 0 0 0 0 0 0 0 0 0 0 0 0 0
0.0581015 6.76797e-11 3.34965e-11 3.41832e-11 0.505073 0.0077852 0 0 0 0 0 0 0 0 0 0 0 0 0 0 0 0 0 0 0 0 0 0 0 0 0 0 0 0 0 0 0 0 0 0 0 0 0 0 0 0 0 0
0.0610839 7.48061e-11 3.70236e-11 3.77825e-11 0.505073 0.00860494 0 0 0 0 0 0 0 0 0 0 0 0 0 0 0 0 0 0 0 0 0 0 0 0 0 0 0 0 0 0 0 0 0 0 0 0 0 0 0 0 0 0
0.0642193 8.26828e-11 4.0922e-11 4.17608e-11 0.505073 0.009511 0 0 0 0 0 0 0 0 0 0 0 0 0 0 0 0 0 0 0 0 0 0 0 0 0 0 0 0 0 0 0 0 0 0 0 0 0 0 0 0 0 0
0.0675157 9.13889e-11 4.52309e-11 4.6158e-11 0.505073 0.0105125 0 0 0 0 0 0 0 0 0 0 0 0 0 0 0 0 0 0 0 0 0 0 0 0 0 0 0 0 0 0 0 0 0 0 0 0 0 0 0 0 0 0
0.0709813 1.01012e-10 4.99934e-11 5.10182e-11 0.505073 0.0116194 0 0 0 0 0 0 0 0 0 0 0 0 0 0 0 0 0 0 0 0 0 0 0 0 0 0 0 0 0 0 0 0 0 0 0 0 0 0 0 0 0 0
0.0746248 1.11648e-10 5.52575e-11 5.63902e-11 0.505073 0.0128428 0 0 0 0 0 0 0 0 0 0 0 0 0 0 0 0 0 0 0 0 0 0 0 0 0 0 0 0 0 0 0 0 0 0 0 0 0 0 0 0 0 0
0.0784553 1.23404e-10 6.10758e-11 6.23278e-11 0.505073 0.0141951 0 0 0 0 0 0 0 0 0 0 0 0 0 0 0 0 0 0 0 0 0 0 0 0 0 0 0 0 0 0 0 0 0 0 0 0 0 0 0 0 0 0
0.0824824 1.36397e-10 6.75068e-11 6.88906e-11 0.505073 0.0156898 0 0 0 0 0 0 0 0 0 0 0 0 0 0 0 0 0 0 0 0 0 0 0 0 0 0 0 0 0 0 0 0 0 0 0 0 0 0 0 0 0 0
0.0867162 1.5076e-10 7.4615e-11 7.61445e-11 0.505073 0.0173419 0 0 0 0 0 0 0 0 0 0 0 0 0 0 0 0 0 0 0 0 0 0 0 0 0 0 0 0 0 0 0 0 0 0 0 0 0 0 0 0 0 0
0.0911674 1.66634e-10 8.24716e-11 8.41622e-11 0.505073 0.0191679 0 0 0 0 0 0 0 0 0 0 0 0 0 0 0 0 0 0 0 0 0 0 0 0 0 0 0 0 0 0 0 0 0 0 0 0 0 0 0 0 0 0
0.095847 1.8418e-10 9.11555e-11 9.3024e-11 0.505073 0.0211862 0 0 0 0 0 0 0 0 0 0 0 0 0 0 0 0 0 0 0 0 0 0 0 0 0 0 0 0 0 0 0 0 0 0 0 0 0 0 0 0 0 0
0.100767 2.0038e-10 9.98626e-11 1.00517e-10 0.501633 0.0235692 0 0 0 0 0 0 0 0 0 0 0 0 0 0 0 0 0 0 0 0 0 0 0 0 0 0 0 0 0 0 0 0 0 0 0 0 0 0 0 0 0 0
0.105939 2.00791e-10 1.0423e-10 9.65611e-11 0.480903 0.0256046 0 0 0 0 0 0 0 0 0 0 0 0 0 0 0 0 0 0 0 0 0 0 0 0 0 0 0 0 0 0 0 0 0 0 0 0 0 0 0 0 0 0
0.111377 2.02678e-10 1.06444e-10 9.62333e-11 0.474809 0.0289403 0 0 0 0 0 0 0 0 0 0 0 0 0 0 0 0 0 0 0 0 0 0 0 0 0 0 0 0 0 0 0 0 0 0 0 0 0 0 0 0 0 0
0.117094 2.08269e-10 1.11139e-10 9.713e-11 0.466368 0.0274507 0 0 0 0 0 0 0 0 0 0 0 0 0 0 0 0 0 0 0 0 0 0 0 0 0 0 0 0 0 0 0 0 0 0 0 0 0 0 0 0 0 0
0.123105 2.25351e-10 1.09534e-10 1.15817e-10 0.51394 0.0236555 0 0 0 0 0 0 0 0 0 0 0 0 0 0 0 0 0 0 0 0 0 0 0 0 0 0 0 0 0 0 0 0 0 0 0 0 0 0 0 0 0 0
0.129424 2.35554e-10 1.04494e-10 1.3106e-10 0.556391 0.0199126 0 0 0 0 0 0 0 0 0 0 0 0 0 0 0 0 0 0 0 0 0 0 0 0 0 0 0 0 0 0 0 0 0 0 0 0 0 0 0 0 0 0
0.136067 2.14937e-10 9.55217e-11 1.19415e-10 0.555582 0.0168557 0 0 0 0 0 0 0 0 0 0 0 0 0 0 0 0 0 0 0 0 0 0 0 0 0 0 0 0 0 0 0 0 0 0 0 0 0 0 0 0 0 0
0.143051 1.80845e-10 8.62395e-11 9.46053e-11 0.52313 0.0143876 0 0 0 0 0 0 0 0 0 0 0 0 0 0 0 0 0 0 0 0 0 0 0 0 0 0 0 0 0 0 0 0 0 0 0 0 0 0 0 0 0 0
0.150394 1.5014e-10 8.19972e-11 6.81423e-11 0.45386 0.0122986 0 0 0 0 0 0 0 0 0 0 0 0 0 0 0 0 0 0 0 0 0 0 0 0 0 0 0 0 0 0 0 0 0 0 0 0 0 0 0 0 0 0
0.158114 1.2714e-10 8.06982e-11 4.64417e-11 0.36528 0.01055 0 0 0 0 0 0 0 0 0 0 0 0 0 0 0 0 0 0 0 0 0 0 0 0 0 0 0 0 0 0 0 0 0 0 0 0 0 0 0 0 0 0
0.16623 1.15309e-10 8.16943e-11 3.36147e-11 0.291519 0.00908216 0 0 0 0 0 0 0 0 0 0 0 0 0 0 0 0 0 0 0 0 0 0 0 0 0 0 0 0 0 0 0 0 0 0 0 0 0 0 0 0 0 0
0.174762 1.13501e-10 8.45935e-11 2.89079e-11 0.254692 0.00782097 0 0 0 0 0 0 0 0 0 0 0 0 0 0 0 0 0 0 0 0 0 0 0 0 0 0 0 0 0 0 0 0 0 0 0 0 0 0 0 0 0 0
0.183733 1.19554e-10 8.92409e-11 3.03136e-11 0.253555 0.00667218 0 0 0 0 0 0 0 0 0 0 0 0 0 0 0 0 0 0 0 0 0 0 0 0 0 0 0 0 0 0 0 0 0 0 0 0 0 0 0 0 0 0
0.193164 1.35379e-10 9.68932e-11 3.84857e-11 0.284281 0.00556038 0 0 0 0 0 0 0 0 0 0 0 0 0 0 0 0 0 0 0 0 0 0 0 0 0 0 0 0 0 0 0 0 0 0 0 0 0 0 0 0 0 0
0.203079 1.60345e-10 1.07583e-10 5.27618e-11 0.329052 0.00446034 0 0 0 0 0 0 0 0 0 0 0 0 0 0 0 0 0 0 0 0 0 0 0 0 0 0 0 0 0 0 0 0 0 0 0 0 0 0 0 0 0 0
0.213503 1.89455e-10 1.18894e-10 7.05604e-11 0.372439 0.00342932 0 0 0 0 0 0 0 0 0 0 0 0 0 0 0 0 0 0 0 0 0 0 0 0 0 0 0 0 0 0 0 0 0 0 0 0 0 0 0 0 0 0
0.224463 2.13148e-10 1.2512e-10 8.80275e-11 0.412988 0.00254317 0 0 0 0 0 0 0 0 0 0 0 0 0 0 0 0 0 0 0 0 0 0 0 0 0 0 0 0 0 0 0 0 0 0 0 0 0 0 0 0 0 0
0.235984 2.25179e-10 1.23347e-10 1.01832e-10 0.452226 0.00182186 0 0 0 0 0 0 0 0 0 0 0 0 0 0 0 0 0 0 0 0 0 0 0 0 0 0 0 0 0 0 0 0 0 0 0 0 0 0 0 0 0 0
0.248097 2.29801e-10 1.18775e-10 1.11026e-10 0.483141 0.00138916 0 0 0 0 0 0 0 0 0 0 0 0 0 0 0 0 0 0 0 0 0 0 0 0 0 0 0 0 0 0 0 0 0 0 0 0 0 0 0 0 0 0
0.260832 2.31371e-10 1.16493e-10 1.14878e-10 0.496508 0.00141961 0 0 0 0 0 0 0 0 0 0 0 0 0 0 0 0 0 0 0 0 0 0 0 0 0 0 0 0 0 0 0 0 0 0 0 0 0 0 0 0 0 0
0.274221 2.30624e-10 1.17721e-10 1.12903e-10 0.489556 0.00187131 0 0 0 0 0 0 0 0 0 0 0 0 0 0 0 0 0 0 0 0 0 0 0 0 0 0 0 0 0 0 0 0 0 0 0 0 0 0 0 0 0 0
0.288297 2.2815e-10 1.21336e-10 1.06814e-10 0.468175 0.00251556 0 0 0 0 0 0 0 0 0 0 0 0 0 0 0 0 0 0 0 0 0 0 0 0 0 0 0 0 0 0 0 0 0 0 0 0 0 0 0 0 0 0
0.303095 2.212e-10 1.2347e-10 9.773e-11 0.441818 0.0028362 0 0 0 0 0 0 0 0 0 0 0 0 0 0 0 0 0 0 0 0 0 0 0 0 0 0 0 0 0 0 0 0 0 0 0 0 0 0 0 0 0 0
0.318653 2.0424e-10 1.19688e-10 8.45518e-11 0.413984 0.00297223 0 0 0 0 0 0 0 0 0 0 0 0 0 0 0 0 0 0 0 0 0 0 0 0 0 0 0 0 0 0 0 0 0 0 0 0 0 0 0 0 0 0
0.335009 1.79774e-10 1.10274e-10 6.95003e-11 0.386597 0.00293231 0 0 0 0 0 0 0 0 0 0 0 0 0 0 0 0 0 0 0 0 0 0 0 0 0 0 0 0 0 0 0 0 0 0 0 0 0 0 0 0 0 0
0.352205 1.56023e-10 9.98651e-11 5.61578e-11 0.359933 0.00278811 0 0 0 0 0 0 0 0 0 0 0 0 0 0 0 0 0 0 0 0 0 0 0 0 0 0 0 0 0 0 0 0 0 0 0 0 0 0 0 0 0 0
0.370284 1.36831e-10 9.11725e-11 4.56589e-11 0.333687 0.00261033 0 0 0 0 0 0 0 0 0 0 0 0 0 0 0 0 0 0 0 0 0 0 0 0 0 0 0 0 0 0 0 0 0 0 0 0 0 0 0 0 0 0
0.389291 1.21733e-10 8.41518e-11 3.75815e-11 0.30872 0.00243645 0 0 0 0 0 0 0 0 0 0 0 0 0 0 0 0 0 0 0 0 0 0 0 0 0 0 0 0 0 0 0 0 0 0 0 0 0 0 0 0 0 0
0.409273 1.09197e-10 7.79938e-11 3.12029e-11 0.285749 0.00226652 0 0 0 0 0 0 0 0 0 0 0 0 0 0 0 0 0 0 0 0 0 0 0 0 0 0 0 0 0 0 0 0 0 0 0 0 0 0 0 0 0 0
0.430281 9.81084e-11 7.2135e-11 2.59734e-11 0.264742 0.00210471 0 0 0 0 0 0 0 0 0 0 0 0 0 0 0 0 0 0 0 0 0 0 0 0 0 0 0 0 0 0 0 0 0 0 0 0 0 0 0 0 0 0
0.452368 8.79616e-11 6.63904e-11 2.15711e-11 0.245233 0.00193723 0 0 0 0 0 0 0 0 0 0 0 0 0 0 0 0 0 0 0 0 0 0 0 0 0 0 0 0 0 0 0 0 0 0 0 0 0 0 0 0 0 0
0.475588 7.86569e-11 6.08246e-11 1.78323e-11 0.22671 0.00177642 0 0 0 0 0 0 0 0 0 0 0 0 0 0 0 0 0 0 0 0 0 0 0 0 0 0 0 0 0 0 0 0 0 0 0 0 0 0 0 0 0 0
0.5 7.02572e-11 5.55845e-11 1.46727e-11 0.208843 0.00162159 0 0 0 0 0 0 0 0 0 0 0 0 0 0 0 0 0 0 0 0 0 0 0 0 0 0 0 0 0 0 0 0 0 0 0 0 0 0 0 0 0 0
0.525665 6.28322e-11 5.08016e-11 1.20307e-11 0.191473 0.0014751 0 0 0 0 0 0 0 0 0 0 0 0 0 0 0 0 0 0 0 0 0 0 0 0 0 0 0 0 0 0 0 0 0 0 0 0 0 0 0 0 0 0
0.552648 5.6386e-11 4.65399e-11 9.84606e-12 0.174619 0.00134175 0 0 0 0 0 0 0 0 0 0 0 0 0 0 0 0 0 0 0 0 0 0 0 0 0 0 0 0 0 0 0 0 0 0 0 0 0 0 0 0 0 0
0.581015 5.08585e-11 4.28018e-11 8.05673e-12 0.158414 0.00121775 0 0 0 0 0 0 0 0 0 0 0 0 0 0 0 0 0 0 0 0 0 0 0 0 0 0 0 0 0 0 0 0 0 0 0 0 0 0 0 0 0 0
0.610839 4.61387e-11 3.95402e-11 6.59854e-12 0.143015 0.00110516 0 0 0 0 0 0 0 0 0 0 0 0 0 0 0 0 0 0 0 0 0 0 0 0 0 0 0 0 0 0 0 0 0 0 0 0 0 0 0 0 0 0
0.642193 4.21046e-11 3.66904e-11 5.41423e-12 0.12859 0.00100302 0 0 0 0 0 0 0 0 0 0 0 0 0 0 0 0 0 0 0 0 0 0 0 0 0 0 0 0 0 0 0 0 0 0 0 0 0 0 0 0 0 0
0.675157 3.86284e-11 3.41758e-11 4.45263e-12 0.115268 0.000910957 0 0 0 0 0 0 0 0 0 0 0 0 0 0 0 0 0 0 0 0 0 0 0 0 0 0 0 0 0 0 0 0 0 0 0 0 0 0 0 0 0 0
0.709813 3.55974e-11 3.19268e-11 3.67064e-12 0.103115 0.00082817 0 0 0 0 0 0 0 0 0 0 0 0 0 0 0 0 0 0 0 0 0 0 0 0 0 0 0 0 0 0 0 0 0 0 0 0 0 0 0 0 0 0
0.746248 3.29157e-11 2.98827e-11 3.03293e-12 0.0921423 0.000754183 0 0 0 0 0 0 0 0 0 0 0 0 0 0 0 0 0 0 0 0 0 0 0 0 0 0 0 0 0 0 0 0 0 0 0 0 0 0 0 0 0 0
0.784553 3.05043e-11 2.79934e-11 2.51091e-12 0.0823133 0.000686995 0 0 0 0 0 0 0 0 0 0 0 0 0 0 0 0 0 0 0 0 0 0 0 0 0 0 0 0 0 0 0 0 0 0 0 0 0 0 0 0 0 0
0.824824 2.8306e-11 2.62239e-11 2.08213e-12 0.0735578 0.000626788 0 0 0 0 0 0 0 0 0 0 0 0 0 0 0 0 0 0 0 0 0 0 0 0 0 0 0 0 0 0 0 0 0 0 0 0 0 0 0 0 0 0
0.867162 2.62745e-11 2.45459e-11 1.72859e-12 0.0657895 0.000572518 0 0 0 0 0 0 0 0 0 0 0 0 0 0 0 0 0 0 0 0 0 0 0 0 0 0 0 0 0 0 0 0 0 0 0 0 0 0 0 0 0 0
0.911674 2.43799e-11 2.29437e-11 1.43624e-12 0.0589107 0.000523427 0 0 0 0 0 0 0 0 0 0 0 0 0 0 0 0 0 0 0 0 0 0 0 0 0 0 0 0 0 0 0 0 0 0 0 0 0 0 0 0 0 0
0.95847 2.26015e-11 2.14079e-11 1.19362e-12 0.0528115 0.00047944 0 0 0 0 0 0 0 0 0 0 0 0 0 0 0 0 0 0 0 0 0 0 0 0 0 0 0 0 0 0 0 0 0 0 0 0 0 0 0 0 0 0
1.00767 2.09278e-11 1.99358e-11 9.9206e-13 0.0474039 0.0004395 0 0 0 0 0 0 0 0 0 0 0 0 0 0 0 0 0 0 0 0 0 0 0 0 0 0 0 0 0 0 0 0 0 0 0 0 0 0 0 0 0 0
1.05939 1.93505e-11 1.85262e-11 8.24293e-13 0.0425979 0.000403275 0 0 0 0 0 0 0 0 0 0 0 0 0 0 0 0 0 0 0 0 0 0 0 0 0 0 0 0 0 0 0 0 0 0 0 0 0 0 0 0 0 0
1.11377 1.78447e-11 1.71604e-11 6.8425e-13 0.0383447 0.000370298 0 0 0 0 0 0 0 0 0 0 0 0 0 0 0 0 0 0 0 0 0 0 0 0 0 0 0 0 0 0 0 0 0 0 0 0 0 0 0 0 0 0
1.17094 1.64367e-11 1.58688e-11 5.67892e-13 0.0345503 0.000339515 0 0 0 0 0 0 0 0 0 0 0 0 0 0 0 0 0 0 0 0 0 0 0 0 0 0 0 0 0 0 0 0 0 0 0 0 0 0 0 0 0 0
1.23105 1.51129e-11 1.46421e-11 4.70783e-13 0.0311512 0.000311294 0 0 0 0 0 0 0 0 0 0 0 0 0 0 0 0 0 0 0 0 0 0 0 0 0 0 0 0 0 0 0 0 0 0 0 0 0 0 0 0 0 0
1.29424 1.3872e-11 1.3482e-11 3.90002e-13 0.0281143 0.000285362 0 0 0 0 0 0 0 0 0 0 0 0 0 0 0 0 0 0 0 0 0 0 0 0 0 0 0 0 0 0 0 0 0 0 0 0 0 0 0 0 0 0
1.36067 1.27117e-11 1.23889e-11 3.22793e-13 0.0253934 0.000261742 0 0 0 0 0 0 0 0 0 0 0 0 0 0 0 0 0 0 0 0 0 0 0 0 0 0 0 0 0 0 0 0 0 0 0 0 0 0 0 0 0 0
1.43051 1.163e-11 1.13632e-11 2.66846e-13 0.0229446 0.000240209 0 0 0 0 0 0 0 0 0 0 0 0 0 0 0 0 0 0 0 0 0 0 0 0 0 0 0 0 0 0 0 0 0 0 0 0 0 0 0 0 0 0
1.50394 1.06275e-11 1.04071e-11 2.20441e-13 0.0207424 0.000220279 0 0 0 0 0 0 0 0 0 0 0 0 0 0 0 0 0 0 0 0 0 0 0 0 0 0 0 0 0 0 0 0 0 0 0 0 0 0 0 0 0 0
1.58114 9.70078e-12 9.51881e-12 1.8197e-13 0.0187583 0.000201732 0 0 0 0 0 0 0 0 0 0 0 0 0 0 0 0 0 0 0 0 0 0 0 0 0 0 0 0 0 0 0 0 0 0 0 0 0 0 0 0 0 0
1.6623 8.84503e-12 8.69496e-12 1.50071e-13 0.0169667 0.000184534 0 0 0 0 0 0 0 0 0 0 0 0 0 0 0 0 0 0 0 0 0 0 0 0 0 0 0 0 0 0 0 0 0 0 0 0 0 0 0 0 0 0
1.74763 8.05728e-12 7.93359e-12 1.23692e-13 0.0153516 0.000169005 0 0 0 0 0 0 0 0 0 0 0 0 0 0 0 0 0 0 0 0 0 0 0 0 0 0 0 0 0 0 0 0 0 0 0 0 0 0 0 0 0 0
1.83733 7.33391e-12 7.23203e-12 1.01877e-13 0.0138912 0.000154804 0 0 0 0 0 0 0 0 0 0 0 0 0 0 0 0 0 0 0 0 0 0 0 0 0 0 0 0 0 0 0 0 0 0 0 0 0 0 0 0 0 0
1.93164 6.67074e-12 6.58689e-12 8.38497e-14 0.0125698 0.000141793 0 0 0 0 0 0 0 0 0 0 0 0 0 0 0 0 0 0 0 0 0 0 0 0 0 0 0 0 0 0 0 0 0 0 0 0 0 0 0 0 0 0
2.03079 6.06404e-12 5.99507e-12 6.89721e-14 0.011374 0.000129725 0 0 0 0 0 0 0 0 0 0 0 0 0 0 0 0 0 0 0 0 0 0 0 0 0 0 0 0 0 0 0 0 0 0 0 0 0 0 0 0 0 0
2.13503 5.51018e-12 5.45347e-12 5.67105e-14 0.010292 0.000118657 0 0 0 0 0 0 0 0 0 0 0 0 0 0 0 0 0 0 0 0 0 0 0 0 0 0 0 0 0 0 0 0 0 0 0 0 0 0 0 0 0 0
2.24463 5.00487e-12 4.95827e-12 4.66047e-14 0.00931187 0.000108569 0 0 0 0 0 0 0 0 0 0 0 0 0 0 0 0 0 0 0 0 0 0 0 0 0 0 0 0 0 0 0 0 0 0 0 0 0 0 0 0 0 0
2.35984 4.54468e-12 4.5064e-12 3.82841e-14 0.00842392 9.92926e-05 0 0 0 0 0 0 0 0 0 0 0 0 0 0 0 0 0 0 0 0 0 0 0 0 0 0 0 0 0 0 0 0 0 0 0 0 0 0 0 0 0 0
2.48097 4.12591e-12 4.09447e-12 3.14373e-14 0.00761948 9.07218e-05 0 0 0 0 0 0 0 0 0 0 0 0 0 0 0 0 0 0 0 0 0 0 0 0 0 0 0 0 0 0 0 0 0 0 0 0 0 0 0 0 0 0
2.60832 3.74534e-12 3.71953e-12 2.58062e-14 0.00689023 8.27967e-05 0 0 0 0 0 0 0 0 0 0 0 0 0 0 0 0 0 0 0 0 0 0 0 0 0 0 0 0 0 0 0 0 0 0 0 0 0 0 0 0 0 0
2.74221 3.39993e-12 3.37875e-12 2.11802e-14 0.00622961 7.55862e-05 0 0 0 0 0 0 0 0 0 0 0 0 0 0 0 0 0 0 0 0 0 0 0 0 0 0 0 0 0 0 0 0 0 0 0 0 0 0 0 0 0 0
2.88297 3.08617e-12 3.0688e-12 1.73747e-14 0.00562985 6.90729e-05 0 0 0 0 0 0 0 0 0 0 0 0 0 0 0 0 0 0 0 0 0 0 0 0 0 0 0 0 0 0 0 0 0 0 0 0 0 0 0 0 0 0
3.03095 2.80209e-12 2.78784e-12 1.4253e-14 0.00508656 6.31538e-05 0 0 0 0 0 0 0 0 0 0 0 0 0 0 0 0 0 0 0 0 0 0 0 0 0 0 0 0 0 0 0 0 0 0 0 0 0 0 0 0 0 0
3.18653 2.54438e-12 2.53269e-12 1.1688e-14 0.00459364 5.76567e-05 0 0 0 0 0 0 0 0 0 0 0 0 0 0 0 0 0 0 0 0 0 0 0 0 0 0 0 0 0 0 0 0 0 0 0 0 0 0 0 0 0 0
3.35009 2.31106e-12 2.30148e-12 9.58272e-15 0.00414646 5.2603e-05 0 0 0 0 0 0 0 0 0 0 0 0 0 0 0 0 0 0 0 0 0 0 0 0 0 0 0 0 0 0 0 0 0 0 0 0 0 0 0 0 0 0
3.52205 2.09984e-12 2.09199e-12 7.85584e-15 0.00374116 4.80102e-05 0 0 0 0 0 0 0 0 0 0 0 0 0 0 0 0 0 0 0 0 0 0 0 0 0 0 0 0 0 0 0 0 0 0 0 0 0 0 0 0 0 0
3.70284 1.90868e-12 1.90224e-12 6.43886e-15 0.00337346 4.38066e-05 0 0 0 0 0 0 0 0 0 0 0 0 0 0 0 0 0 0 0 0 0 0 0 0 0 0 0 0 0 0 0 0 0 0 0 0 0 0 0 0 0 0
3.89291 1.73579e-12 1.73051e-12 5.27657e-15 0.00303987 3.9926e-05 0 0 0 0 0 0 0 0 0 0 0 0 0 0 0 0 0 0 0 0 0 0 0 0 0 0 0 0 0 0 0 0 0 0 0 0 0 0 0 0 0 0
4.09273 1.57945e-12 1.57513e-12 4.32387e-15 0.00273758 3.62643e-05 0 0 0 0 0 0 0 0 0 0 0 0 0 0 0 0 0 0 0 0 0 0 0 0 0 0 0 0 0 0 0 0 0 0 0 0 0 0 0 0 0 0
4.30281 1.43821e-12 1.43467e-12 3.54288e-15 0.00246339 3.29535e-05 0 0 0 0 0 0 0 0 0 0 0 0 0 0 0 0 0 0 0 0 0 0 0 0 0 0 0 0 0 0 0 0 0 0 1.4013e-45 0 2.8026e-45 0 9.80909e-45 0 2.38221e-44 0
4.52368 1.31052e-12 1.30762e-12 2.90299e-15 0.00221514 2.99416e-05 0 0 0 0 0 0 0 0 0 0 0 0 0 0 0 0 0 0 0 0 0 0 0 0 0 0 1.4013e-45 0 2.8026e-45 0 1.26117e-44 0 4.06377e-44 0 1.23314e-43 0 3.47522e-43 0 9.30462e-43 0 2.35839e-42 0
4.75588 1.19518e-12 1.1928e-12 2.37855e-15 0.00199012 2.71796e-05 0 0 0 0 0 0 0 0 0 0 0 0 0 0 0 0 0 0 0 0 0 0 4.2039e-45 0 2.10195e-44 0 8.96831e-44 0 3.43318e-43 0 1.17989e-42 0 3.80172e-42 0 1.07858e-41 0 2.89536e-41 0 7.37531e-41 0 1.78713e-40 0
5 1.09096e-12 1.08901e-12 1.94851e-15 0.00178605 2.45398e-05 0 0 0 0 0 0 0 0 0 0 0 0 0 0 0 0 1.4013e-45 0 1.12104e-44 0 7.70714e-44 0 4.23192e-43 0 1.96602e-42 0 7.84447e-42 0 2.8096e-41 0 9.10073e-41 0 2.77108e-40 0 7.47122e-40 0 1.91124e-39 0 4.65113e-39 0 1.07937e-38 0
5.25665 9.96879e-13 9.95283e-13 1.59632e-15 0.00160132 2.21678e-05 0 0 0 0 0 0 0 0 0 0 0 0 1.4013e-45 0 1.26117e-44 0 1.31722e-43 0 1.0762e-42 0 6.69681e-42 0 3.38049e-41 0 1.45742e-40 0 5.43338e-40 0 1.82851e-39 0 5.5925e-39 0 1.61277e-38 0 4.1427e-38 0 1.01226e-37 0 2.35872e-37 0 5.25334e-37 0
5.52648 9.11799e-13 9.10491e-13 1.30764e-15 0.00143413 2.00489e-05 0 0 0 0 0 0 0 0 0 0 2.8026e-45 0 7.56701e-44 0 1.11543e-42 0 1.09624e-41 0 8.08073e-41 0 4.60203e-40 0 2.14636e-39 0 8.61645e-39 0 3.0124e-38 0 9.55453e-38 0 2.76702e-37 0 7.57741e-37 0 1.85878e-36 0 4.34802e-36 0 9.72166e-36 0 2.0822e-35 0
5.81015 8.34964e-13 8.33892e-13 1.07124e-15 0.00128298 1.8115e-05 0 0 0 0 0 0 0 0 5.60519e-45 0 2.76056e-43 0 6.35068e-42 0 8.23543e-41 0 7.24152e-40 0 4.84189e-39 0 2.53294e-38 0 1.09579e-37 0 4.11038e-37 0 1.35185e-36 0 4.05273e-36 0 1.11431e-35 0 2.90504e-35 0 6.82075e-35 0 1.53065e-34 0 3.29051e-34 0 6.79038e-34 0
6.10839 7.65786e-13 7.64908e-13 8.77809e-16 0.00114628 1.63023e-05 0 0 0 0 0 0 2.8026e-45 0 5.00264e-43 0 2.14819e-41 0 4.24443e-40 0 4.85671e-39 0 3.84049e-38 0 2.34036e-37 0 1.1293e-36 0 4.54834e-36 0 1.59947e-35 0 4.96336e-35 0 1.41032e-34 0 3.69085e-34 0 9.18239e-34 0 2.06794e-33 0 4.46111e-33 0 9.23849e-33 0 1.84022e-32 0
6.42193 6.99582e-13 6.98864e-13 7.17228e-16 0.00102522 1.48144e-05 0 0 0 0 0 0 2.97075e-43 0 3.70671e-41 0 1.32547e-39 0 2.26388e-38 0 2.29983e-37 0 1.64397e-36 0 9.17207e-36 0 4.09845e-35 0 1.54214e-34 0 5.10015e-34 0 1.49752e-33 0 4.0436e-33 0 1.00967e-32 0 2.40261e-32 0 5.20057e-32 0 1.08057e-31 0 2.15961e-31 0 4.15942e-31 0
6.75157 6.46478e-13 6.4589e-13 5.88219e-16 0.000909882 1.32279e-05 0 0 0 0 2.52234e-44 0 2.24866e-41 0 2.21551e-39 0 6.65296e-38 0 9.89294e-37 0 8.97446e-36 0 5.82775e-35 0 2.98968e-34 0 1.24175e-33 0 4.37965e-33 0 1.36627e-32 0 3.80615e-32 0 9.79084e-32 0 2.33791e-31 0 5.33272e-31 0 1.11159e-30 0 2.22863e-30 0 4.30604e-30 0 8.03226e-30 0
7.09813 5.95374e-13 5.94892e-13 4.81823e-16 0.000809277 1.18448e-05 0 0 0 0 2.07252e-42 0 1.35062e-39 0 1.06356e-37 0 2.70498e-36 0 3.52564e-35 0 2.87186e-34 0 1.7021e-33 0 8.06193e-33 0 3.1236e-32 0 1.03594e-31 0 3.05708e-31 0 8.10089e-31 0 1.98991e-30 0 4.55391e-30 0 9.97747e-30 0 2.0065e-29 0 3.88853e-29 0 7.27545e-29 0 1.31644e-28 0
7.46248 5.49803e-13 5.49408e-13 3.94631e-16 0.000717768 1.05694e-05 0 0 1.4013e-45 0 1.37954e-40 0 6.55305e-38 0 4.16956e-36 0 9.05471e-35 0 1.04113e-33 0 7.65519e-33 0 4.15955e-32 0 1.82609e-31 0 6.62245e-31 0 2.07146e-30 0 5.79833e-30 0 1.46509e-29 0 3.44436e-29 0 7.57017e-29 0 1.59628e-28 0 3.10253e-28 0 5.82147e-28 0 1.05639e-27 0 1.8569e-27 0
7.84553 5.08289e-13 5.07966e-13 3.23215e-16 0.000635889 9.34187e-06 0 0 1.21913e-43 0 7.37068e-39 0 2.59138e-36 0 1.34622e-34 0 2.51555e-33 0 2.56732e-32 0 1.71249e-31 0 8.56698e-31 0 3.49892e-30 0 1.19156e-29 0 3.52526e-29 0 9.38409e-29 0 2.26621e-28 0 5.10996e-28 0 1.08073e-27 0 2.19737e-27 0 4.13445e-27 0 7.52297e-27 0 1.326e-26 0 2.26752e-26 0
8.24824 4.69609e-13 4.69344e-13 2.64697e-16 0.000563654 8.19911e-06 0 0 9.07341e-42 0 3.18914e-37 0 8.42151e-35 0 3.60756e-33 0 5.84319e-32 0 5.32403e-31 0 3.23705e-30 0 1.49697e-29 0 5.70797e-29 0 1.83096e-28 0 5.13755e-28 0 1.30376e-27 0 3.01585e-27 0 6.53562e-27 0 1.33261e-26 0 2.61723e-26 0 4.77479e-26 0 8.43788e-26 0 1.44667e-25 0 2.4099e-25 0
8.67162 4.35475e-13 4.35259e-13 2.16788e-16 0.000497818 7.20916e-06 8.40779e-45 0 5.37797e-40 0 1.13389e-35 0 2.2806e-33 0 8.13205e-32 0 1.14971e-30 0 9.4043e-30 0 5.23554e-29 0 2.24674e-28 0 8.02496e-28 0 2.43179e-27 0 6.48822e-27 0 1.57333e-26 0 3.49341e-26 0 7.29002e-26 0 1.43562e-25 0 2.72813e-25 0 4.83313e-25 0 8.30681e-25 0 1.3872e-24 0 2.25397e-24 0
9.11674 4.04231e-13 4.04054e-13 1.77542e-16 0.000439208 6.32492e-06 6.61413e-43 0 2.57297e-38 0 3.33637e-34 0 5.1795e-32 0 1.55116e-30 0 1.92698e-29 0 1.4225e-28 0 7.28254e-28 0 2.91064e-27 0 9.76978e-27 0 2.80452e-26 0 7.13264e-26 0 1.65639e-25 0 3.53735e-25 0 7.1213e-25 0 1.35675e-24 0 2.49869e-24 0 4.30477e-24 0 7.20563e-24 0 1.17356e-23 0 1.86217e-23 0
9.5847 3.76296e-13 3.7615e-13 1.45401e-16 0.000386402 5.52644e-06 4.33169e-41 0 1.00597e-36 0 8.21522e-33 0 9.96915e-31 0 2.52898e-29 0 2.77806e-28 0 1.86007e-27 0 8.79289e-27 0 3.28443e-26 0 1.03915e-25 0 2.83331e-25 0 6.88481e-25 0 1.5344e-24 0 3.15767e-24 0 6.14342e-24 0 1.13418e-23 0 2.02744e-23 0 3.40134e-23 0 5.552e-23 0 8.82955e-23 0 1.36982e-22 0
10.0767 3.51169e-13 3.5105e-13 1.19084e-16 0.000339108 4.78203e-06 2.28296e-39 0 3.24534e-35 0 1.70723e-31 0 1.639e-29 0 3.55061e-28 0 3.46963e-27 0 2.11716e-26 0 9.27724e-26 0 3.24941e-25 0 9.71853e-25 0 2.52317e-24 0 5.87108e-24 0 1.25827e-23 0 2.49975e-23 0 4.70791e-23 0 8.4353e-23 0 1.46571e-22 0 2.39762e-22 0 3.82111e-22 0 5.94076e-22 0 9.02103e-22 0
