# 4.7315e-05 0 125 : grain size, compostion index, size index
# Heating and cooling timescale: 0.00085811 1.89916e+06
# Ratio of heating to cooling to determine stochastic cutoff: 100
# Equilibrium emission is recorded even for those grains in the stochastic regime.
# Emission spectrum was computed for: 
# Type: IRSF
# Scales: 0.25 0.5 1 1.5 2 2.5 3 3.5 4 4.5 5 5.5 6 6.5 7 7.5 8 8.5 9 9.5 10
# StochasticallyHeated: 0 0 0 0 0 0 0 0 0 0 0 0 0 0 0 0 0 0 0 0 0
# Temperature: -1
# Wavelength  CExt  CAbs  CSca  Albedo G EqEm1 StEm1 EqEm2 StEm2 EqEm3 StEm3 EqEm4 StEm4 EqEm5 StEm5 EqEm6 StEm6 EqEm7 StEm7 EqEm8 StEm8 EqEm9 StEm9 EqEm10 StEm10 EqEm11 StEm11 EqEm12 StEm12 EqEm13 StEm13 EqEm14 StEm14 EqEm15 StEm15 EqEm16 StEm16 EqEm17 StEm17 EqEm18 StEm18 EqEm19 StEm19 EqEm20 StEm20 EqEm21 StEm21
0.05 3.91802e-09 1.5134e-09 2.40462e-09 0.613734 0.00576547 0 0 0 0 0 0 0 0 0 0 0 0 0 0 0 0 0 0 0 0 0 0 0 0 0 0 0 0 0 0 0 0 0 0 0 0 0 0 0 0 0 0
0.0525665 4.33057e-09 1.67275e-09 2.65782e-09 0.613734 0.00637255 0 0 0 0 0 0 0 0 0 0 0 0 0 0 0 0 0 0 0 0 0 0 0 0 0 0 0 0 0 0 0 0 0 0 0 0 0 0 0 0 0 0
0.0552647 4.78656e-09 1.84889e-09 2.93767e-09 0.613734 0.00704355 0 0 0 0 0 0 0 0 0 0 0 0 0 0 0 0 0 0 0 0 0 0 0 0 0 0 0 0 0 0 0 0 0 0 0 0 0 0 0 0 0 0
0.0581015 5.29056e-09 2.04356e-09 3.24699e-09 0.613734 0.0077852 0 0 0 0 0 0 0 0 0 0 0 0 0 0 0 0 0 0 0 0 0 0 0 0 0 0 0 0 0 0 0 0 0 0 0 0 0 0 0 0 0 0
0.0610839 5.84763e-09 2.25874e-09 3.58889e-09 0.613734 0.00860494 0 0 0 0 0 0 0 0 0 0 0 0 0 0 0 0 0 0 0 0 0 0 0 0 0 0 0 0 0 0 0 0 0 0 0 0 0 0 0 0 0 0
0.0642193 6.46335e-09 2.49658e-09 3.96678e-09 0.613734 0.009511 0 0 0 0 0 0 0 0 0 0 0 0 0 0 0 0 0 0 0 0 0 0 0 0 0 0 0 0 0 0 0 0 0 0 0 0 0 0 0 0 0 0
0.0675157 7.14391e-09 2.75945e-09 4.38446e-09 0.613734 0.0105125 0 0 0 0 0 0 0 0 0 0 0 0 0 0 0 0 0 0 0 0 0 0 0 0 0 0 0 0 0 0 0 0 0 0 0 0 0 0 0 0 0 0
0.0709813 7.89613e-09 3.05001e-09 4.84612e-09 0.613734 0.0116194 0 0 0 0 0 0 0 0 0 0 0 0 0 0 0 0 0 0 0 0 0 0 0 0 0 0 0 0 0 0 0 0 0 0 0 0 0 0 0 0 0 0
0.0746248 8.72756e-09 3.37116e-09 5.3564e-09 0.613734 0.0128428 0 0 0 0 0 0 0 0 0 0 0 0 0 0 0 0 0 0 0 0 0 0 0 0 0 0 0 0 0 0 0 0 0 0 0 0 0 0 0 0 0 0
0.0784553 9.64652e-09 3.72613e-09 5.9204e-09 0.613734 0.0141951 0 0 0 0 0 0 0 0 0 0 0 0 0 0 0 0 0 0 0 0 0 0 0 0 0 0 0 0 0 0 0 0 0 0 0 0 0 0 0 0 0 0
0.0824824 1.06623e-08 4.11847e-09 6.54379e-09 0.613734 0.0156898 0 0 0 0 0 0 0 0 0 0 0 0 0 0 0 0 0 0 0 0 0 0 0 0 0 0 0 0 0 0 0 0 0 0 0 0 0 0 0 0 0 0
0.0867162 1.17849e-08 4.55213e-09 7.23282e-09 0.613734 0.0173419 0 0 0 0 0 0 0 0 0 0 0 0 0 0 0 0 0 0 0 0 0 0 0 0 0 0 0 0 0 0 0 0 0 0 0 0 0 0 0 0 0 0
0.0911674 1.30258e-08 5.03144e-09 7.9944e-09 0.613734 0.0191679 0 0 0 0 0 0 0 0 0 0 0 0 0 0 0 0 0 0 0 0 0 0 0 0 0 0 0 0 0 0 0 0 0 0 0 0 0 0 0 0 0 0
0.095847 1.43974e-08 5.56123e-09 8.83617e-09 0.613734 0.0211862 0 0 0 0 0 0 0 0 0 0 0 0 0 0 0 0 0 0 0 0 0 0 0 0 0 0 0 0 0 0 0 0 0 0 0 0 0 0 0 0 0 0
0.100767 1.56649e-08 6.09683e-09 9.56803e-09 0.610796 0.0235692 0 0 0 0 0 0 0 0 0 0 0 0 0 0 0 0 0 0 0 0 0 0 0 0 0 0 0 0 0 0 0 0 0 0 0 0 0 0 0 0 0 0
0.105939 1.56434e-08 6.34974e-09 9.29363e-09 0.594094 0.0256046 0 0 0 0 0 0 0 0 0 0 0 0 0 0 0 0 0 0 0 0 0 0 0 0 0 0 0 0 0 0 0 0 0 0 0 0 0 0 0 0 0 0
0.111377 1.56681e-08 6.42428e-09 9.24382e-09 0.589977 0.0289403 0 0 0 0 0 0 0 0 0 0 0 0 0 0 0 0 0 0 0 0 0 0 0 0 0 0 0 0 0 0 0 0 0 0 0 0 0 0 0 0 0 0
0.117094 1.56537e-08 6.64136e-09 9.01231e-09 0.575731 0.0274507 0 0 0 0 0 0 0 0 0 0 0 0 0 0 0 0 0 0 0 0 0 0 0 0 0 0 0 0 0 0 0 0 0 0 0 0 0 0 0 0 0 0
0.123105 1.56752e-08 6.9114e-09 8.7638e-09 0.559087 0.0236555 0 0 0 0 0 0 0 0 0 0 0 0 0 0 0 0 0 0 0 0 0 0 0 0 0 0 0 0 0 0 0 0 0 0 0 0 0 0 0 0 0 0
0.129424 1.57163e-08 7.13467e-09 8.58163e-09 0.546034 0.0199126 0 0 0 0 0 0 0 0 0 0 0 0 0 0 0 0 0 0 0 0 0 0 0 0 0 0 0 0 0 0 0 0 0 0 0 0 0 0 0 0 0 0
0.136067 1.57577e-08 7.32141e-09 8.43632e-09 0.535377 0.0168557 0 0 0 0 0 0 0 0 0 0 0 0 0 0 0 0 0 0 0 0 0 0 0 0 0 0 0 0 0 0 0 0 0 0 0 0 0 0 0 0 0 0
0.143051 1.57889e-08 7.48259e-09 8.30627e-09 0.526084 0.0143876 0 0 0 0 0 0 0 0 0 0 0 0 0 0 0 0 0 0 0 0 0 0 0 0 0 0 0 0 0 0 0 0 0 0 0 0 0 0 0 0 0 0
0.150394 1.57933e-08 7.61217e-09 8.18114e-09 0.518013 0.0122986 0 0 0 0 0 0 0 0 0 0 0 0 0 0 0 0 0 0 0 0 0 0 0 0 0 0 0 0 0 0 0 0 0 0 0 0 0 0 0 0 0 0
0.158114 1.57447e-08 7.68324e-09 8.06142e-09 0.51201 0.01055 0 0 0 0 0 0 0 0 0 0 0 0 0 0 0 0 0 0 0 0 0 0 0 0 0 0 0 0 0 0 0 0 0 0 0 0 0 0 0 0 0 0
0.16623 1.56329e-08 7.65225e-09 7.9806e-09 0.510502 0.00908216 0 0 0 0 0 0 0 0 0 0 0 0 0 0 0 0 0 0 0 0 0 0 0 0 0 0 0 0 0 0 0 0 0 0 0 0 0 0 0 0 0 0
0.174762 1.55246e-08 7.50991e-09 8.01471e-09 0.516258 0.00782097 0 0 0 0 0 0 0 0 0 0 0 0 0 0 0 0 0 0 0 0 0 0 0 0 0 0 0 0 0 0 0 0 0 0 0 0 0 0 0 0 0 0
0.183733 1.55295e-08 7.25814e-09 8.27136e-09 0.532623 0.00667218 0 0 0 0 0 0 0 0 0 0 0 0 0 0 0 0 0 0 0 0 0 0 0 0 0 0 0 0 0 0 0 0 0 0 0 0 0 0 0 0 0 0
0.193164 1.57378e-08 6.90509e-09 8.83273e-09 0.561242 0.00556038 0 0 0 0 0 0 0 0 0 0 0 0 0 0 0 0 0 0 0 0 0 0 0 0 0 0 0 0 0 0 0 0 0 0 0 0 0 0 0 0 0 0
0.203079 1.61098e-08 6.53773e-09 9.57206e-09 0.594176 0.00446034 0 0 0 0 0 0 0 0 0 0 0 0 0 0 0 0 0 0 0 0 0 0 0 0 0 0 0 0 0 0 0 0 0 0 0 0 0 0 0 0 0 0
0.213503 1.6563e-08 6.26954e-09 1.02935e-08 0.621473 0.00342932 0 0 0 0 0 0 0 0 0 0 0 0 0 0 0 0 0 0 0 0 0 0 0 0 0 0 0 0 0 0 0 0 0 0 0 0 0 0 0 0 0 0
0.224463 1.70196e-08 6.15232e-09 1.08673e-08 0.638515 0.00254317 0 0 0 0 0 0 0 0 0 0 0 0 0 0 0 0 0 0 0 0 0 0 0 0 0 0 0 0 0 0 0 0 0 0 0 0 0 0 0 0 0 0
0.235984 1.73727e-08 6.13703e-09 1.12356e-08 0.646742 0.00182186 0 0 0 0 0 0 0 0 0 0 0 0 0 0 0 0 0 0 0 0 0 0 0 0 0 0 0 0 0 0 0 0 0 0 0 0 0 0 0 0 0 0
0.248097 1.75382e-08 6.15159e-09 1.13866e-08 0.649247 0.00138916 0 0 0 0 0 0 0 0 0 0 0 0 0 0 0 0 0 0 0 0 0 0 0 0 0 0 0 0 0 0 0 0 0 0 0 0 0 0 0 0 0 0
0.260832 1.74956e-08 6.19017e-09 1.13055e-08 0.646188 0.00141961 0 0 0 0 0 0 0 0 0 0 0 0 0 0 0 0 0 0 0 0 0 0 0 0 0 0 0 0 0 0 0 0 0 0 0 0 0 0 0 0 0 0
0.274221 1.73267e-08 6.30377e-09 1.1023e-08 0.636182 0.00187131 0 0 0 0 0 0 0 0 0 0 0 0 0 0 0 0 0 0 0 0 0 0 0 0 0 0 0 0 0 0 0 0 0 0 0 0 0 0 0 0 0 0
0.288297 1.71696e-08 6.51855e-09 1.0651e-08 0.620343 0.00251556 0 0 0 0 0 0 0 0 0 0 0 0 0 0 0 0 0 0 0 0 0 0 0 0 0 0 0 0 0 0 0 0 0 0 0 0 0 0 0 0 0 0
0.303095 1.71046e-08 6.78715e-09 1.03175e-08 0.603198 0.0028362 0 0 0 0 0 0 0 0 0 0 0 0 0 0 0 0 0 0 0 0 0 0 0 0 0 0 0 0 0 0 0 0 0 0 0 0 0 0 0 0 0 0
0.318653 1.71209e-08 7.04574e-09 1.00752e-08 0.588471 0.00297223 0 0 0 0 0 0 0 0 0 0 0 0 0 0 0 0 0 0 0 0 0 0 0 0 0 0 0 0 0 0 0 0 0 0 0 0 0 0 0 0 0 0
0.335009 1.71833e-08 7.26527e-09 9.918e-09 0.577189 0.00293231 0 0 0 0 0 0 0 0 0 0 0 0 0 0 0 0 0 0 0 0 0 0 0 0 0 0 0 0 0 0 0 0 0 0 0 0 0 0 0 0 0 0
0.352205 1.72698e-08 7.44066e-09 9.82916e-09 0.569152 0.00278811 0 0 0 0 0 0 0 0 0 0 0 0 0 0 0 0 0 0 0 0 0 0 0 0 0 0 0 0 0 0 0 0 0 0 0 0 0 0 0 0 0 0
0.370284 1.73682e-08 7.57743e-09 9.79082e-09 0.56372 0.00261033 0 0 0 0 0 0 0 0 0 0 0 0 0 0 0 0 0 0 0 0 0 0 0 0 0 0 0 0 0 0 0 0 0 0 0 0 0 0 0 0 0 0
0.389291 1.74721e-08 7.68348e-09 9.78858e-09 0.560242 0.00243645 0 0 0 0 0 0 0 0 0 0 0 0 0 0 0 0 0 0 0 0 0 0 0 0 0 0 0 0 0 0 0 0 0 0 0 0 0 0 0 0 0 0
0.409273 1.75786e-08 7.77087e-09 9.80773e-09 0.557936 0.00226652 0 0 0 0 0 0 0 0 0 0 0 0 0 0 0 0 0 0 0 0 0 0 0 0 0 0 0 0 0 0 0 0 0 0 0 0 0 0 0 0 0 0
0.430281 1.76844e-08 7.84776e-09 9.83664e-09 0.556232 0.00210471 0 0 0 0 0 0 0 0 0 0 0 0 0 0 0 0 0 0 0 0 0 0 0 0 0 0 0 0 0 0 0 0 0 0 0 0 0 0 0 0 0 0
0.452368 1.77911e-08 7.92314e-09 9.86793e-09 0.554656 0.00193723 0 0 0 0 0 0 0 0 0 0 0 0 0 0 0 0 0 0 0 0 0 0 0 0 0 0 0 0 0 0 0 0 0 0 0 0 0 0 0 0 0 0
0.475588 1.7898e-08 8.00106e-09 9.89698e-09 0.552964 0.00177642 0 0 0 0 0 0 0 0 0 0 0 0 0 0 0 0 0 0 0 0 0 0 0 0 0 0 0 0 0 0 0 0 0 0 0 0 0 0 0 0 0 0
0.5 1.80048e-08 8.08138e-09 9.92339e-09 0.551154 0.00162159 0 0 0 0 0 0 0 0 0 0 0 0 0 0 0 0 0 0 0 0 0 0 0 0 0 0 0 0 0 0 0 0 0 0 0 0 0 0 0 0 0 0
0.525665 1.81168e-08 8.16803e-09 9.94875e-09 0.549146 0.0014751 0 0 0 0 0 0 0 0 0 0 0 0 0 0 0 0 0 0 0 0 0 0 0 0 0 0 0 0 0 0 0 0 0 0 0 0 0 0 0 0 0 0
0.552648 1.82319e-08 8.25902e-09 9.97292e-09 0.547003 0.00134175 0 0 0 0 0 0 0 0 0 0 0 0 0 0 0 0 0 0 0 0 0 0 0 0 0 0 0 0 0 0 0 0 0 0 0 0 0 0 0 0 0 0
0.581015 1.83478e-08 8.34827e-09 9.99949e-09 0.544998 0.00121775 0 0 0 0 0 0 0 0 0 0 0 0 0 0 0 0 0 0 0 0 0 0 0 0 0 0 0 0 0 0 0 0 0 0 0 0 0 0 0 0 0 0
0.610839 1.84716e-08 8.43943e-09 1.00321e-08 0.543113 0.00110516 0 0 0 0 0 0 0 0 0 0 0 0 0 0 0 0 0 0 0 0 0 0 0 0 0 0 0 0 0 0 0 0 0 0 0 0 0 0 0 0 0 0
0.642193 1.8603e-08 8.53486e-09 1.00681e-08 0.541211 0.00100302 0 0 0 0 0 0 0 0 0 0 0 0 0 0 0 0 0 0 0 0 0 0 0 0 0 0 0 0 0 0 0 0 0 0 0 0 0 0 0 0 0 0
0.675157 1.87317e-08 8.62464e-09 1.0107e-08 0.539569 0.000910957 0 0 0 0 0 0 0 0 0 0 0 0 0 0 0 0 0 0 0 0 0 0 0 0 0 0 0 0 0 0 0 0 0 0 0 0 0 0 0 0 0 0
0.709813 1.88605e-08 8.70513e-09 1.01554e-08 0.538448 0.00082817 0 0 0 0 0 0 0 0 0 0 0 0 0 0 0 0 0 0 0 0 0 0 0 0 0 0 0 0 0 0 0 0 0 0 0 0 0 0 0 0 0 0
0.746248 1.89991e-08 8.78579e-09 1.02133e-08 0.537568 0.000754183 0 0 0 0 0 0 0 0 0 0 0 0 0 0 0 0 0 0 0 0 0 0 0 0 0 0 0 0 0 0 0 0 0 0 0 0 0 0 0 0 0 0
0.784553 1.91492e-08 8.87247e-09 1.02768e-08 0.536667 0.000686995 0 0 0 0 0 0 0 0 0 0 0 0 0 0 0 0 0 0 0 0 0 0 0 0 0 0 0 0 0 0 0 0 0 0 0 0 0 0 0 0 0 0
0.824824 1.92934e-08 8.95531e-09 1.03381e-08 0.535835 0.000626788 0 0 0 0 0 0 0 0 0 0 0 0 0 0 0 0 0 0 0 0 0 0 0 0 0 0 0 0 0 0 0 0 0 0 0 0 0 0 0 0 0 0
0.867162 1.94208e-08 9.0199e-09 1.04009e-08 0.535555 0.000572518 0 0 0 0 0 0 0 0 0 0 0 0 0 0 0 0 0 0 0 0 0 0 0 0 0 0 0 0 0 0 0 0 0 0 0 0 0 0 0 0 0 0
0.911674 1.95463e-08 9.07089e-09 1.04755e-08 0.535929 0.000523427 0 0 0 0 0 0 0 0 0 0 0 0 0 0 0 0 0 0 0 0 0 0 0 0 0 0 0 0 0 0 0 0 0 0 0 0 0 0 0 0 0 0
0.95847 1.9693e-08 9.12818e-09 1.05648e-08 0.536476 0.00047944 0 0 0 0 0 0 0 0 0 0 0 0 0 0 0 0 0 0 0 0 0 0 0 0 0 0 0 0 0 0 0 0 0 0 0 0 0 0 0 0 0 0
1.00767 1.98598e-08 9.20383e-09 1.0656e-08 0.536559 0.0004395 0 0 0 0 0 0 0 0 0 0 0 0 0 0 0 0 0 0 0 0 0 0 0 0 0 0 0 0 0 0 0 0 0 0 0 0 0 0 0 0 0 0
1.05939 2.00209e-08 9.28659e-09 1.07343e-08 0.536155 0.000403275 0 0 0 0 0 0 0 0 0 0 0 0 0 0 0 0 0 0 0 0 0 0 0 0 0 0 0 0 0 0 0 0 0 0 0 0 0 0 0 0 0 0
1.11377 2.01436e-08 9.3505e-09 1.07931e-08 0.535807 0.000370298 0 0 0 0 0 0 0 0 0 0 0 0 0 0 0 0 0 0 0 0 0 0 0 0 0 0 0 0 0 0 0 0 0 0 0 0 0 0 0 0 0 0
1.17094 2.0226e-08 9.38153e-09 1.08445e-08 0.536165 0.000339515 0 0 0 0 0 0 0 0 0 0 0 0 0 0 0 0 0 0 0 0 0 0 0 0 0 0 0 0 0 0 0 0 0 0 0 0 0 0 0 0 0 0
1.23105 2.02996e-08 9.38941e-09 1.09102e-08 0.537459 0.000311294 0 0 0 0 0 0 0 0 0 0 0 0 0 0 0 0 0 0 0 0 0 0 0 0 0 0 0 0 0 0 0 0 0 0 0 0 0 0 0 0 0 0
1.29424 2.04086e-08 9.40518e-09 1.10034e-08 0.539157 0.000285362 0 0 0 0 0 0 0 0 0 0 0 0 0 0 0 0 0 0 0 0 0 0 0 0 0 0 0 0 0 0 0 0 0 0 0 0 0 0 0 0 0 0
1.36067 2.05742e-08 9.4566e-09 1.11176e-08 0.540367 0.000261742 0 0 0 0 0 0 0 0 0 0 0 0 0 0 0 0 0 0 0 0 0 0 0 0 0 0 0 0 0 0 0 0 0 0 0 0 0 0 0 0 0 0
1.43051 2.07764e-08 9.54945e-09 1.12269e-08 0.540369 0.000240209 0 0 0 0 0 0 0 0 0 0 0 0 0 0 0 0 0 0 0 0 0 0 0 0 0 0 0 0 0 0 0 0 0 0 0 0 0 0 0 0 0 0
1.50394 2.09662e-08 9.66479e-09 1.13014e-08 0.53903 0.000220279 0 0 0 0 0 0 0 0 0 0 0 0 0 0 0 0 0 0 0 0 0 0 0 0 0 0 0 0 0 0 0 0 0 0 0 0 0 0 0 0 0 0
1.58114 2.10877e-08 9.76879e-09 1.13189e-08 0.536754 0.000201732 0 0 0 0 0 0 0 0 0 0 0 0 0 0 0 0 0 0 0 0 0 0 0 0 0 0 0 0 0 0 0 0 0 0 0 0 0 0 0 0 0 0
1.6623 2.11082e-08 9.82866e-09 1.12796e-08 0.534369 0.000184534 0 0 0 0 0 0 0 0 0 0 0 0 0 0 0 0 0 0 0 0 0 0 0 0 0 0 0 0 0 0 0 0 0 0 0 0 0 0 0 0 0 0
1.74763 2.10368e-08 9.83047e-09 1.12063e-08 0.532701 0.000169005 0 0 0 0 0 0 0 0 0 0 0 0 0 0 0 0 0 0 0 0 0 0 0 0 0 0 0 0 0 0 0 0 0 0 0 0 0 0 0 0 0 0
1.83733 2.09186e-08 9.78332e-09 1.11353e-08 0.532315 0.000154804 0 0 0 0 0 0 0 0 0 0 0 0 0 0 0 0 0 0 0 0 0 0 0 0 0 0 0 0 0 0 0 0 0 0 0 0 0 0 0 0 0 0
1.93164 2.0823e-08 9.71894e-09 1.1104e-08 0.533258 0.000141793 0 0 0 0 0 0 0 0 0 0 0 0 0 0 0 0 0 0 0 0 0 0 0 0 0 0 0 0 0 0 0 0 0 0 0 0 0 0 0 0 0 0
2.03079 2.08123e-08 9.67561e-09 1.11367e-08 0.535102 0.000129725 0 0 0 0 0 0 0 0 0 0 0 0 0 0 0 0 0 0 0 0 0 0 0 0 0 0 0 0 0 0 0 0 0 0 0 0 0 0 0 0 0 0
2.13503 2.09247e-08 9.68702e-09 1.12377e-08 0.537054 0.000118657 0 0 0 0 0 0 0 0 0 0 0 0 0 0 0 0 0 0 0 0 0 0 0 0 0 0 0 0 0 0 0 0 0 0 0 0 0 0 0 0 0 0
2.24463 2.11616e-08 9.77065e-09 1.1391e-08 0.538284 0.000108569 0 0 0 0 0 0 0 0 0 0 0 0 0 0 0 0 0 0 0 0 0 0 0 0 0 0 0 0 0 0 0 0 0 0 0 0 0 0 0 0 0 0
2.35984 2.15013e-08 9.93061e-09 1.15707e-08 0.53814 9.92926e-05 0 0 0 0 0 0 0 0 0 0 0 0 0 0 0 0 0 0 0 0 0 0 0 0 0 0 0 0 0 0 0 0 0 0 0 0 0 0 0 0 0 0
2.48097 2.18983e-08 1.01554e-08 1.17429e-08 0.536247 9.07218e-05 0 0 0 0 0 0 0 0 0 0 0 0 0 0 0 0 0 0 0 0 0 0 0 0 0 0 0 0 0 0 0 0 0 0 0 0 0 0 0 0 0 0
2.60832 2.22934e-08 1.04216e-08 1.18718e-08 0.532524 8.27967e-05 0 0 0 0 0 0 0 0 0 0 0 0 0 0 0 0 0 0 0 0 0 0 0 0 0 0 0 0 0 0 0 0 0 0 0 0 0 0 0 0 0 0
2.74221 2.26165e-08 1.06994e-08 1.19171e-08 0.526921 7.55862e-05 0 0 0 0 0 0 0 0 0 0 0 0 0 0 0 0 0 0 0 0 0 0 0 0 0 0 0 0 0 0 0 0 0 0 0 0 0 0 0 0 0 0
2.88297 2.27955e-08 1.0951e-08 1.18446e-08 0.5196 6.90729e-05 0 0 0 0 0 0 0 0 0 0 0 0 0 0 0 0 0 0 0 0 0 0 0 0 0 0 0 0 0 0 0 0 0 0 0 0 0 0 0 0 0 0
3.03095 2.27525e-08 1.11356e-08 1.16169e-08 0.510576 6.31538e-05 0 0 0 0 0 0 0 0 0 0 0 0 0 0 0 0 0 0 0 0 0 0 0 0 0 0 0 0 0 0 0 0 0 0 0 0 0 0 0 0 0 0
3.18653 2.24183e-08 1.12154e-08 1.12029e-08 0.499721 5.76567e-05 0 0 0 0 0 0 0 0 0 0 0 0 0 0 0 0 0 0 0 0 0 0 0 0 0 0 0 0 0 0 0 0 0 0 0 0 0 0 0 0 0 0
3.35009 2.1757e-08 1.11678e-08 1.05892e-08 0.486702 5.2603e-05 0 0 0 0 0 0 0 0 0 0 0 0 0 0 0 0 0 0 0 0 0 0 0 0 0 0 0 0 0 0 0 0 0 0 0 0 0 0 0 0 0 0
3.52205 2.07675e-08 1.0988e-08 9.77953e-09 0.470905 4.80102e-05 0 0 0 0 0 0 0 0 0 0 0 0 0 0 0 0 0 0 0 0 0 0 0 0 0 0 0 0 0 0 0 0 0 0 0 0 0 0 0 0 0 0
3.70284 1.95095e-08 1.06991e-08 8.81034e-09 0.451593 4.38066e-05 0 0 0 0 0 0 0 0 0 0 0 0 0 0 0 0 0 0 0 0 0 0 0 0 0 0 0 0 0 0 0 0 0 0 0 0 0 0 0 0 0 0
3.89291 1.80876e-08 1.03444e-08 7.74325e-09 0.428097 3.9926e-05 0 0 0 0 0 0 0 0 0 0 0 0 0 0 0 0 0 0 0 0 0 0 0 0 0 0 0 0 0 0 0 0 0 0 0 0 0 0 0 0 0 0
4.09273 1.66148e-08 9.96556e-09 6.64926e-09 0.4002 3.62643e-05 0 0 0 0 0 0 0 0 0 0 0 0 0 0 0 0 0 0 0 0 0 0 0 0 0 0 0 0 0 0 0 0 0 0 0 0 0 0 0 0 0 0
4.30281 1.51898e-08 9.59214e-09 5.5977e-09 0.368516 3.29535e-05 0 0 0 0 0 0 0 0 0 0 0 0 0 0 0 0 0 0 0 0 0 0 0 0 0 0 0 0 0 0 0 0 0 0 0 0 0 0 0 0 0 0
4.52368 1.38554e-08 9.2192e-09 4.63622e-09 0.334614 2.99416e-05 0 0 0 0 0 0 0 0 0 0 0 0 0 0 0 0 0 0 0 0 0 0 0 0 0 0 0 0 0 0 0 0 0 0 0 0 0 0 0 0 0 0
4.75588 1.25993e-08 8.80972e-09 3.78958e-09 0.300777 2.71796e-05 0 0 0 0 0 0 0 0 0 0 0 0 0 0 0 0 0 0 0 0 0 0 0 0 0 0 0 0 0 0 0 0 0 0 0 0 0 0 0 0 0 0
5 1.13782e-08 8.31346e-09 3.06472e-09 0.269351 2.45398e-05 0 0 0 0 0 0 0 0 0 0 0 0 0 0 0 0 0 0 0 0 0 0 0 0 0 0 0 0 0 0 0 0 0 0 0 0 0 0 0 0 0 0
5.25665 1.01471e-08 7.68971e-09 2.45741e-09 0.242178 2.21678e-05 0 0 0 0 0 0 0 0 0 0 0 0 0 0 0 0 0 0 0 0 0 0 0 0 0 0 0 0 0 0 0 0 0 0 1.4013e-45 0 2.8026e-45 0 7.00649e-45 0 2.10195e-44 0
5.52648 8.89524e-09 6.93789e-09 1.95735e-09 0.220044 2.00489e-05 0 0 0 0 0 0 0 0 0 0 0 0 0 0 0 0 0 0 0 0 0 0 0 0 0 0 1.4013e-45 0 2.8026e-45 0 1.26117e-44 0 4.2039e-44 0 1.30321e-43 0 3.93765e-43 0 1.10703e-42 0 2.83763e-42 0
5.81015 7.65245e-09 6.10015e-09 1.55231e-09 0.202851 1.8115e-05 0 0 0 0 0 0 0 0 0 0 0 0 0 0 0 0 0 0 0 0 0 0 4.2039e-45 0 2.52234e-44 0 1.14906e-43 0 4.55422e-43 0 1.66194e-42 0 5.34035e-42 0 1.59538e-41 0 4.5503e-41 0 1.21408e-40 0 2.97353e-40 0
6.10839 6.47823e-09 5.24907e-09 1.22916e-09 0.189737 1.63023e-05 0 0 0 0 0 0 0 0 0 0 0 0 0 0 0 0 1.4013e-45 0 1.4013e-44 0 1.05097e-43 0 6.24979e-43 0 3.16413e-42 0 1.34791e-41 0 5.00894e-41 0 1.71731e-40 0 5.21373e-40 0 1.47646e-39 0 4.00113e-39 0 1.01761e-38 0 2.38567e-38 0
6.42193 5.34543e-09 4.37607e-09 9.69361e-10 0.181344 1.48144e-05 0 0 0 0 0 0 0 0 0 0 0 0 1.4013e-45 0 1.68156e-44 0 2.01787e-43 0 1.78806e-42 0 1.18143e-41 0 6.43757e-41 0 3.01133e-40 0 1.19499e-39 0 4.16506e-39 0 1.34462e-38 0 3.8668e-38 0 1.04077e-37 0 2.68643e-37 0 6.52801e-37 0 1.46806e-36 0
6.75157 4.43647e-09 3.66715e-09 7.69327e-10 0.17341 1.32279e-05 0 0 0 0 0 0 0 0 0 0 4.2039e-45 0 1.20512e-43 0 2.03609e-42 0 2.15884e-41 0 1.72189e-40 0 1.03746e-39 0 5.20417e-39 0 2.25775e-38 0 8.37639e-38 0 2.74687e-37 0 8.37463e-37 0 2.28728e-36 0 5.8658e-36 0 1.44558e-35 0 3.36373e-35 0 7.27109e-35 0
7.09813 3.65286e-09 3.04138e-09 6.11474e-10 0.167396 1.18448e-05 0 0 0 0 0 0 0 0 8.40779e-45 0 5.08671e-43 0 1.28331e-41 0 1.8886e-40 0 1.78433e-39 0 1.28593e-38 0 7.09751e-38 0 3.29071e-37 0 1.32892e-36 0 4.62465e-36 0 1.43112e-35 0 4.13207e-35 0 1.07453e-34 0 2.63182e-34 0 6.20648e-34 0 1.38585e-33 0 2.88503e-33 0
7.46248 3.00662e-09 2.51922e-09 4.87406e-10 0.162111 1.05694e-05 0 0 0 0 0 0 5.60519e-45 0 9.54284e-43 0 4.93509e-41 0 1.06361e-39 0 1.37268e-38 0 1.16222e-37 0 7.60591e-37 0 3.86205e-36 0 1.6614e-35 0 6.26738e-35 0 2.05222e-34 0 6.00994e-34 0 1.6477e-33 0 4.08943e-33 0 9.58753e-33 0 2.16823e-32 0 4.65525e-32 0 9.35038e-32 0
7.84553 2.48192e-09 2.0922e-09 3.89721e-10 0.157024 9.34187e-06 0 0 0 0 0 0 5.95552e-43 0 8.8094e-41 0 3.75859e-39 0 6.9728e-38 0 7.94262e-37 0 6.05878e-36 0 3.61756e-35 0 1.69679e-34 0 6.79749e-34 0 2.40329e-33 0 7.42667e-33 0 2.06375e-32 0 5.38615e-32 0 1.27876e-31 0 2.87585e-31 0 6.24972e-31 0 1.2927e-30 0 2.50955e-30 0
8.24824 2.0585e-09 1.74602e-09 3.12484e-10 0.151802 8.19911e-06 0 0 0 0 4.48416e-44 0 5.54115e-41 0 6.41585e-39 0 2.27902e-37 0 3.66609e-36 0 3.70829e-35 0 2.56161e-34 0 1.4017e-33 0 6.09671e-33 0 2.28238e-32 0 7.58696e-32 0 2.21887e-31 0 5.86575e-31 0 1.46085e-30 0 3.32492e-30 0 7.18741e-30 0 1.50387e-29 0 3.00217e-29 0 5.64244e-29 0
8.67162 1.71771e-09 1.4665e-09 2.51207e-10 0.146246 7.20916e-06 0 0 0 0 4.70556e-42 0 4.06799e-39 0 3.73494e-37 0 1.11449e-35 0 1.5654e-34 0 1.41426e-33 0 8.88974e-33 0 4.47705e-32 0 1.81243e-31 0 6.36156e-31 0 1.99422e-30 0 5.53456e-30 0 1.39528e-29 0 3.32349e-29 0 7.2666e-29 0 1.51278e-28 0 3.05323e-28 0 5.89287e-28 0 1.07394e-27 0
9.11674 1.44327e-09 1.24086e-09 2.0241e-10 0.140244 6.32492e-06 0 0 2.8026e-45 0 3.84537e-40 0 2.3893e-37 0 1.75929e-35 0 4.44759e-34 0 5.49095e-33 0 4.45534e-32 0 2.56012e-31 0 1.19147e-30 0 4.5051e-30 0 1.48724e-29 0 4.40925e-29 0 1.16421e-28 0 2.80544e-28 0 6.40518e-28 0 1.34797e-27 0 2.70757e-27 0 5.28045e-27 0 9.86952e-27 0 1.74672e-26 0
9.5847 1.22127e-09 1.05786e-09 1.6341e-10 0.133804 5.52644e-06 0 0 2.74654e-43 0 2.50185e-38 0 1.13556e-35 0 6.7783e-34 0 1.46358e-32 0 1.59826e-31 0 1.17082e-30 0 6.1772e-30 0 2.66692e-29 0 9.44992e-29 0 2.94295e-28 0 8.27411e-28 0 2.08353e-27 0 4.80973e-27 0 1.05474e-26 0 2.14051e-26 0 4.15554e-26 0 7.84432e-26 0 1.42206e-25 0 2.4476e-25 0
10.0767 1.04122e-09 9.0905e-10 1.32167e-10 0.126935 4.78203e-06 0 0 2.51477e-41 0 1.31164e-36 0 4.41615e-34 0 2.15896e-32 0 4.01233e-31 0 3.89885e-30 0 2.5915e-29 0 1.26064e-28 0 5.06749e-28 0 1.68806e-27 0 4.9734e-27 0 1.32945e-26 0 3.20014e-26 0 7.09173e-26 0 1.49667e-25 0 2.93421e-25 0 5.51486e-25 0 1.00923e-24 0 1.77721e-24 0 2.97884e-24 0
10.5939 8.93937e-10 7.86924e-10 1.07013e-10 0.11971 4.06995e-06 1.82169e-44 0 1.82427e-39 0 5.59856e-35 0 1.41878e-32 0 5.73644e-31 0 9.24334e-30 0 8.03809e-29 0 4.87086e-28 0 2.1933e-27 0 8.23764e-27 0 2.58751e-26 0 7.23164e-26 0 1.8425e-25 0 4.24891e-25 0 9.05706e-25 0 1.843e-24 0 3.49636e-24 0 6.37204e-24 0 1.13219e-23 0 1.93942e-23 0 3.16977e-23 0
11.1377 7.719e-10 6.85249e-10 8.66511e-11 0.112257 3.40803e-06 1.79086e-42 0 1.05933e-37 0 1.96311e-33 0 3.7968e-31 0 1.28144e-29 0 1.80279e-28 0 1.41062e-27 0 7.82814e-27 0 3.27526e-26 0 1.15316e-25 0 3.42531e-25 0 9.10463e-25 0 2.21617e-24 0 4.90631e-24 0 1.0079e-23 0 1.98102e-23 0 3.64253e-23 0 6.44673e-23 0 1.11376e-22 0 1.85836e-22 0 2.96531e-22 0
11.7094 6.88418e-10 6.17281e-10 7.11372e-11 0.103334 2.82232e-06 1.47983e-40 0 5.12067e-36 0 5.87307e-32 0 8.78424e-30 0 2.49671e-28 0 3.08712e-27 0 2.18471e-26 0 1.11508e-25 0 4.35056e-25 0 1.44046e-24 0 4.05719e-24 0 1.02816e-23 0 2.39627e-23 0 5.10313e-23 0 1.01212e-22 0 1.92476e-22 0 3.43539e-22 0 5.913e-22 0 9.94644e-22 0 1.61864e-21 0 2.52453e-21 0
