# 5.38285e-07 3 26 : grain size, compostion index, size index
# This grain was stochastically heated: Yes
# Heating and cooling timescale: 4900.93 281.264
# Ratio of heating to cooling to determine stochastic cutoff: 100
# Equilibrium emission is recorded even for those grains in the stochastic regime.
# Emission spectrum was computed for: 
# Type: IRSF
# Scale: 1
# Temperature: -1
# Wavelength  CExt  CAbs  CSca  Albedo G EqEmission StEmission
0.05 5.70438e-13 5.19129e-13 5.13089e-14 0.0899465 0.0711823 0 0
0.0525665 6.54588e-13 5.99001e-13 5.5587e-14 0.0849191 0.0635296 0 0
0.0552647 7.50253e-13 6.90149e-13 6.01042e-14 0.0801118 0.0566165 0 0
0.0581015 9.51154e-13 8.87305e-13 6.38489e-14 0.0671278 0.0503422 0 0
0.0610839 1.39641e-12 1.32776e-12 6.86499e-14 0.0491618 0.0443595 0 0
0.0642193 1.73879e-12 1.66074e-12 7.80501e-14 0.0448876 0.0385228 0 0
0.0675157 2.09107e-12 1.99595e-12 9.51194e-14 0.0454883 0.0325931 0 0
0.0709813 2.40843e-12 2.30224e-12 1.06183e-13 0.0440881 0.0270454 0 0
0.0746248 2.28641e-12 2.18389e-12 1.02521e-13 0.0448391 0.0228026 0 0
0.0784553 1.84844e-12 1.76129e-12 8.71562e-14 0.0471511 0.0198985 0 0
0.0824824 1.47857e-12 1.41347e-12 6.50979e-14 0.0440276 0.0181157 0 0
0.0867162 1.24673e-12 1.19587e-12 5.08573e-14 0.0407925 0.0169703 0 0
0.0911674 1.09234e-12 1.04907e-12 4.32785e-14 0.0396198 0.0160867 0 0
0.095847 9.57431e-13 9.22141e-13 3.52901e-14 0.0368592 0.0165701 0 0
0.100767 8.05612e-13 7.81208e-13 2.44042e-14 0.0302927 0.0192191 0 0
0.105939 6.73949e-13 6.56974e-13 1.69751e-14 0.0251875 0.0208819 0 0
0.111377 5.54943e-13 5.4466e-13 1.02825e-14 0.0185289 0.0238104 0 0
0.117094 4.62779e-13 4.56467e-13 6.31248e-15 0.0136404 0.0222983 0 0
0.123105 3.85135e-13 3.81063e-13 4.07185e-15 0.0105725 0.0192004 0 0
0.129424 3.22667e-13 3.2007e-13 2.59754e-15 0.00805021 0.016154 0 0
0.136067 2.92521e-13 2.90848e-13 1.67271e-15 0.00571825 0.0136754 0 0
0.143051 2.67427e-13 2.66333e-13 1.09382e-15 0.00409018 0.0116764 0 0
0.150394 2.56387e-13 2.55645e-13 7.41928e-16 0.00289378 0.00997863 0 0
0.158114 2.58317e-13 2.57758e-13 5.58156e-16 0.00216074 0.00855517 0 0
0.16623 2.743e-13 2.73788e-13 5.12138e-16 0.00186707 0.00736418 0 0
0.174762 3.07778e-13 3.07166e-13 6.11849e-16 0.00198795 0.0063405 0 0
0.183733 3.63976e-13 3.63109e-13 8.67107e-16 0.00238232 0.00540751 0 0
0.193164 4.59798e-13 4.58424e-13 1.37358e-15 0.00298736 0.00450494 0 0
0.203079 6.04387e-13 6.02273e-13 2.11419e-15 0.00349807 0.00361328 0 0
0.213503 7.29879e-13 7.27231e-13 2.64772e-15 0.00362762 0.00277825 0 2.54995e-316
0.224463 6.78771e-13 6.76532e-13 2.23899e-15 0.00329859 0.00205975 0 1.63769e-301
0.235984 5.16135e-13 5.14613e-13 1.52236e-15 0.00294953 0.00147429 0 1.59899e-287
0.248097 3.87059e-13 3.86077e-13 9.81305e-16 0.00253529 0.00112499 0 3.12443e-274
0.260832 3.09611e-13 3.0894e-13 6.70975e-16 0.00216715 0.00115224 0 1.42837e-261
0.274221 2.6275e-13 2.62268e-13 4.82309e-16 0.00183562 0.00152352 0 1.63641e-249
0.288297 2.33417e-13 2.33058e-13 3.58573e-16 0.00153619 0.00205025 0 4.97492e-238
0.303095 2.11056e-13 2.1078e-13 2.75824e-16 0.00130687 0.0023089 0 4.1727e-227
0.318653 1.85037e-13 1.84823e-13 2.1447e-16 0.00115906 0.0024177 0 9.8046e-217
0.335009 1.63276e-13 1.63107e-13 1.68733e-16 0.00103342 0.00238363 0 7.11873e-207
0.352205 1.43551e-13 1.43417e-13 1.34415e-16 0.000936354 0.00226552 0 1.67518e-197
0.370284 1.25615e-13 1.25507e-13 1.0804e-16 0.00086009 0.00212045 0 1.34824e-188
0.389291 1.09258e-13 1.09171e-13 8.75186e-17 0.000801023 0.00197865 0 3.90557e-180
0.409273 9.44522e-14 9.4381e-14 7.1113e-17 0.0007529 0.00184049 0 4.27909e-172
0.430281 8.11108e-14 8.1053e-14 5.78436e-17 0.000713143 0.00170893 0 1.85822e-164
0.452368 6.92768e-14 6.92298e-14 4.70458e-17 0.000679098 0.00157263 0 3.34982e-157
0.475588 5.88201e-14 5.87818e-14 3.82909e-17 0.000650982 0.00144187 0 2.61524e-150
0.5 4.97251e-14 4.96939e-14 3.12487e-17 0.000628429 0.00131626 0 9.22482e-144
0.525665 4.18443e-14 4.18188e-14 2.55301e-17 0.000610121 0.00119737 0 1.52803e-137
0.552647 3.50226e-14 3.50017e-14 2.08663e-17 0.000595797 0.00108902 0 1.23225e-131
0.581015 2.92458e-14 2.92287e-14 1.71383e-17 0.000586009 0.000988236 0 5.02738e-126
0.610839 2.43355e-14 2.43214e-14 1.40808e-17 0.000578611 0.000896928 0 1.07168e-120
0.642193 2.01858e-14 2.01742e-14 1.15671e-17 0.000573031 0.000814075 0 1.23283e-115
0.675157 1.67189e-14 1.67093e-14 9.51319e-18 0.000569009 0.000739217 0 7.90384e-111
0.709813 1.38559e-14 1.38481e-14 7.83743e-18 0.000565637 0.000672057 1.91469e-294 2.91345e-106
0.746248 1.14936e-14 1.14872e-14 6.45807e-18 0.000561883 0.000612046 3.37725e-280 6.35084e-102
0.784553 9.54623e-15 9.54091e-15 5.31991e-18 0.000557279 0.000557539 1.17675e-266 8.40923e-98
0.824824 7.93941e-15 7.93503e-15 4.38141e-18 0.000551856 0.000508618 8.76865e-254 6.93837e-94
0.867162 6.6125e-15 6.60889e-15 3.60985e-18 0.000545913 0.000464595 1.50705e-241 3.65563e-90
0.911674 5.57539e-15 5.57242e-15 2.97261e-18 0.000533166 0.000424768 6.48763e-230 1.27267e-86
0.95847 4.73561e-15 4.73317e-15 2.44585e-18 0.00051648 0.000389071 7.45277e-219 2.97933e-83
1.00767 3.99071e-15 3.98869e-15 2.0126e-18 0.000504321 0.000356655 2.40068e-208 4.71931e-80
1.05939 3.42236e-15 3.42071e-15 1.65541e-18 0.000483703 0.00032725 2.36586e-198 5.29657e-77
1.11377 3.04179e-15 3.04043e-15 1.3612e-18 0.0004475 0.000300479 7.70317e-189 4.37483e-74
1.17094 2.72651e-15 2.7254e-15 1.11881e-18 0.000410343 0.000275484 8.52657e-180 2.63698e-71
1.23105 2.44183e-15 2.44091e-15 9.20005e-19 0.000376769 0.0002526 3.3522e-171 1.1699e-68
1.29424 2.20962e-15 2.20886e-15 7.56774e-19 0.000342491 0.000231546 4.97852e-163 3.92904e-66
1.36067 2.01179e-15 2.01116e-15 6.22147e-19 0.000309251 0.000212366 2.91825e-155 1.01061e-63
1.43051 1.83549e-15 1.83498e-15 5.11234e-19 0.000278527 0.000194891 7.03874e-148 2.01263e-61
1.50394 1.67887e-15 1.67845e-15 4.20249e-19 0.000250316 0.000178738 7.29929e-141 3.14843e-59
1.58114 1.5388e-15 1.53846e-15 3.45464e-19 0.000224502 0.000163677 3.39013e-134 3.91852e-57
1.6623 1.41216e-15 1.41187e-15 2.84016e-19 0.000201122 0.000149706 7.32876e-128 3.9262e-55
1.74762 1.2959e-15 1.29567e-15 2.33525e-19 0.000180202 0.000137116 7.64579e-122 3.20176e-53
1.83733 1.19083e-15 1.19064e-15 1.91989e-19 0.000161223 0.000125608 3.99406e-116 2.15316e-51
1.93164 1.09543e-15 1.09527e-15 1.57782e-19 0.000144036 0.000115042 1.08044e-110 1.20739e-49
2.03079 1.00956e-15 1.00943e-15 1.2964e-19 0.000128413 0.000105235 1.56422e-105 5.71108e-48
2.13503 9.31078e-16 9.30972e-16 1.06601e-19 0.000114492 9.62656e-05 1.24831e-100 2.29861e-46
2.24463 8.59006e-16 8.58919e-16 8.76162e-20 0.000101997 8.80911e-05 5.65089e-96 7.93716e-45
2.35984 7.93837e-16 7.93765e-16 7.19855e-20 9.06804e-05 8.05554e-05 1.49384e-91 2.37155e-43
2.48097 7.34451e-16 7.34392e-16 5.9133e-20 8.05132e-05 7.3595e-05 2.36651e-87 6.16418e-42
2.60832 6.79675e-16 6.79626e-16 4.86161e-20 7.15285e-05 6.71725e-05 2.30146e-83 1.39904e-40
2.74221 6.28675e-16 6.28635e-16 3.99562e-20 6.35562e-05 6.13271e-05 1.40616e-79 2.78153e-39
2.88297 5.82089e-16 5.82057e-16 3.28135e-20 5.6372e-05 5.60378e-05 5.52958e-76 4.8691e-38
3.03095 5.39527e-16 5.395e-16 2.69524e-20 4.99556e-05 5.12342e-05 1.43008e-72 7.5322e-37
3.18653 5.08444e-16 5.08422e-16 2.2142e-20 4.35485e-05 4.67773e-05 2.52171e-69 1.0499e-35
3.35009 5.19897e-16 5.19879e-16 1.81841e-20 3.49764e-05 4.26792e-05 3.29929e-66 1.41335e-34
3.52205 4.30601e-16 4.30586e-16 1.49267e-20 3.46648e-05 3.89501e-05 2.43565e-63 1.37822e-33
3.70284 3.97972e-16 3.97959e-16 1.2258e-20 3.08013e-05 3.55406e-05 1.42262e-60 1.3481e-32
3.89291 3.69774e-16 3.69764e-16 1.00629e-20 2.72135e-05 3.23934e-05 6.02318e-58 1.1981e-31
4.09273 3.44618e-16 3.4461e-16 8.25969e-21 2.39677e-05 2.94228e-05 1.87398e-55 9.70515e-31
4.30281 3.22042e-16 3.22035e-16 6.77824e-21 2.10477e-05 2.67367e-05 4.34871e-53 7.20147e-30
4.52368 3.02585e-16 3.02579e-16 5.5642e-21 1.83889e-05 2.42926e-05 7.65732e-51 4.93277e-29
4.75588 2.87445e-16 2.8744e-16 4.56583e-21 1.58842e-05 2.20517e-05 1.04302e-48 3.15015e-28
5 2.82888e-16 2.82885e-16 3.74551e-21 1.32402e-05 1.99079e-05 1.14094e-46 1.92899e-27
5.25665 3.64926e-16 3.64923e-16 3.07327e-21 8.42162e-06 1.79856e-05 1.28404e-44 1.43734e-26
5.52648 3.23375e-16 3.23373e-16 2.52153e-21 7.79753e-06 1.62658e-05 7.88359e-43 6.84512e-26
5.81015 4.02165e-16 4.02163e-16 2.06752e-21 5.14097e-06 1.46958e-05 5.45643e-41 4.26457e-25
6.10839 9.23172e-16 9.23171e-16 1.6948e-21 1.83585e-06 1.3224e-05 5.65887e-39 4.57762e-24
6.42193 6.52445e-16 6.52443e-16 1.38928e-21 2.12934e-06 1.20193e-05 1.48198e-37 1.41399e-23
6.75157 5.52326e-16 5.52325e-16 1.13898e-21 2.06215e-06 1.07313e-05 3.84964e-36 4.89598e-23
7.09813 6.09208e-16 6.09207e-16 9.33254e-22 1.53192e-06 9.60844e-06 1.08901e-34 2.06993e-22
7.46248 1.29012e-15 1.29012e-15 7.64457e-22 5.92546e-07 8.57447e-06 4.98678e-33 1.57692e-21
7.84553 1.60407e-15 1.60407e-15 6.26422e-22 3.9052e-07 7.57906e-06 1.1399e-31 6.63071e-21
8.24824 7.7667e-16 7.76669e-16 5.13139e-22 6.60692e-07 6.65156e-06 8.69514e-31 1.02252e-20
8.67162 6.39738e-16 6.39738e-16 4.20063e-22 6.56618e-07 5.84787e-06 9.74279e-30 2.53117e-20
9.11674 2.40783e-16 2.40782e-16 3.43868e-22 1.42813e-06 5.13015e-06 4.33791e-29 2.70693e-20
9.5847 1.71292e-16 1.71291e-16 2.81379e-22 1.64269e-06 4.48365e-06 3.19656e-28 5.18427e-20
10.0767 1.45107e-16 1.45106e-16 2.30145e-22 1.58604e-06 3.8797e-06 2.47193e-27 1.12257e-19
10.5939 1.38545e-16 1.38545e-16 1.88099e-22 1.35768e-06 3.30107e-06 1.91054e-26 2.60673e-19
11.1377 2.7712e-16 2.7712e-16 1.53618e-22 5.54336e-07 2.76473e-06 2.75929e-25 1.20916e-18
11.7094 1.77706e-16 1.77705e-16 1.26627e-22 7.12569e-07 2.28959e-06 1.14594e-24 1.71813e-18
12.3105 1.73245e-16 1.73244e-16 1.02961e-22 5.94309e-07 1.79031e-06 6.52441e-24 3.5538e-18
12.9424 1.51867e-16 1.51867e-16 8.40727e-23 5.53594e-07 1.30433e-06 3.02713e-23 6.34127e-18
13.6067 1.30285e-16 1.30285e-16 6.86514e-23 5.26931e-07 8.98806e-07 1.25174e-22 1.0645e-17
14.3051 1.12758e-16 1.12758e-16 5.6014e-23 4.96765e-07 5.4721e-07 4.777e-22 1.73622e-17
15.0394 1.02033e-16 1.02033e-16 4.56761e-23 4.4766e-07 2.30867e-07 1.75136e-21 2.85678e-17
15.8114 1.02696e-16 1.02696e-16 3.72452e-23 3.62674e-07 -6.57343e-08 6.58926e-21 5.05351e-17
16.623 1.19765e-16 1.19765e-16 3.03648e-23 2.53537e-07 -3.64268e-07 2.66072e-20 1.00284e-16
17.4762 1.12933e-16 1.12933e-16 2.47426e-23 2.1909e-07 -6.51438e-07 8.07666e-20 1.5604e-16
18.3733 9.87047e-17 9.87047e-17 2.01504e-23 2.04149e-07 -9.23284e-07 2.12029e-19 2.18563e-16
19.3164 9.7734e-17 9.7734e-17 1.64317e-23 1.68127e-07 -1.20044e-06 5.90363e-19 3.37328e-16
20.3079 9.94305e-17 9.94305e-17 1.34078e-23 1.34846e-07 -1.51499e-06 1.58629e-18 5.20997e-16
21.3503 1.04258e-16 1.04258e-16 1.09521e-23 1.05047e-07 -1.74504e-06 4.13867e-18 8.0879e-16
22.4463 1.12299e-16 1.12299e-16 8.97508e-24 7.99213e-08 -1.92832e-06 1.04804e-17 1.25935e-15
23.5984 1.23789e-16 1.23789e-16 7.39891e-24 5.97702e-08 -2.09619e-06 2.57338e-17 1.96169e-15
24.8097 1.38775e-16 1.38775e-16 6.15224e-24 4.43325e-08 -2.32588e-06 6.10468e-17 3.04119e-15
26.0832 1.57037e-16 1.57037e-16 5.18184e-24 3.29975e-08 -2.47824e-06 1.39214e-16 4.66198e-15
27.4221 1.77084e-16 1.77084e-16 4.42484e-24 2.49873e-08 -2.59916e-06 3.02012e-16 6.98305e-15
28.8297 1.95624e-16 1.95624e-16 3.84209e-24 1.96402e-08 -2.64677e-06 6.14115e-16 1.00564e-14
30.3095 2.10331e-16 2.10331e-16 3.37725e-24 1.60569e-08 -2.66742e-06 1.16539e-15 1.3845e-14
31.8653 2.13936e-16 2.13936e-16 2.96731e-24 1.38701e-08 -2.62346e-06 2.01019e-15 1.77257e-14
33.5009 2.08982e-16 2.08982e-16 2.60266e-24 1.2454e-08 -2.57578e-06 3.20581e-15 2.14407e-14
35.2206 1.91559e-16 1.91559e-16 2.22889e-24 1.16356e-08 -2.42949e-06 4.62712e-15 2.39566e-14
37.0284 1.69548e-16 1.69548e-16 1.88534e-24 1.11198e-08 -2.28425e-06 6.2308e-15 2.54609e-14
38.9291 1.45543e-16 1.45543e-16 1.56621e-24 1.07612e-08 -2.08673e-06 7.87561e-15 2.58679e-14
40.9273 1.2282e-16 1.2282e-16 1.28856e-24 1.04914e-08 -1.87608e-06 9.48616e-15 2.54805e-14
43.0282 1.02975e-16 1.02975e-16 1.05122e-24 1.02085e-08 -1.59625e-06 1.10213e-14 2.46068e-14
45.2368 8.60474e-17 8.60474e-17 8.54725e-25 9.93318e-09 -1.29376e-06 1.24078e-14 2.33821e-14
47.5588 7.23546e-17 7.23546e-17 6.93227e-25 9.58097e-09 -7.75408e-07 1.36853e-14 2.20843e-14
50 6.08514e-17 6.08514e-17 5.6234e-25 9.2412e-09 -2.78352e-07 1.47175e-14 2.06161e-14
52.5665 5.1565e-17 5.1565e-17 4.55892e-25 8.84113e-09 2.68544e-07 1.55661e-14 1.91711e-14
55.2648 4.39419e-17 4.39419e-17 3.69668e-25 8.41266e-09 7.63589e-07 1.61796e-14 1.77314e-14
58.1015 3.76708e-17 3.76708e-17 3.00165e-25 7.96811e-09 1.19359e-06 1.65521e-14 1.6324e-14
61.0839 3.24602e-17 3.24602e-17 2.43826e-25 7.51156e-09 1.54328e-06 1.66694e-14 1.49511e-14
64.2193 2.80955e-17 2.80955e-17 1.98144e-25 7.05253e-09 1.81437e-06 1.65325e-14 1.36196e-14
67.5157 2.44394e-17 2.44394e-17 1.61146e-25 6.59372e-09 1.99592e-06 1.6172e-14 1.235e-14
70.9813 2.13486e-17 2.13486e-17 1.31184e-25 6.14488e-09 2.10354e-06 1.56049e-14 1.11425e-14
74.6248 1.87173e-17 1.87173e-17 1.06824e-25 5.70722e-09 2.14571e-06 1.48591e-14 1.00002e-14
78.4553 1.64648e-17 1.64648e-17 8.70058e-26 5.28437e-09 2.12888e-06 1.39692e-14 8.92729e-15
82.4824 1.45322e-17 1.45322e-17 7.09282e-26 4.88076e-09 2.05405e-06 1.29774e-14 7.92974e-15
86.7162 1.28724e-17 1.28724e-17 5.78444e-26 4.49369e-09 1.90726e-06 1.19251e-14 7.01179e-15
91.1674 1.14348e-17 1.14348e-17 4.71786e-26 4.12586e-09 1.72568e-06 1.08399e-14 6.1693e-15
95.847 1.01849e-17 1.01849e-17 3.84836e-26 3.77851e-09 1.53206e-06 9.75203e-15 5.40123e-15
100.767 9.09941e-18 9.09941e-18 3.14196e-26 3.45292e-09 1.34258e-06 8.69275e-15 4.70849e-15
105.939 8.17575e-18 8.17575e-18 2.56497e-26 3.1373e-09 1.11963e-06 7.70233e-15 4.09848e-15
111.377 7.37745e-18 7.37745e-18 2.09368e-26 2.83794e-09 8.94278e-07 6.77916e-15 3.55813e-15
117.094 6.71568e-18 6.71568e-18 1.70971e-26 2.54584e-09 6.79305e-07 5.95695e-15 3.09534e-15
123.105 6.18594e-18 6.18594e-18 1.39729e-26 2.25881e-09 4.74696e-07 5.24503e-15 2.70708e-15
129.424 5.75384e-18 5.75384e-18 1.14297e-26 1.98645e-09 2.89866e-07 4.62055e-15 2.37569e-15
136.067 5.34603e-18 5.34603e-18 9.35684e-27 1.75024e-09 1.39471e-07 4.03067e-15 2.06988e-15
143.051 4.84812e-18 4.84812e-18 7.67101e-27 1.58227e-09 6.44418e-09 3.40382e-15 1.74984e-15
150.394 4.31447e-18 4.31447e-18 6.28712e-27 1.45722e-09 -1.02194e-07 2.79909e-15 1.44337e-15
158.114 3.78558e-18 3.78558e-18 5.14529e-27 1.35918e-09 -1.85404e-07 2.25301e-15 1.16734e-15
166.23 3.31719e-18 3.31719e-18 4.20813e-27 1.26858e-09 -2.70305e-07 1.79878e-15 9.37826e-16
174.763 2.91105e-18 2.91105e-18 3.44309e-27 1.18277e-09 -3.35866e-07 1.42906e-15 7.50653e-16
183.733 2.58168e-18 2.58168e-18 2.81577e-27 1.09067e-09 -3.91746e-07 1.14046e-15 6.04171e-16
193.164 2.29354e-18 2.29354e-18 2.30219e-27 1.00377e-09 -4.42902e-07 9.0658e-16 4.84771e-16
203.079 2.0449e-18 2.0449e-18 1.88269e-27 9.20672e-10 -4.64068e-07 7.19433e-16 3.8856e-16
213.503 1.83487e-18 1.83487e-18 1.54023e-27 8.39423e-10 -4.82651e-07 5.71714e-16 3.12035e-16
224.463 1.64558e-18 1.64558e-18 1.25981e-27 7.65571e-10 -5.01625e-07 4.51984e-16 2.49382e-16
235.984 1.47491e-18 1.47491e-18 1.03023e-27 6.98507e-10 -5.23574e-07 3.55547e-16 1.98364e-16
248.097 1.32134e-18 1.32134e-18 8.42947e-28 6.37947e-10 -5.32354e-07 2.78414e-16 1.57087e-16
260.832 1.19036e-18 1.19036e-18 6.8975e-28 5.79449e-10 -5.64202e-07 2.18386e-16 1.24618e-16
274.221 1.07243e-18 1.07243e-18 5.64264e-28 5.26156e-10 -5.36488e-07 1.70695e-16 9.85075e-17
288.297 9.65133e-19 9.65133e-19 4.61548e-28 4.78222e-10 -5.63748e-07 1.32823e-16 7.75127e-17
303.095 8.68829e-19 8.68829e-19 3.77782e-28 4.34817e-10 -5.55435e-07 1.03057e-16 6.08077e-17
318.653 7.84635e-19 7.84635e-19 3.09149e-28 3.94004e-10 -5.28554e-07 7.99786e-17 4.77036e-17
335.009 7.07728e-19 7.07728e-19 2.52923e-28 3.57372e-10 -5.42558e-07 6.18191e-17 3.72641e-17
352.206 6.3766e-19 6.3766e-19 2.06964e-28 3.24568e-10 -4.98169e-07 4.76052e-17 2.89932e-17
370.284 5.76283e-19 5.76283e-19 1.6941e-28 2.9397e-10 -5.35285e-07 3.66814e-17 2.25649e-17
389.291 5.20437e-19 5.20437e-19 1.38635e-28 2.66382e-10 -4.89641e-07 2.81785e-17 1.75031e-17
409.273 4.69417e-19 4.69417e-19 1.13423e-28 2.41624e-10 -4.53687e-07 2.15728e-17 1.35261e-17
430.282 4.24561e-19 4.24561e-19 9.28446e-29 2.18684e-10 -5.13513e-07 1.65273e-17 1.04566e-17
452.368 3.83888e-19 3.83888e-19 7.59962e-29 1.97965e-10 -4.34508e-07 1.26342e-17 8.06335e-18
475.588 3.46671e-19 3.46671e-19 6.21897e-29 1.79391e-10 -3.51616e-07 9.62862e-18 6.1967e-18
500 3.12699e-19 3.12699e-19 5.08846e-29 1.62727e-10 -4.19286e-07 7.31715e-18 4.747e-18
525.665 2.83665e-19 2.83665e-19 4.16608e-29 1.46866e-10 -3.64785e-07 5.58341e-18 3.65018e-18
552.648 2.57017e-19 2.57017e-19 3.40996e-29 1.32674e-10 -3.0884e-07 4.24896e-18 2.79827e-18
581.015 2.32577e-19 2.32577e-19 2.79035e-29 1.19975e-10 -1.82293e-07 3.22482e-18 2.13878e-18
610.838 2.10221e-19 2.10221e-19 2.28379e-29 1.08637e-10 -1.92058e-07 2.4415e-18 1.63017e-18
642.193 1.89802e-19 1.89802e-19 1.86966e-29 9.8506e-11 -2.60264e-07 1.84408e-18 1.2392e-18
675.157 1.7115e-19 1.7115e-19 1.53022e-29 8.9408e-11 -2.735e-07 1.38946e-18 9.39421e-19
709.813 1.54502e-19 1.54502e-19 1.25209e-29 8.10405e-11 -2.65636e-07 1.04691e-18 7.11961e-19
746.247 1.40199e-19 1.40199e-19 1.02508e-29 7.31157e-11 -1.64709e-07 7.92094e-19 5.41667e-19
784.553 1.27068e-19 1.27068e-19 8.39144e-30 6.60392e-11 -3.38146e-07 5.97988e-19 4.11096e-19
824.824 1.15022e-19 1.15022e-19 6.86757e-30 5.97067e-11 -1.17954e-07 4.50465e-19 3.11241e-19
867.162 1.03991e-19 1.03991e-19 5.61979e-30 5.40414e-11 -1.01439e-07 3.38626e-19 2.35089e-19
911.674 9.39228e-20 9.39228e-20 4.60135e-30 4.89908e-11 -2.20804e-07 2.54087e-19 1.77203e-19
958.471 8.47232e-20 8.47232e-20 3.76644e-30 4.44558e-11 9.30401e-08 1.90264e-19 1.33268e-19
1007.67 7.64049e-20 7.64049e-20 3.08217e-30 4.034e-11 -3.38226e-07 1.42332e-19 1.00105e-19
1059.39 6.92059e-20 6.92059e-20 2.52288e-30 3.64547e-11 -1.4624e-07 1.06868e-19 7.54573e-20
1113.77 6.26153e-20 6.26153e-20 2.06552e-30 3.29874e-11 -2.88784e-08 8.00983e-20 5.67662e-20
1170.94 5.65812e-20 5.65812e-20 1.69056e-30 2.98785e-11 4.82578e-07 5.99212e-20 4.26167e-20
1231.05 5.11364e-20 5.11364e-20 1.38336e-30 2.70523e-11 -4.20828e-07 4.48076e-20 3.19748e-20
1294.24 4.63276e-20 4.63276e-20 1.13261e-30 2.44479e-11 -2.74921e-07 3.35685e-20 2.4031e-20
1360.67 4.19356e-20 4.19356e-20 9.27188e-31 2.21098e-11 -3.71534e-07 2.5114e-20 1.80331e-20
1430.51 3.7913e-20 3.7913e-20 7.58822e-31 2.00148e-11 -7.15175e-08 1.87563e-20 1.35067e-20
1503.94 3.42475e-20 3.42475e-20 6.2098e-31 1.81321e-11 -8.03157e-08 1.39897e-20 1.01018e-20
1581.14 3.10673e-20 3.10673e-20 5.08462e-31 1.63665e-11 -7.81403e-08 1.0474e-20 7.58275e-21
1662.3 2.8149e-20 2.8149e-20 4.16212e-31 1.4786e-11 -5.98684e-08 7.8292e-21 5.682e-21
1747.63 2.54731e-20 2.54731e-20 3.40603e-31 1.33711e-11 8.70198e-07 5.8426e-21 4.25017e-21
1837.33 2.30265e-20 2.30265e-20 2.78801e-31 1.21079e-11 5.51351e-07 4.3537e-21 3.17412e-21
1931.64 2.0792e-20 2.0792e-20 2.28262e-31 1.09784e-11 2.99048e-07 3.23951e-21 2.36679e-21
2030.79 1.88831e-20 1.88831e-20 1.86831e-31 9.89408e-12 7.39838e-07 2.4236e-21 1.77424e-21
2135.03 1.74108e-20 1.74108e-20 1.5288e-31 8.78076e-12 1.31781e-06 1.84022e-21 1.34973e-21
2244.63 1.604e-20 1.604e-20 1.25172e-31 7.80375e-12 -1.77698e-06 1.39568e-21 1.02553e-21
2359.84 1.47623e-20 1.47623e-20 1.02471e-31 6.94141e-12 -5.89249e-07 1.05717e-21 7.78127e-22
2480.97 1.35721e-20 1.35721e-20 8.38649e-32 6.17921e-12 -4.97694e-07 7.99689e-22 5.89571e-22
2608.32 1.24651e-20 1.24651e-20 6.86329e-32 5.506e-12 1.74213e-07 6.04149e-22 4.46099e-22
2742.21 1.14377e-20 1.14377e-20 5.61961e-32 4.91324e-12 -5.95756e-07 4.55884e-22 3.37117e-22
2882.96 1.04834e-20 1.04834e-20 4.60007e-32 4.38797e-12 4.83509e-07 3.43543e-22 2.54399e-22
3030.95 9.59773e-21 9.59773e-21 3.76445e-32 3.92223e-12 -6.13708e-07 2.58534e-22 1.91702e-22
3186.53 8.77781e-21 8.77781e-21 3.08147e-32 3.51053e-12 3.42999e-06 1.94318e-22 1.44268e-22
