# 7.4989e-05 1 133 : grain size, compostion index, size index
# Heating and cooling timescale: 0.00053552 9.31343e+07
# Ratio of heating to cooling to determine stochastic cutoff: 100
# Equilibrium emission is recorded even for those grains in the stochastic regime.
# Emission spectrum was computed for: 
# Type: IRSF
# Scales: 0.25 0.5 1 1.5 2 2.5 3 3.5 4 4.5 5 5.5 6 6.5 7 7.5 8 8.5 9 9.5 10
# StochasticallyHeated: 0 0 0 0 0 0 0 0 0 0 0 0 0 0 0 0 0 0 0 0 0
# Temperature: -1
# Wavelength  CExt  CAbs  CSca  Albedo G EqEm1 StEm1 EqEm2 StEm2 EqEm3 StEm3 EqEm4 StEm4 EqEm5 StEm5 EqEm6 StEm6 EqEm7 StEm7 EqEm8 StEm8 EqEm9 StEm9 EqEm10 StEm10 EqEm11 StEm11 EqEm12 StEm12 EqEm13 StEm13 EqEm14 StEm14 EqEm15 StEm15 EqEm16 StEm16 EqEm17 StEm17 EqEm18 StEm18 EqEm19 StEm19 EqEm20 StEm20 EqEm21 StEm21
0.05 9.42226e-09 4.19225e-09 5.23001e-09 0.55507 0.214774 0 0 0 0 0 0 0 0 0 0 0 0 0 0 0 0 0 0 0 0 0 0 0 0 0 0 0 0 0 0 0 0 0 0 0 0 0 0 0 0 0 0
0.0525665 1.04144e-08 4.63367e-09 5.78071e-09 0.55507 0.237389 0 0 0 0 0 0 0 0 0 0 0 0 0 0 0 0 0 0 0 0 0 0 0 0 0 0 0 0 0 0 0 0 0 0 0 0 0 0 0 0 0 0
0.0552647 1.1511e-08 5.12158e-09 6.38939e-09 0.55507 0.262385 0 0 0 0 0 0 0 0 0 0 0 0 0 0 0 0 0 0 0 0 0 0 0 0 0 0 0 0 0 0 0 0 0 0 0 0 0 0 0 0 0 0
0.0581015 1.2723e-08 5.66085e-09 7.06216e-09 0.55507 0.290013 0 0 0 0 0 0 0 0 0 0 0 0 0 0 0 0 0 0 0 0 0 0 0 0 0 0 0 0 0 0 0 0 0 0 0 0 0 0 0 0 0 0
0.0610839 1.40627e-08 6.25692e-09 7.80577e-09 0.55507 0.32055 0 0 0 0 0 0 0 0 0 0 0 0 0 0 0 0 0 0 0 0 0 0 0 0 0 0 0 0 0 0 0 0 0 0 0 0 0 0 0 0 0 0
0.0642193 1.55434e-08 6.91574e-09 8.62768e-09 0.55507 0.354302 0 0 0 0 0 0 0 0 0 0 0 0 0 0 0 0 0 0 0 0 0 0 0 0 0 0 0 0 0 0 0 0 0 0 0 0 0 0 0 0 0 0
0.0675157 1.71801e-08 7.64393e-09 9.53613e-09 0.55507 0.391609 0 0 0 0 0 0 0 0 0 0 0 0 0 0 0 0 0 0 0 0 0 0 0 0 0 0 0 0 0 0 0 0 0 0 0 0 0 0 0 0 0 0
0.0709813 1.8989e-08 8.4488e-09 1.05402e-08 0.55507 0.432843 0 0 0 0 0 0 0 0 0 0 0 0 0 0 0 0 0 0 0 0 0 0 0 0 0 0 0 0 0 0 0 0 0 0 0 0 0 0 0 0 0 0
0.0746248 2.09885e-08 9.33842e-09 1.16501e-08 0.55507 0.478419 0 0 0 0 0 0 0 0 0 0 0 0 0 0 0 0 0 0 0 0 0 0 0 0 0 0 0 0 0 0 0 0 0 0 0 0 0 0 0 0 0 0
0.0784553 2.31985e-08 1.03217e-08 1.28768e-08 0.55507 0.528794 0 0 0 0 0 0 0 0 0 0 0 0 0 0 0 0 0 0 0 0 0 0 0 0 0 0 0 0 0 0 0 0 0 0 0 0 0 0 0 0 0 0
0.0824824 2.56412e-08 1.14085e-08 1.42326e-08 0.55507 0.584474 0 0 0 0 0 0 0 0 0 0 0 0 0 0 0 0 0 0 0 0 0 0 0 0 0 0 0 0 0 0 0 0 0 0 0 0 0 0 0 0 0 0
0.0867162 2.83411e-08 1.26098e-08 1.57313e-08 0.55507 0.646017 0 0 0 0 0 0 0 0 0 0 0 0 0 0 0 0 0 0 0 0 0 0 0 0 0 0 0 0 0 0 0 0 0 0 0 0 0 0 0 0 0 0
0.0911674 3.13252e-08 1.39376e-08 1.73877e-08 0.55507 0.714039 0 0 0 0 0 0 0 0 0 0 0 0 0 0 0 0 0 0 0 0 0 0 0 0 0 0 0 0 0 0 0 0 0 0 0 0 0 0 0 0 0 0
0.095847 3.46236e-08 1.54051e-08 1.92185e-08 0.55507 0.789224 0 0 0 0 0 0 0 0 0 0 0 0 0 0 0 0 0 0 0 0 0 0 0 0 0 0 0 0 0 0 0 0 0 0 0 0 0 0 0 0 0 0
0.100767 3.77066e-08 1.67793e-08 2.09273e-08 0.555004 0.8591 0 0 0 0 0 0 0 0 0 0 0 0 0 0 0 0 0 0 0 0 0 0 0 0 0 0 0 0 0 0 0 0 0 0 0 0 0 0 0 0 0 0
0.105939 3.78245e-08 1.68498e-08 2.09747e-08 0.554528 0.862551 0 0 0 0 0 0 0 0 0 0 0 0 0 0 0 0 0 0 0 0 0 0 0 0 0 0 0 0 0 0 0 0 0 0 0 0 0 0 0 0 0 0
0.111377 3.79435e-08 1.69302e-08 2.10133e-08 0.553804 0.867066 0 0 0 0 0 0 0 0 0 0 0 0 0 0 0 0 0 0 0 0 0 0 0 0 0 0 0 0 0 0 0 0 0 0 0 0 0 0 0 0 0 0
0.117094 3.8063e-08 1.7007e-08 2.1056e-08 0.553188 0.869847 0 0 0 0 0 0 0 0 0 0 0 0 0 0 0 0 0 0 0 0 0 0 0 0 0 0 0 0 0 0 0 0 0 0 0 0 0 0 0 0 0 0
0.123105 3.81821e-08 1.71046e-08 2.10774e-08 0.552025 0.871476 0 0 0 0 0 0 0 0 0 0 0 0 0 0 0 0 0 0 0 0 0 0 0 0 0 0 0 0 0 0 0 0 0 0 0 0 0 0 0 0 0 0
0.129424 3.82977e-08 1.7211e-08 2.10867e-08 0.5506 0.872099 0 0 0 0 0 0 0 0 0 0 0 0 0 0 0 0 0 0 0 0 0 0 0 0 0 0 0 0 0 0 0 0 0 0 0 0 0 0 0 0 0 0
0.136067 3.84212e-08 1.72947e-08 2.11266e-08 0.549867 0.871535 0 0 0 0 0 0 0 0 0 0 0 0 0 0 0 0 0 0 0 0 0 0 0 0 0 0 0 0 0 0 0 0 0 0 0 0 0 0 0 0 0 0
0.143051 3.85449e-08 1.74143e-08 2.11306e-08 0.548207 0.868985 0 0 0 0 0 0 0 0 0 0 0 0 0 0 0 0 0 0 0 0 0 0 0 0 0 0 0 0 0 0 0 0 0 0 0 0 0 0 0 0 0 0
0.150394 3.86799e-08 1.75892e-08 2.10908e-08 0.545264 0.869704 0 0 0 0 0 0 0 0 0 0 0 0 0 0 0 0 0 0 0 0 0 0 0 0 0 0 0 0 0 0 0 0 0 0 0 0 0 0 0 0 0 0
0.158114 3.88385e-08 1.78117e-08 2.10268e-08 0.541391 0.875402 0 0 0 0 0 0 0 0 0 0 0 0 0 0 0 0 0 0 0 0 0 0 0 0 0 0 0 0 0 0 0 0 0 0 0 0 0 0 0 0 0 0
0.16623 3.9024e-08 1.80523e-08 2.09717e-08 0.537406 0.882527 0 0 0 0 0 0 0 0 0 0 0 0 0 0 0 0 0 0 0 0 0 0 0 0 0 0 0 0 0 0 0 0 0 0 0 0 0 0 0 0 0 0
0.174762 3.9214e-08 1.82784e-08 2.09356e-08 0.533881 0.888973 0 0 0 0 0 0 0 0 0 0 0 0 0 0 0 0 0 0 0 0 0 0 0 0 0 0 0 0 0 0 0 0 0 0 0 0 0 0 0 0 0 0
0.183733 3.94058e-08 1.8388e-08 2.10177e-08 0.533367 0.894692 0 0 0 0 0 0 0 0 0 0 0 0 0 0 0 0 0 0 0 0 0 0 0 0 0 0 0 0 0 0 0 0 0 0 0 0 0 0 0 0 0 0
0.193164 3.99823e-08 1.81117e-08 2.18706e-08 0.547008 0.898267 0 0 0 0 0 0 0 0 0 0 0 0 0 0 0 0 0 0 0 0 0 0 0 0 0 0 0 0 0 0 0 0 0 0 0 0 0 0 0 0 0 0
0.203079 4.00865e-08 1.82125e-08 2.1874e-08 0.54567 0.894539 0 0 0 0 0 0 0 0 0 0 0 0 0 0 0 0 0 0 0 0 0 0 0 0 0 0 0 0 0 0 0 0 0 0 0 0 0 0 0 0 0 0
0.213503 3.99789e-08 1.84182e-08 2.15607e-08 0.539302 0.888765 0 0 0 0 0 0 0 0 0 0 0 0 0 0 0 0 0 0 0 0 0 0 0 0 0 0 0 0 0 0 0 0 0 0 0 0 0 0 0 0 0 0
0.224463 3.99074e-08 1.85697e-08 2.13377e-08 0.534679 0.874554 0 0 0 0 0 0 0 0 0 0 0 0 0 0 0 0 0 0 0 0 0 0 0 0 0 0 0 0 0 0 0 0 0 0 0 0 0 0 0 0 0 0
0.235984 3.98609e-08 1.87285e-08 2.11324e-08 0.530155 0.878212 0 0 0 0 0 0 0 0 0 0 0 0 0 0 0 0 0 0 0 0 0 0 0 0 0 0 0 0 0 0 0 0 0 0 0 0 0 0 0 0 0 0
0.248097 3.98668e-08 1.88801e-08 2.09866e-08 0.52642 0.876347 0 0 0 0 0 0 0 0 0 0 0 0 0 0 0 0 0 0 0 0 0 0 0 0 0 0 0 0 0 0 0 0 0 0 0 0 0 0 0 0 0 0
0.260832 3.99406e-08 1.90279e-08 2.09127e-08 0.523595 0.865653 0 0 0 0 0 0 0 0 0 0 0 0 0 0 0 0 0 0 0 0 0 0 0 0 0 0 0 0 0 0 0 0 0 0 0 0 0 0 0 0 0 0
0.274221 4.00607e-08 1.91687e-08 2.0892e-08 0.521508 0.868817 0 0 0 0 0 0 0 0 0 0 0 0 0 0 0 0 0 0 0 0 0 0 0 0 0 0 0 0 0 0 0 0 0 0 0 0 0 0 0 0 0 0
0.288297 4.02004e-08 1.93e-08 2.09005e-08 0.519906 0.872922 0 0 0 0 0 0 0 0 0 0 0 0 0 0 0 0 0 0 0 0 0 0 0 0 0 0 0 0 0 0 0 0 0 0 0 0 0 0 0 0 0 0
0.303095 4.03633e-08 1.94098e-08 2.09535e-08 0.519122 0.867206 0 0 0 0 0 0 0 0 0 0 0 0 0 0 0 0 0 0 0 0 0 0 0 0 0 0 0 0 0 0 0 0 0 0 0 0 0 0 0 0 0 0
0.318653 4.08759e-08 1.94761e-08 2.13999e-08 0.523532 0.852672 0 0 0 0 0 0 0 0 0 0 0 0 0 0 0 0 0 0 0 0 0 0 0 0 0 0 0 0 0 0 0 0 0 0 0 0 0 0 0 0 0 0
0.335009 4.20161e-08 1.95504e-08 2.24658e-08 0.534694 0.843044 0 0 0 0 0 0 0 0 0 0 0 0 0 0 0 0 0 0 0 0 0 0 0 0 0 0 0 0 0 0 0 0 0 0 0 0 0 0 0 0 0 0
0.352205 4.31144e-08 1.96327e-08 2.34817e-08 0.544637 0.844125 0 0 0 0 0 0 0 0 0 0 0 0 0 0 0 0 0 0 0 0 0 0 0 0 0 0 0 0 0 0 0 0 0 0 0 0 0 0 0 0 0 0
0.370284 4.35698e-08 1.96815e-08 2.38883e-08 0.548277 0.847781 0 0 0 0 0 0 0 0 0 0 0 0 0 0 0 0 0 0 0 0 0 0 0 0 0 0 0 0 0 0 0 0 0 0 0 0 0 0 0 0 0 0
0.389291 4.33027e-08 1.97576e-08 2.35452e-08 0.543734 0.843001 0 0 0 0 0 0 0 0 0 0 0 0 0 0 0 0 0 0 0 0 0 0 0 0 0 0 0 0 0 0 0 0 0 0 0 0 0 0 0 0 0 0
0.409273 4.27282e-08 1.9795e-08 2.29332e-08 0.536722 0.823436 0 0 0 0 0 0 0 0 0 0 0 0 0 0 0 0 0 0 0 0 0 0 0 0 0 0 0 0 0 0 0 0 0 0 0 0 0 0 0 0 0 0
0.430281 4.23021e-08 1.98416e-08 2.24606e-08 0.530956 0.802835 0 0 0 0 0 0 0 0 0 0 0 0 0 0 0 0 0 0 0 0 0 0 0 0 0 0 0 0 0 0 0 0 0 0 0 0 0 0 0 0 0 0
0.452368 4.23469e-08 1.98201e-08 2.25268e-08 0.531958 0.78522 0 0 0 0 0 0 0 0 0 0 0 0 0 0 0 0 0 0 0 0 0 0 0 0 0 0 0 0 0 0 0 0 0 0 0 0 0 0 0 0 0 0
0.475588 4.29764e-08 1.98353e-08 2.31412e-08 0.538462 0.78468 0 0 0 0 0 0 0 0 0 0 0 0 0 0 0 0 0 0 0 0 0 0 0 0 0 0 0 0 0 0 0 0 0 0 0 0 0 0 0 0 0 0
0.5 4.38645e-08 1.98616e-08 2.4003e-08 0.547207 0.796695 0 0 0 0 0 0 0 0 0 0 0 0 0 0 0 0 0 0 0 0 0 0 0 0 0 0 0 0 0 0 0 0 0 0 0 0 0 0 0 0 0 0
0.525665 4.46226e-08 1.96959e-08 2.49267e-08 0.558613 0.816477 0 0 0 0 0 0 0 0 0 0 0 0 0 0 0 0 0 0 0 0 0 0 0 0 0 0 0 0 0 0 0 0 0 0 0 0 0 0 0 0 0 0
0.552648 4.51166e-08 1.96752e-08 2.54414e-08 0.563903 0.824391 0 0 0 0 0 0 0 0 0 0 0 0 0 0 0 0 0 0 0 0 0 0 0 0 0 0 0 0 0 0 0 0 0 0 0 0 0 0 0 0 0 0
0.581015 4.51151e-08 1.95677e-08 2.55474e-08 0.566272 0.83568 0 0 0 0 0 0 0 0 0 0 0 0 0 0 0 0 0 0 0 0 0 0 0 0 0 0 0 0 0 0 0 0 0 0 0 0 0 0 0 0 0 0
0.610839 4.46377e-08 1.93111e-08 2.53265e-08 0.567381 0.819634 0 0 0 0 0 0 0 0 0 0 0 0 0 0 0 0 0 0 0 0 0 0 0 0 0 0 0 0 0 0 0 0 0 0 0 0 0 0 0 0 0 0
0.642193 4.40719e-08 1.92235e-08 2.48484e-08 0.563815 0.812259 0 0 0 0 0 0 0 0 0 0 0 0 0 0 0 0 0 0 0 0 0 0 0 0 0 0 0 0 0 0 0 0 0 0 0 0 0 0 0 0 0 0
0.675157 4.3298e-08 1.89411e-08 2.43569e-08 0.56254 0.763827 0 0 0 0 0 0 0 0 0 0 0 0 0 0 0 0 0 0 0 0 0 0 0 0 0 0 0 0 0 0 0 0 0 0 0 0 0 0 0 0 0 0
0.709813 4.32813e-08 1.87167e-08 2.45645e-08 0.567556 0.722126 0 0 0 0 0 0 0 0 0 0 0 0 0 0 0 0 0 0 0 0 0 0 0 0 0 0 0 0 0 0 0 0 0 0 0 0 0 0 0 0 0 0
0.746248 4.32342e-08 1.83527e-08 2.48814e-08 0.575504 0.656811 0 0 0 0 0 0 0 0 0 0 0 0 0 0 0 0 0 0 0 0 0 0 0 0 0 0 0 0 0 0 0 0 0 0 0 0 0 0 0 0 0 0
0.784553 4.45017e-08 1.80981e-08 2.64036e-08 0.593317 0.56463 0 0 0 0 0 0 0 0 0 0 0 0 0 0 0 0 0 0 0 0 0 0 0 0 0 0 0 0 0 0 0 0 0 0 0 0 0 0 0 0 0 0
0.824824 4.59986e-08 1.79084e-08 2.80902e-08 0.610675 0.545207 0 0 0 0 0 0 0 0 0 0 0 0 0 0 0 0 0 0 0 0 0 0 0 0 0 0 0 0 0 0 0 0 0 0 0 0 0 0 0 0 0 0
0.867162 4.81396e-08 1.73146e-08 3.0825e-08 0.640325 0.501677 0 0 0 0 0 0 0 0 0 0 0 0 0 0 0 0 0 0 0 0 0 0 0 0 0 0 0 0 0 0 0 0 0 0 0 0 0 0 0 0 0 0
0.911674 5.13204e-08 1.70444e-08 3.4276e-08 0.667882 0.487957 0 0 0 0 0 0 0 0 0 0 0 0 0 0 0 0 0 0 0 0 0 0 0 0 0 0 0 0 0 0 0 0 0 0 0 0 0 0 0 0 0 0
0.95847 5.39291e-08 1.6677e-08 3.72521e-08 0.690761 0.530806 0 0 0 0 0 0 0 0 0 0 0 0 0 0 0 0 0 0 0 0 0 0 0 0 0 0 0 0 0 0 0 0 0 0 0 0 0 0 0 0 0 0
1.00767 5.71188e-08 1.62372e-08 4.08816e-08 0.715729 0.535913 0 0 0 0 0 0 0 0 0 0 0 0 0 0 0 0 0 0 0 0 0 0 0 0 0 0 0 0 0 0 0 0 0 0 0 0 0 0 0 0 0 0
1.05939 6.03914e-08 1.60868e-08 4.43046e-08 0.733624 0.573901 0 0 0 0 0 0 0 0 0 0 0 0 0 0 0 0 0 0 0 0 0 0 0 0 0 0 0 0 0 0 0 0 0 0 0 0 0 0 0 0 0 0
1.11377 6.26725e-08 1.5873e-08 4.67995e-08 0.746731 0.619012 0 0 0 0 0 0 0 0 0 0 0 0 0 0 0 0 0 0 0 0 0 0 0 0 0 0 0 0 0 0 0 0 0 0 0 0 0 0 0 0 0 0
1.17094 6.43458e-08 1.56878e-08 4.86579e-08 0.756195 0.629726 0 0 0 0 0 0 0 0 0 0 0 0 0 0 0 0 0 0 0 0 0 0 0 0 0 0 0 0 0 0 0 0 0 0 0 0 0 0 0 0 0 0
1.23105 6.53889e-08 1.54183e-08 4.99706e-08 0.764207 0.632484 0 0 0 0 0 0 0 0 0 0 0 0 0 0 0 0 0 0 0 0 0 0 0 0 0 0 0 0 0 0 0 0 0 0 0 0 0 0 0 0 0 0
1.29424 6.58757e-08 1.5167e-08 5.07087e-08 0.769763 0.666048 0 0 0 0 0 0 0 0 0 0 0 0 0 0 0 0 0 0 0 0 0 0 0 0 0 0 0 0 0 0 0 0 0 0 0 0 0 0 0 0 0 0
1.36067 6.61996e-08 1.51776e-08 5.1022e-08 0.77073 0.686226 0 0 0 0 0 0 0 0 0 0 0 0 0 0 0 0 0 0 0 0 0 0 0 0 0 0 0 0 0 0 0 0 0 0 0 0 0 0 0 0 0 0
1.43051 6.56115e-08 1.51129e-08 5.04986e-08 0.76966 0.691751 0 0 0 0 0 0 0 0 0 0 0 0 0 0 0 0 0 0 0 0 0 0 0 0 0 0 0 0 0 0 0 0 0 0 0 0 0 0 0 0 0 0
1.50394 6.39227e-08 1.46879e-08 4.92348e-08 0.770224 0.677811 0 0 0 0 0 0 0 0 0 0 0 0 0 0 0 0 0 0 0 0 0 0 0 0 0 0 0 0 0 0 0 0 0 0 0 0 0 0 0 0 0 0
1.58114 6.17371e-08 1.40518e-08 4.76853e-08 0.772393 0.668012 0 0 0 0 0 0 0 0 0 0 0 0 0 0 0 0 0 0 0 0 0 0 0 0 0 0 0 0 0 0 0 0 0 0 0 0 0 0 0 0 0 0
1.6623 5.97847e-08 1.363e-08 4.61547e-08 0.772015 0.673781 0 0 0 0 0 0 0 0 0 0 0 0 0 0 0 0 0 0 0 0 0 0 0 0 0 0 0 0 0 0 0 0 0 0 0 0 0 0 0 0 0 0
1.74763 5.78844e-08 1.35509e-08 4.43335e-08 0.765897 0.685372 0 0 0 0 0 0 0 0 0 0 0 0 0 0 0 0 0 0 0 0 0 0 0 0 0 0 0 0 0 0 0 0 0 0 0 0 0 0 0 0 0 0
1.83733 5.53271e-08 1.35754e-08 4.17517e-08 0.754634 0.693774 0 0 0 0 0 0 0 0 0 0 0 0 0 0 0 0 0 0 0 0 0 0 0 0 0 0 0 0 0 0 0 0 0 0 0 0 0 0 0 0 0 0
1.93164 5.18869e-08 1.34102e-08 3.84766e-08 0.741549 0.68698 0 0 0 0 0 0 0 0 0 0 0 0 0 0 0 0 0 0 0 0 0 0 0 0 0 0 0 0 0 0 0 0 0 0 0 0 0 0 0 0 0 0
2.03079 4.814e-08 1.30353e-08 3.51047e-08 0.729221 0.661897 0 0 0 0 0 0 0 0 0 0 0 0 0 0 0 0 0 0 0 0 0 0 0 0 0 0 0 0 0 0 0 0 0 0 0 0 0 0 0 0 0 0
2.13503 4.47538e-08 1.2651e-08 3.21028e-08 0.71732 0.629213 0 0 0 0 0 0 0 0 0 0 0 0 0 0 0 0 0 0 0 0 0 0 0 0 0 0 0 0 0 0 0 0 0 0 0 0 0 0 0 0 0 0
2.24463 4.19184e-08 1.24107e-08 2.95078e-08 0.703933 0.600692 0 0 0 0 0 0 0 0 0 0 0 0 0 0 0 0 0 0 0 0 0 0 0 0 0 0 0 0 0 0 0 0 0 0 0 0 0 0 0 0 0 0
2.35984 3.94343e-08 1.23376e-08 2.70967e-08 0.687135 0.583592 0 0 0 0 0 0 0 0 0 0 0 0 0 0 0 0 0 0 0 0 0 0 0 0 0 0 0 0 0 0 0 0 0 0 0 0 0 0 0 0 0 0
2.48097 3.70263e-08 1.23633e-08 2.4663e-08 0.666093 0.580087 0 0 0 0 0 0 0 0 0 0 0 0 0 0 0 0 0 0 0 0 0 0 0 0 0 0 0 0 0 0 0 0 0 0 0 0 0 0 0 0 0 0
2.60832 3.45493e-08 1.2383e-08 2.21663e-08 0.641585 0.586594 0 0 0 0 0 0 0 0 0 0 0 0 0 0 0 0 0 0 0 0 0 0 0 0 0 0 0 0 0 0 0 0 0 0 0 0 0 0 0 0 0 0
2.74221 3.201e-08 1.23323e-08 1.96777e-08 0.614736 0.594727 0 0 0 0 0 0 0 0 0 0 0 0 0 0 0 0 0 0 0 0 0 0 0 0 0 0 0 0 0 0 0 0 0 0 0 0 0 0 0 0 0 0
2.88297 2.95508e-08 1.2203e-08 1.73478e-08 0.587049 0.593885 0 0 0 0 0 0 0 0 0 0 0 0 0 0 0 0 0 0 0 0 0 0 0 0 0 0 0 0 0 0 0 0 0 0 0 0 0 0 0 0 0 0
3.03095 2.73307e-08 1.20326e-08 1.52981e-08 0.559742 0.576399 0 0 0 0 0 0 0 0 0 0 0 0 0 0 0 0 0 0 0 0 0 0 0 0 0 0 0 0 0 0 0 0 0 0 0 0 0 0 0 0 0 0
3.18653 2.53179e-08 1.17577e-08 1.35601e-08 0.535596 0.541935 0 0 0 0 0 0 0 0 0 0 0 0 0 0 0 0 0 0 0 0 0 0 0 0 0 0 0 0 0 0 0 0 0 0 0 0 0 0 0 0 0 0
3.35009 2.33662e-08 1.15819e-08 1.17843e-08 0.504329 0.495588 0 0 0 0 0 0 0 0 0 0 0 0 0 0 0 0 0 0 0 0 0 0 0 0 0 0 0 0 0 0 0 0 0 0 0 0 0 0 0 0 0 0
3.52205 2.25963e-08 1.15072e-08 1.1089e-08 0.490746 0.444182 0 0 0 0 0 0 0 0 0 0 0 0 0 0 0 0 0 0 0 0 0 0 0 0 0 0 0 0 0 0 0 0 0 0 0 0 0 0 0 0 0 0
3.70284 2.03503e-08 1.05817e-08 9.76853e-09 0.48002 0.393557 0 0 0 0 0 0 0 0 0 0 0 0 0 0 0 0 0 0 0 0 0 0 0 0 0 0 0 0 0 0 0 0 0 0 0 0 0 0 0 0 0 0
3.89291 1.86727e-08 1.01382e-08 8.53456e-09 0.45706 0.346961 0 0 0 0 0 0 0 0 0 0 0 0 0 0 0 0 0 0 0 0 0 0 0 0 0 0 0 0 0 0 0 0 0 0 0 0 0 0 0 0 0 0
4.09273 1.71805e-08 9.76941e-09 7.41104e-09 0.431365 0.305641 0 0 0 0 0 0 0 0 0 0 0 0 0 0 0 0 0 0 0 0 0 0 0 0 0 0 0 0 0 0 0 0 0 0 0 0 0 0 0 0 0 0
4.30281 1.58545e-08 9.46357e-09 6.39088e-09 0.403097 0.269684 0 0 0 0 0 0 0 0 0 0 0 0 0 0 0 0 0 0 0 0 0 0 0 0 0 0 0 0 0 0 0 0 0 0 0 0 0 0 0 0 0 0
4.52368 1.46931e-08 9.21706e-09 5.47602e-09 0.372694 0.238647 0 0 0 0 0 0 0 0 0 0 0 0 0 0 0 0 0 0 0 0 0 0 0 0 0 0 0 0 0 0 0 0 0 0 0 0 0 0 0 0 0 0
4.75588 1.36835e-08 9.01472e-09 4.66875e-09 0.341197 0.211745 0 0 0 0 0 0 0 0 0 0 0 0 0 0 0 0 0 0 0 0 0 0 0 0 0 0 0 0 0 0 0 0 0 0 0 0 0 0 0 0 0 0
5 1.27991e-08 8.83227e-09 3.96685e-09 0.309931 0.188274 0 0 0 0 0 0 0 0 0 0 0 0 0 0 0 0 0 0 0 0 0 0 0 0 0 0 0 0 0 0 0 0 0 0 0 0 0 0 0 0 0 0
5.25665 1.2005e-08 8.64686e-09 3.35819e-09 0.279731 0.167697 0 0 0 0 0 0 0 0 0 0 0 0 0 0 0 0 0 0 0 0 0 0 0 0 0 0 0 0 0 0 0 0 0 0 0 0 0 0 0 0 0 0
5.52648 1.12875e-08 8.45671e-09 2.83078e-09 0.250789 0.14962 0 0 0 0 0 0 0 0 0 0 0 0 0 0 0 0 0 0 0 0 0 0 0 0 0 0 0 0 0 0 0 0 0 0 0 0 0 0 0 0 0 0
5.81015 1.06302e-08 8.25556e-09 2.37465e-09 0.223387 0.133534 0 0 0 0 0 0 0 0 0 0 0 0 0 0 0 0 0 0 0 0 0 0 0 0 0 0 0 0 0 0 0 0 0 0 0 0 0 0 0 0 0 0
6.10839 1.00322e-08 8.05114e-09 1.98104e-09 0.197469 0.119181 0 0 0 0 0 0 0 0 0 0 0 0 0 0 0 0 0 0 0 0 0 0 0 0 0 0 0 0 0 0 0 0 0 0 0 0 0 0 0 0 0 0
6.42193 9.4826e-09 7.8409e-09 1.64169e-09 0.173127 0.106263 0 0 0 0 0 0 0 0 0 0 0 0 0 0 0 0 0 0 0 0 0 0 0 0 0 0 0 0 0 0 0 0 1.4013e-45 0 4.2039e-45 0 1.12104e-44 0 3.08286e-44 0 7.42688e-44 0
6.75157 8.99366e-09 7.64857e-09 1.34509e-09 0.14956 0.0944907 0 0 0 0 0 0 0 0 0 0 0 0 0 0 0 0 0 0 0 0 0 0 0 0 1.4013e-45 0 5.60519e-45 0 2.10195e-44 0 7.28675e-44 0 2.24208e-43 0 6.37591e-43 0 1.68436e-42 0 4.24734e-42 0 9.97725e-42 0
7.09813 8.50687e-09 7.40627e-09 1.1006e-09 0.129377 0.083545 0 0 0 0 0 0 0 0 0 0 0 0 0 0 0 0 0 0 1.4013e-45 0 8.40779e-45 0 4.48416e-44 0 2.07392e-43 0 8.15556e-43 0 2.9147e-42 0 9.54144e-42 0 2.79461e-41 0 7.57472e-41 0 1.90756e-40 0 4.59903e-40 0 1.03626e-39 0
7.46248 8.04601e-09 7.1715e-09 8.74514e-10 0.108689 0.0731337 0 0 0 0 0 0 0 0 0 0 0 0 0 0 2.8026e-45 0 2.38221e-44 0 1.87774e-43 0 1.17989e-42 0 5.98635e-42 0 2.569e-41 0 9.43704e-41 0 3.17066e-40 0 9.79509e-40 0 2.72236e-39 0 7.02845e-39 0 1.69194e-38 0 3.90764e-38 0 8.46239e-38 0
7.84553 7.57176e-09 6.91146e-09 6.60303e-10 0.087206 0.0635424 0 0 0 0 0 0 0 0 0 0 1.4013e-45 0 2.10195e-44 0 3.237e-43 0 3.18655e-42 0 2.29e-41 0 1.31641e-40 0 6.17184e-40 0 2.46683e-39 0 8.50416e-39 0 2.69306e-38 0 7.87386e-38 0 2.08185e-37 0 5.1316e-37 0 1.18345e-36 0 2.6238e-36 0 5.47174e-36 0
8.24824 7.91327e-09 7.43487e-09 4.78405e-10 0.060456 0.0554709 0 0 0 0 0 0 0 0 2.8026e-45 0 1.4013e-43 0 3.23139e-42 0 4.24131e-41 0 3.72904e-40 0 2.43394e-39 0 1.28463e-38 0 5.58523e-38 0 2.08635e-37 0 6.77075e-37 0 2.02679e-36 0 5.62344e-36 0 1.41791e-35 0 3.34442e-35 0 7.40459e-35 0 1.57906e-34 0 3.17694e-34 0
8.67162 9.17526e-09 8.76576e-09 4.09506e-10 0.0446315 0.0487085 0 0 0 0 0 0 2.8026e-45 0 4.68034e-43 0 2.07686e-41 0 4.10684e-40 0 4.75296e-39 0 3.75803e-38 0 2.23818e-37 0 1.08915e-36 0 4.40748e-36 0 1.54381e-35 0 4.73021e-35 0 1.34216e-34 0 3.5429e-34 0 8.53874e-34 0 1.9314e-33 0 4.11338e-33 0 8.45354e-33 0 1.64371e-32 0
9.11674 1.21924e-08 1.17113e-08 4.81109e-10 0.0394598 0.0418734 0 0 0 0 0 0 5.61921e-43 0 7.38148e-41 0 2.71949e-39 0 4.64842e-38 0 4.77353e-37 0 3.41186e-36 0 1.86248e-35 0 8.38946e-35 0 3.17098e-34 0 1.04476e-33 0 3.03083e-33 0 8.17282e-33 0 2.05752e-32 0 4.75037e-32 0 1.03252e-31 0 2.11931e-31 0 4.20495e-31 0 7.91494e-31 0
9.5847 1.51287e-08 1.44469e-08 6.81838e-10 0.0450691 0.0369799 0 0 0 0 7.9874e-44 0 8.11884e-41 0 8.40485e-39 0 2.59655e-37 0 3.86388e-36 0 3.54136e-35 0 2.29942e-34 0 1.1554e-33 0 4.8357e-33 0 1.71287e-32 0 5.32435e-32 0 1.46632e-31 0 3.76708e-31 0 9.06566e-31 0 2.00928e-30 0 4.20484e-30 0 8.33295e-30 0 1.59895e-29 0 2.91817e-29 0
10.0767 1.5329e-08 1.45456e-08 7.83351e-10 0.0511026 0.0343847 0 0 0 0 1.02841e-41 0 7.49533e-39 0 6.18648e-37 0 1.61648e-35 0 2.10835e-34 0 1.73426e-33 0 1.02777e-32 0 4.77285e-32 0 1.86273e-31 0 6.20296e-31 0 1.82428e-30 0 4.7816e-30 0 1.17312e-29 0 2.70468e-29 0 5.76609e-29 0 1.16394e-28 0 2.23089e-28 0 4.14664e-28 0 7.34878e-28 0
10.5939 1.34874e-08 1.27693e-08 7.18198e-10 0.0532494 0.0331179 0 0 7.00649e-45 0 9.04863e-40 0 4.78018e-37 0 3.18067e-35 0 7.08687e-34 0 8.15401e-33 0 6.05146e-32 0 3.28785e-31 0 1.41655e-30 0 5.17288e-30 0 1.62433e-29 0 4.53202e-29 0 1.13329e-28 0 2.66122e-28 0 5.89037e-28 0 1.2102e-27 0 2.36055e-27 0 4.38293e-27 0 7.90384e-27 0 1.36214e-26 0
11.1377 1.14664e-08 1.08513e-08 6.15104e-10 0.0536438 0.0335498 0 0 8.16957e-43 0 6.07969e-38 0 2.36484e-35 0 1.28194e-33 0 2.45466e-32 0 2.50674e-31 0 1.68693e-30 0 8.43841e-30 0 3.38542e-29 0 1.16051e-28 0 3.44609e-28 0 9.1451e-28 0 2.18677e-27 0 4.9254e-27 0 1.04871e-26 0 2.08019e-26 0 3.92729e-26 0 7.07493e-26 0 1.23963e-25 0 2.08035e-25 0
11.7094 9.23673e-09 8.75193e-09 4.84809e-10 0.0524871 0.0337057 0 0 7.1881e-41 0 3.09393e-36 0 8.99456e-34 0 4.01218e-32 0 6.6513e-31 0 6.06395e-30 0 3.71808e-29 0 1.71928e-28 0 6.44524e-28 0 2.08043e-27 0 5.85804e-27 0 1.48225e-26 0 3.39664e-26 0 7.3531e-26 0 1.5089e-25 0 2.89457e-25 0 5.29785e-25 0 9.27359e-25 0 1.58098e-24 0 2.58698e-24 0
12.3105 7.33301e-09 6.97209e-09 3.60927e-10 0.0492194 0.0336775 5.1848e-44 0 4.9084e-39 0 1.25484e-34 0 2.76555e-32 0 1.02483e-30 0 1.48127e-29 0 1.21233e-28 0 6.80349e-28 0 2.91937e-27 0 1.02604e-26 0 3.12773e-26 0 8.37294e-26 0 2.0247e-25 0 4.45562e-25 0 9.28864e-25 0 1.84035e-24 0 3.41987e-24 0 6.07726e-24 0 1.03511e-23 0 1.7193e-23 0 2.74648e-23 0
12.9424 6.46797e-09 6.20785e-09 2.60126e-10 0.0402176 0.0324084 5.51691e-42 0 2.97781e-37 0 4.63816e-33 0 7.85479e-31 0 2.44009e-29 0 3.09567e-28 0 2.28647e-27 0 1.17951e-26 0 4.71384e-26 0 1.5581e-25 0 4.4981e-25 0 1.14762e-24 0 2.65802e-24 0 5.62833e-24 0 1.132e-23 0 2.16918e-23 0 3.91081e-23 0 6.75732e-23 0 1.1214e-22 0 1.81705e-22 0 2.83701e-22 0
13.6067 6.13418e-09 5.93314e-09 2.01044e-10 0.0327744 0.0295915 4.9166e-40 0 1.55882e-35 0 1.51549e-31 0 1.99767e-29 0 5.24731e-28 0 5.88052e-27 0 3.93936e-26 0 1.87574e-25 0 7.00601e-25 0 2.18445e-24 0 5.98817e-24 0 1.4595e-23 0 3.24455e-23 0 6.6232e-23 0 1.28742e-22 0 2.38989e-22 0 4.1865e-22 0 7.04308e-22 0 1.14027e-21 0 1.8046e-21 0 2.75694e-21 0
