# 7e-05 1 18 : grain size, compostion index, size index
# Heating and cooling timescale: 0.000799785 346066
# Ratio of heating to cooling to determine stochastic cutoff: 100
# Equilibrium emission is recorded even for those grains in the stochastic regime.
# Emission spectrum was computed for: 
# Type: ISRF
# Scales: 0.25 0.5 1 1.5 2 2.5 3 3.5 4 4.5 5 5.5 6 6.5 7 7.5 8 8.5 9 9.5 10
# StochasticallyHeated: 0 0 0 0 0 0 0 0 0 0 0 0 0 0 0 0 0 0 0 0 0
# Temperature: -1
# Wavelength  CExt  CAbs  CSca  Albedo G EqEm1 StEm1 EqEm2 StEm2 EqEm3 StEm3 EqEm4 StEm4 EqEm5 StEm5 EqEm6 StEm6 EqEm7 StEm7 EqEm8 StEm8 EqEm9 StEm9 EqEm10 StEm10 EqEm11 StEm11 EqEm12 StEm12 EqEm13 StEm13 EqEm14 StEm14 EqEm15 StEm15 EqEm16 StEm16 EqEm17 StEm17 EqEm18 StEm18 EqEm19 StEm19 EqEm20 StEm20 EqEm21 StEm21
0.05 3.16351e-08 1.25419e-08 1.90933e-08 0.603546 0.903271 0 0 0 0 0 0 0 0 0 0 0 0 0 0 0 0 0 0 0 0 0 0 0 0 0 0 0 0 0 0 0 0 0 0 0 0 0 0 0 0 0 0
0.0525665 3.16649e-08 1.25905e-08 1.90744e-08 0.602382 0.90377 0 0 0 0 0 0 0 0 0 0 0 0 0 0 0 0 0 0 0 0 0 0 0 0 0 0 0 0 0 0 0 0 0 0 0 0 0 0 0 0 0 0
0.0552647 3.16942e-08 1.26416e-08 1.90526e-08 0.601138 0.904301 0 0 0 0 0 0 0 0 0 0 0 0 0 0 0 0 0 0 0 0 0 0 0 0 0 0 0 0 0 0 0 0 0 0 0 0 0 0 0 0 0 0
0.0581015 3.17257e-08 1.26952e-08 1.90305e-08 0.599844 0.904854 0 0 0 0 0 0 0 0 0 0 0 0 0 0 0 0 0 0 0 0 0 0 0 0 0 0 0 0 0 0 0 0 0 0 0 0 0 0 0 0 0 0
0.0610839 3.17602e-08 1.27518e-08 1.90084e-08 0.598497 0.905437 0 0 0 0 0 0 0 0 0 0 0 0 0 0 0 0 0 0 0 0 0 0 0 0 0 0 0 0 0 0 0 0 0 0 0 0 0 0 0 0 0 0
0.0642193 3.17943e-08 1.28111e-08 1.89832e-08 0.597063 0.906052 0 0 0 0 0 0 0 0 0 0 0 0 0 0 0 0 0 0 0 0 0 0 0 0 0 0 0 0 0 0 0 0 0 0 0 0 0 0 0 0 0 0
0.0675157 3.18315e-08 1.28735e-08 1.8958e-08 0.595574 0.906699 0 0 0 0 0 0 0 0 0 0 0 0 0 0 0 0 0 0 0 0 0 0 0 0 0 0 0 0 0 0 0 0 0 0 0 0 0 0 0 0 0 0
0.0709813 3.18702e-08 1.29392e-08 1.8931e-08 0.594003 0.907376 0 0 0 0 0 0 0 0 0 0 0 0 0 0 0 0 0 0 0 0 0 0 0 0 0 0 0 0 0 0 0 0 0 0 0 0 0 0 0 0 0 0
0.0746248 3.19108e-08 1.30082e-08 1.89026e-08 0.592357 0.908093 0 0 0 0 0 0 0 0 0 0 0 0 0 0 0 0 0 0 0 0 0 0 0 0 0 0 0 0 0 0 0 0 0 0 0 0 0 0 0 0 0 0
0.0784553 3.19544e-08 1.30807e-08 1.88737e-08 0.590645 0.90884 0 0 0 0 0 0 0 0 0 0 0 0 0 0 0 0 0 0 0 0 0 0 0 0 0 0 0 0 0 0 0 0 0 0 0 0 0 0 0 0 0 0
0.0824824 3.19991e-08 1.3157e-08 1.88421e-08 0.588833 0.909629 0 0 0 0 0 0 0 0 0 0 0 0 0 0 0 0 0 0 0 0 0 0 0 0 0 0 0 0 0 0 0 0 0 0 0 0 0 0 0 0 0 0
0.0867162 3.20462e-08 1.32372e-08 1.8809e-08 0.586935 0.910457 0 0 0 0 0 0 0 0 0 0 0 0 0 0 0 0 0 0 0 0 0 0 0 0 0 0 0 0 0 0 0 0 0 0 0 0 0 0 0 0 0 0
0.0911674 3.20964e-08 1.33214e-08 1.87751e-08 0.584958 0.911333 0 0 0 0 0 0 0 0 0 0 0 0 0 0 0 0 0 0 0 0 0 0 0 0 0 0 0 0 0 0 0 0 0 0 0 0 0 0 0 0 0 0
0.095847 3.21487e-08 1.341e-08 1.87388e-08 0.582877 0.912247 0 0 0 0 0 0 0 0 0 0 0 0 0 0 0 0 0 0 0 0 0 0 0 0 0 0 0 0 0 0 0 0 0 0 0 0 0 0 0 0 0 0
0.100767 3.22042e-08 1.35032e-08 1.87009e-08 0.5807 0.913206 0 0 0 0 0 0 0 0 0 0 0 0 0 0 0 0 0 0 0 0 0 0 0 0 0 0 0 0 0 0 0 0 0 0 0 0 0 0 0 0 0 0
0.105939 3.22614e-08 1.36011e-08 1.86604e-08 0.57841 0.914225 0 0 0 0 0 0 0 0 0 0 0 0 0 0 0 0 0 0 0 0 0 0 0 0 0 0 0 0 0 0 0 0 0 0 0 0 0 0 0 0 0 0
0.111377 3.23221e-08 1.37041e-08 1.8618e-08 0.576014 0.915289 0 0 0 0 0 0 0 0 0 0 0 0 0 0 0 0 0 0 0 0 0 0 0 0 0 0 0 0 0 0 0 0 0 0 0 0 0 0 0 0 0 0
0.117094 3.2386e-08 1.38123e-08 1.85737e-08 0.573511 0.916403 0 0 0 0 0 0 0 0 0 0 0 0 0 0 0 0 0 0 0 0 0 0 0 0 0 0 0 0 0 0 0 0 0 0 0 0 0 0 0 0 0 0
0.123105 3.24542e-08 1.39262e-08 1.8528e-08 0.570897 0.917589 0 0 0 0 0 0 0 0 0 0 0 0 0 0 0 0 0 0 0 0 0 0 0 0 0 0 0 0 0 0 0 0 0 0 0 0 0 0 0 0 0 0
0.129424 3.25249e-08 1.40459e-08 1.8479e-08 0.56815 0.91882 0 0 0 0 0 0 0 0 0 0 0 0 0 0 0 0 0 0 0 0 0 0 0 0 0 0 0 0 0 0 0 0 0 0 0 0 0 0 0 0 0 0
0.136067 3.25987e-08 1.41717e-08 1.84271e-08 0.565269 0.920123 0 0 0 0 0 0 0 0 0 0 0 0 0 0 0 0 0 0 0 0 0 0 0 0 0 0 0 0 0 0 0 0 0 0 0 0 0 0 0 0 0 0
0.143051 3.2677e-08 1.43039e-08 1.83732e-08 0.562265 0.921489 0 0 0 0 0 0 0 0 0 0 0 0 0 0 0 0 0 0 0 0 0 0 0 0 0 0 0 0 0 0 0 0 0 0 0 0 0 0 0 0 0 0
0.150394 3.27593e-08 1.44429e-08 1.83164e-08 0.559121 0.922927 0 0 0 0 0 0 0 0 0 0 0 0 0 0 0 0 0 0 0 0 0 0 0 0 0 0 0 0 0 0 0 0 0 0 0 0 0 0 0 0 0 0
0.158114 3.28451e-08 1.45891e-08 1.8256e-08 0.555822 0.924439 0 0 0 0 0 0 0 0 0 0 0 0 0 0 0 0 0 0 0 0 0 0 0 0 0 0 0 0 0 0 0 0 0 0 0 0 0 0 0 0 0 0
0.16623 3.29366e-08 1.47428e-08 1.81939e-08 0.55239 0.926029 0 0 0 0 0 0 0 0 0 0 0 0 0 0 0 0 0 0 0 0 0 0 0 0 0 0 0 0 0 0 0 0 0 0 0 0 0 0 0 0 0 0
0.174762 3.30419e-08 1.48817e-08 1.81602e-08 0.549611 0.926696 0 0 0 0 0 0 0 0 0 0 0 0 0 0 0 0 0 0 0 0 0 0 0 0 0 0 0 0 0 0 0 0 0 0 0 0 0 0 0 0 0 0
0.183733 3.32315e-08 1.48418e-08 1.83896e-08 0.55338 0.9192 0 0 0 0 0 0 0 0 0 0 0 0 0 0 0 0 0 0 0 0 0 0 0 0 0 0 0 0 0 0 0 0 0 0 0 0 0 0 0 0 0 0
0.193164 3.34367e-08 1.47867e-08 1.865e-08 0.557771 0.910723 0 0 0 0 0 0 0 0 0 0 0 0 0 0 0 0 0 0 0 0 0 0 0 0 0 0 0 0 0 0 0 0 0 0 0 0 0 0 0 0 0 0
0.203079 3.36531e-08 1.47286e-08 1.89244e-08 0.562339 0.901819 0 0 0 0 0 0 0 0 0 0 0 0 0 0 0 0 0 0 0 0 0 0 0 0 0 0 0 0 0 0 0 0 0 0 0 0 0 0 0 0 0 0
0.213503 3.38808e-08 1.46676e-08 1.92133e-08 0.567083 0.892454 0 0 0 0 0 0 0 0 0 0 0 0 0 0 0 0 0 0 0 0 0 0 0 0 0 0 0 0 0 0 0 0 0 0 0 0 0 0 0 0 0 0
0.224463 3.41186e-08 1.46034e-08 1.95152e-08 0.571981 0.882608 0 0 0 0 0 0 0 0 0 0 0 0 0 0 0 0 0 0 0 0 0 0 0 0 0 0 0 0 0 0 0 0 0 0 0 0 0 0 0 0 0 0
0.235984 3.43704e-08 1.45359e-08 1.98345e-08 0.577081 0.872262 0 0 0 0 0 0 0 0 0 0 0 0 0 0 0 0 0 0 0 0 0 0 0 0 0 0 0 0 0 0 0 0 0 0 0 0 0 0 0 0 0 0
0.248097 3.46335e-08 1.44656e-08 2.01679e-08 0.582323 0.861404 0 0 0 0 0 0 0 0 0 0 0 0 0 0 0 0 0 0 0 0 0 0 0 0 0 0 0 0 0 0 0 0 0 0 0 0 0 0 0 0 0 0
0.260832 3.48402e-08 1.45828e-08 2.02574e-08 0.581438 0.857985 0 0 0 0 0 0 0 0 0 0 0 0 0 0 0 0 0 0 0 0 0 0 0 0 0 0 0 0 0 0 0 0 0 0 0 0 0 0 0 0 0 0
0.274221 3.50546e-08 1.47169e-08 2.03378e-08 0.580173 0.854856 0 0 0 0 0 0 0 0 0 0 0 0 0 0 0 0 0 0 0 0 0 0 0 0 0 0 0 0 0 0 0 0 0 0 0 0 0 0 0 0 0 0
0.288297 3.52795e-08 1.4858e-08 2.04216e-08 0.578851 0.851569 0 0 0 0 0 0 0 0 0 0 0 0 0 0 0 0 0 0 0 0 0 0 0 0 0 0 0 0 0 0 0 0 0 0 0 0 0 0 0 0 0 0
0.303095 3.55148e-08 1.50061e-08 2.05087e-08 0.577468 0.848113 0 0 0 0 0 0 0 0 0 0 0 0 0 0 0 0 0 0 0 0 0 0 0 0 0 0 0 0 0 0 0 0 0 0 0 0 0 0 0 0 0 0
0.318653 3.57632e-08 1.5162e-08 2.06012e-08 0.576045 0.844477 0 0 0 0 0 0 0 0 0 0 0 0 0 0 0 0 0 0 0 0 0 0 0 0 0 0 0 0 0 0 0 0 0 0 0 0 0 0 0 0 0 0
0.335009 3.59091e-08 1.52566e-08 2.06525e-08 0.575133 0.841962 0 0 0 0 0 0 0 0 0 0 0 0 0 0 0 0 0 0 0 0 0 0 0 0 0 0 0 0 0 0 0 0 0 0 0 0 0 0 0 0 0 0
0.352205 3.60163e-08 1.53292e-08 2.06871e-08 0.574383 0.839833 0 0 0 0 0 0 0 0 0 0 0 0 0 0 0 0 0 0 0 0 0 0 0 0 0 0 0 0 0 0 0 0 0 0 0 0 0 0 0 0 0 0
0.370284 3.61294e-08 1.54052e-08 2.07242e-08 0.573611 0.837594 0 0 0 0 0 0 0 0 0 0 0 0 0 0 0 0 0 0 0 0 0 0 0 0 0 0 0 0 0 0 0 0 0 0 0 0 0 0 0 0 0 0
0.389291 3.62496e-08 1.5486e-08 2.07636e-08 0.572795 0.835237 0 0 0 0 0 0 0 0 0 0 0 0 0 0 0 0 0 0 0 0 0 0 0 0 0 0 0 0 0 0 0 0 0 0 0 0 0 0 0 0 0 0
0.409273 3.64258e-08 1.53883e-08 2.10376e-08 0.577545 0.832934 0 0 0 0 0 0 0 0 0 0 0 0 0 0 0 0 0 0 0 0 0 0 0 0 0 0 0 0 0 0 0 0 0 0 0 0 0 0 0 0 0 0
0.430281 3.66498e-08 1.51541e-08 2.14957e-08 0.586516 0.830637 0 0 0 0 0 0 0 0 0 0 0 0 0 0 0 0 0 0 0 0 0 0 0 0 0 0 0 0 0 0 0 0 0 0 0 0 0 0 0 0 0 0
0.452368 3.68849e-08 1.4908e-08 2.19769e-08 0.595825 0.828226 0 0 0 0 0 0 0 0 0 0 0 0 0 0 0 0 0 0 0 0 0 0 0 0 0 0 0 0 0 0 0 0 0 0 0 0 0 0 0 0 0 0
0.475588 3.72837e-08 1.46578e-08 2.26258e-08 0.606856 0.826271 0 0 0 0 0 0 0 0 0 0 0 0 0 0 0 0 0 0 0 0 0 0 0 0 0 0 0 0 0 0 0 0 0 0 0 0 0 0 0 0 0 0
0.5 3.84736e-08 1.44384e-08 2.40352e-08 0.62472 0.827178 0 0 0 0 0 0 0 0 0 0 0 0 0 0 0 0 0 0 0 0 0 0 0 0 0 0 0 0 0 0 0 0 0 0 0 0 0 0 0 0 0 0
0.525665 3.97318e-08 1.42081e-08 2.55237e-08 0.6424 0.828162 0 0 0 0 0 0 0 0 0 0 0 0 0 0 0 0 0 0 0 0 0 0 0 0 0 0 0 0 0 0 0 0 0 0 0 0 0 0 0 0 0 0
0.552648 4.0368e-08 1.39649e-08 2.64031e-08 0.654061 0.824936 0 0 0 0 0 0 0 0 0 0 0 0 0 0 0 0 0 0 0 0 0 0 0 0 0 0 0 0 0 0 0 0 0 0 0 0 0 0 0 0 0 0
0.581015 3.87567e-08 1.37058e-08 2.50509e-08 0.646363 0.807407 0 0 0 0 0 0 0 0 0 0 0 0 0 0 0 0 0 0 0 0 0 0 0 0 0 0 0 0 0 0 0 0 0 0 0 0 0 0 0 0 0 0
0.610839 3.7062e-08 1.34334e-08 2.36286e-08 0.637543 0.788982 0 0 0 0 0 0 0 0 0 0 0 0 0 0 0 0 0 0 0 0 0 0 0 0 0 0 0 0 0 0 0 0 0 0 0 0 0 0 0 0 0 0
0.642193 3.62699e-08 1.33311e-08 2.29388e-08 0.632447 0.770676 0 0 0 0 0 0 0 0 0 0 0 0 0 0 0 0 0 0 0 0 0 0 0 0 0 0 0 0 0 0 0 0 0 0 0 0 0 0 0 0 0 0
0.675157 3.59008e-08 1.33099e-08 2.25908e-08 0.629257 0.751929 0 0 0 0 0 0 0 0 0 0 0 0 0 0 0 0 0 0 0 0 0 0 0 0 0 0 0 0 0 0 0 0 0 0 0 0 0 0 0 0 0 0
0.709813 3.61652e-08 1.32894e-08 2.28757e-08 0.632535 0.735828 0 0 0 0 0 0 0 0 0 0 0 0 0 0 0 0 0 0 0 0 0 0 0 0 0 0 0 0 0 0 0 0 0 0 0 0 0 0 0 0 0 0
0.746248 3.73484e-08 1.32702e-08 2.40782e-08 0.644692 0.723904 0 0 0 0 0 0 0 0 0 0 0 0 0 0 0 0 0 0 0 0 0 0 0 0 0 0 0 0 0 0 0 0 0 0 0 0 0 0 0 0 0 0
0.784553 3.84622e-08 1.32323e-08 2.52299e-08 0.655966 0.714994 0 0 0 0 0 0 0 0 0 0 0 0 0 0 0 0 0 0 0 0 0 0 0 0 0 0 0 0 0 0 0 0 0 0 0 0 0 0 0 0 0 0
0.824824 3.94289e-08 1.31646e-08 2.62642e-08 0.666117 0.711339 0 0 0 0 0 0 0 0 0 0 0 0 0 0 0 0 0 0 0 0 0 0 0 0 0 0 0 0 0 0 0 0 0 0 0 0 0 0 0 0 0 0
0.867162 4.0199e-08 1.29311e-08 2.72679e-08 0.678322 0.705812 0 0 0 0 0 0 0 0 0 0 0 0 0 0 0 0 0 0 0 0 0 0 0 0 0 0 0 0 0 0 0 0 0 0 0 0 0 0 0 0 0 0
0.911674 4.08038e-08 1.25498e-08 2.8254e-08 0.692435 0.698578 0 0 0 0 0 0 0 0 0 0 0 0 0 0 0 0 0 0 0 0 0 0 0 0 0 0 0 0 0 0 0 0 0 0 0 0 0 0 0 0 0 0
0.95847 4.18189e-08 1.23358e-08 2.94831e-08 0.705018 0.697935 0 0 0 0 0 0 0 0 0 0 0 0 0 0 0 0 0 0 0 0 0 0 0 0 0 0 0 0 0 0 0 0 0 0 0 0 0 0 0 0 0 0
1.00767 4.31565e-08 1.21675e-08 3.0989e-08 0.718062 0.70099 0 0 0 0 0 0 0 0 0 0 0 0 0 0 0 0 0 0 0 0 0 0 0 0 0 0 0 0 0 0 0 0 0 0 0 0 0 0 0 0 0 0
1.05939 4.50543e-08 1.20489e-08 3.30054e-08 0.732569 0.710202 0 0 0 0 0 0 0 0 0 0 0 0 0 0 0 0 0 0 0 0 0 0 0 0 0 0 0 0 0 0 0 0 0 0 0 0 0 0 0 0 0 0
1.11377 4.75566e-08 1.18069e-08 3.57497e-08 0.751729 0.718063 0 0 0 0 0 0 0 0 0 0 0 0 0 0 0 0 0 0 0 0 0 0 0 0 0 0 0 0 0 0 0 0 0 0 0 0 0 0 0 0 0 0
1.17094 5.04503e-08 1.16717e-08 3.87786e-08 0.76865 0.724441 0 0 0 0 0 0 0 0 0 0 0 0 0 0 0 0 0 0 0 0 0 0 0 0 0 0 0 0 0 0 0 0 0 0 0 0 0 0 0 0 0 0
1.23105 5.36534e-08 1.16754e-08 4.1978e-08 0.782391 0.728293 0 0 0 0 0 0 0 0 0 0 0 0 0 0 0 0 0 0 0 0 0 0 0 0 0 0 0 0 0 0 0 0 0 0 0 0 0 0 0 0 0 0
1.29424 5.69388e-08 1.16926e-08 4.52463e-08 0.794647 0.728001 0 0 0 0 0 0 0 0 0 0 0 0 0 0 0 0 0 0 0 0 0 0 0 0 0 0 0 0 0 0 0 0 0 0 0 0 0 0 0 0 0 0
1.36067 5.96779e-08 1.15611e-08 4.81168e-08 0.806275 0.726197 0 0 0 0 0 0 0 0 0 0 0 0 0 0 0 0 0 0 0 0 0 0 0 0 0 0 0 0 0 0 0 0 0 0 0 0 0 0 0 0 0 0
1.43051 6.20553e-08 1.15201e-08 5.05351e-08 0.814357 0.733063 0 0 0 0 0 0 0 0 0 0 0 0 0 0 0 0 0 0 0 0 0 0 0 0 0 0 0 0 0 0 0 0 0 0 0 0 0 0 0 0 0 0
1.50394 6.4826e-08 1.15611e-08 5.32649e-08 0.82166 0.736839 0 0 0 0 0 0 0 0 0 0 0 0 0 0 0 0 0 0 0 0 0 0 0 0 0 0 0 0 0 0 0 0 0 0 0 0 0 0 0 0 0 0
1.58114 6.68659e-08 1.14064e-08 5.54595e-08 0.829414 0.730715 0 0 0 0 0 0 0 0 0 0 0 0 0 0 0 0 0 0 0 0 0 0 0 0 0 0 0 0 0 0 0 0 0 0 0 0 0 0 0 0 0 0
1.6623 6.73429e-08 1.1197e-08 5.61459e-08 0.833731 0.722661 0 0 0 0 0 0 0 0 0 0 0 0 0 0 0 0 0 0 0 0 0 0 0 0 0 0 0 0 0 0 0 0 0 0 0 0 0 0 0 0 0 0
1.74763 6.7024e-08 1.10282e-08 5.59959e-08 0.83546 0.714501 0 0 0 0 0 0 0 0 0 0 0 0 0 0 0 0 0 0 0 0 0 0 0 0 0 0 0 0 0 0 0 0 0 0 0 0 0 0 0 0 0 0
1.83733 6.62136e-08 1.06652e-08 5.55484e-08 0.838927 0.700645 0 0 0 0 0 0 0 0 0 0 0 0 0 0 0 0 0 0 0 0 0 0 0 0 0 0 0 0 0 0 0 0 0 0 0 0 0 0 0 0 0 0
1.93164 6.46545e-08 1.00947e-08 5.45597e-08 0.843866 0.681614 0 0 0 0 0 0 0 0 0 0 0 0 0 0 0 0 0 0 0 0 0 0 0 0 0 0 0 0 0 0 0 0 0 0 0 0 0 0 0 0 0 0
2.03079 6.25344e-08 9.60636e-09 5.2928e-08 0.846383 0.665508 0 0 0 0 0 0 0 0 0 0 0 0 0 0 0 0 0 0 0 0 0 0 0 0 0 0 0 0 0 0 0 0 0 0 0 0 0 0 0 0 0 0
2.13503 6.00411e-08 9.3362e-09 5.07049e-08 0.844503 0.657942 0 0 0 0 0 0 0 0 0 0 0 0 0 0 0 0 0 0 0 0 0 0 0 0 0 0 0 0 0 0 0 0 0 0 0 0 0 0 0 0 0 0
2.24463 5.69913e-08 9.06778e-09 4.79235e-08 0.840892 0.653889 0 0 0 0 0 0 0 0 0 0 0 0 0 0 0 0 0 0 0 0 0 0 0 0 0 0 0 0 0 0 0 0 0 0 0 0 0 0 0 0 0 0
2.35984 5.32421e-08 8.64632e-09 4.45958e-08 0.837604 0.647361 0 0 0 0 0 0 0 0 0 0 0 0 0 0 0 0 0 0 0 0 0 0 0 0 0 0 0 0 0 0 0 0 0 0 0 0 0 0 0 0 0 0
2.48097 4.90328e-08 8.11415e-09 4.09186e-08 0.834516 0.636723 0 0 0 0 0 0 0 0 0 0 0 0 0 0 0 0 0 0 0 0 0 0 0 0 0 0 0 0 0 0 0 0 0 0 0 0 0 0 0 0 0 0
2.60832 4.45807e-08 7.5713e-09 3.70094e-08 0.830166 0.623913 0 0 0 0 0 0 0 0 0 0 0 0 0 0 0 0 0 0 0 0 0 0 0 0 0 0 0 0 0 0 0 0 0 0 0 0 0 0 0 0 0 0
2.74221 3.99004e-08 7.03323e-09 3.28672e-08 0.82373 0.610332 0 0 0 0 0 0 0 0 0 0 0 0 0 0 0 0 0 0 0 0 0 0 0 0 0 0 0 0 0 0 0 0 0 0 0 0 0 0 0 0 0 0
2.88297 3.50412e-08 6.46193e-09 2.85793e-08 0.815591 0.594609 0 0 0 0 0 0 0 0 0 0 0 0 0 0 0 0 0 0 0 0 0 0 0 0 0 0 0 0 0 0 0 0 0 0 0 0 0 0 0 0 0 0
3.03095 3.02095e-08 5.84205e-09 2.43675e-08 0.806616 0.574342 0 0 0 0 0 0 0 0 0 0 0 0 0 0 0 0 0 0 0 0 0 0 0 0 0 0 0 0 0 0 0 0 0 0 0 0 0 0 0 0 0 0
3.18653 2.56508e-08 5.22836e-09 2.04225e-08 0.796172 0.546862 0 0 0 0 0 0 0 0 0 0 0 0 0 0 0 0 0 0 0 0 0 0 0 0 0 0 0 0 0 0 0 0 0 0 0 0 0 0 0 0 0 0
3.35009 2.21375e-08 5.51374e-09 1.66237e-08 0.750932 0.513256 0 0 0 0 0 0 0 0 0 0 0 0 0 0 0 0 0 0 0 0 0 0 0 0 0 0 0 0 0 0 0 0 0 0 0 0 0 0 0 0 0 0
3.52205 2.05789e-08 5.02807e-09 1.55509e-08 0.755669 0.478517 0 0 0 0 0 0 0 0 0 0 0 0 0 0 0 0 0 0 0 0 0 0 0 0 0 0 0 0 0 0 0 0 0 0 0 0 0 0 0 0 0 0
3.70284 1.65926e-08 3.60871e-09 1.29839e-08 0.782511 0.43475 0 0 0 0 0 0 0 0 0 0 0 0 0 0 0 0 0 0 0 0 0 0 0 0 0 0 0 0 0 0 0 0 0 0 0 0 0 0 0 0 0 0
3.89291 1.41414e-08 3.17874e-09 1.09627e-08 0.775218 0.394258 0 0 0 0 0 0 0 0 0 0 0 0 0 0 0 0 0 0 0 0 0 0 0 0 0 0 0 0 0 0 0 0 0 0 0 0 0 0 0 0 0 0
4.09273 1.21238e-08 2.83893e-09 9.28484e-09 0.765838 0.356421 0 0 0 0 0 0 0 0 0 0 0 0 0 0 0 0 0 0 0 0 0 0 0 0 0 0 0 0 0 0 0 0 0 0 0 0 0 0 0 0 0 0
4.30281 1.04048e-08 2.55629e-09 7.84851e-09 0.754316 0.321942 0 0 0 0 0 0 0 0 0 0 0 0 0 0 0 0 0 0 0 0 0 0 0 0 0 0 0 0 0 0 0 0 0 0 0 0 0 0 0 0 0 0
4.52368 8.9295e-09 2.31695e-09 6.61255e-09 0.740528 0.290845 0 0 0 0 0 0 0 0 0 0 0 0 0 0 0 0 0 0 0 0 0 0 0 0 0 0 0 0 0 0 0 0 0 0 0 0 0 0 0 0 0 0
4.75588 7.65649e-09 2.10983e-09 5.54666e-09 0.724439 0.262974 0 0 0 0 0 0 0 0 0 0 0 0 0 0 0 0 0 0 0 0 0 0 0 0 0 0 0 0 0 0 0 0 0 0 0 0 0 0 0 0 0 0
5 6.5633e-09 1.9288e-09 4.6345e-09 0.706123 0.238113 0 0 0 0 0 0 0 0 0 0 0 0 0 0 0 0 0 0 0 0 0 0 0 0 0 0 0 0 0 0 0 0 0 0 0 0 0 0 0 0 0 0
5.25665 5.6251e-09 1.7682e-09 3.8569e-09 0.685659 0.215947 0 0 0 0 0 0 0 0 0 0 0 0 0 0 0 0 0 0 0 0 0 0 0 0 0 0 0 0 0 0 0 0 0 0 0 0 1.4013e-45 0 2.8026e-45 0 9.80909e-45 0
5.52648 4.82502e-09 1.62578e-09 3.19924e-09 0.663052 0.19597 0 0 0 0 0 0 0 0 0 0 0 0 0 0 0 0 0 0 0 0 0 0 0 0 0 0 0 0 1.4013e-45 0 2.8026e-45 0 1.4013e-44 0 4.76441e-44 0 1.52742e-43 0 4.56823e-43 0 1.27238e-42 0
5.81015 4.14512e-09 1.50035e-09 2.64476e-09 0.638043 0.17795 0 0 0 0 0 0 0 0 0 0 0 0 0 0 0 0 0 0 0 0 0 0 1.4013e-45 0 5.60519e-45 0 2.66247e-44 0 1.23314e-43 0 4.97461e-43 0 1.79366e-42 0 5.98354e-42 0 1.81174e-41 0 5.12119e-41 0 1.35605e-40 0
6.10839 3.59893e-09 1.41984e-09 2.17909e-09 0.605483 0.161625 0 0 0 0 0 0 0 0 0 0 0 0 0 0 0 0 0 0 1.4013e-45 0 1.68156e-44 0 1.23314e-43 0 6.99248e-43 0 3.47102e-42 0 1.49126e-41 0 5.59959e-41 0 1.89695e-40 0 5.96554e-40 0 1.7113e-39 0 4.59794e-39 0 1.16098e-38 0
6.42193 3.11614e-09 1.3101e-09 1.80603e-09 0.579574 0.147519 0 0 0 0 0 0 0 0 0 0 0 0 0 0 1.4013e-45 0 2.52234e-44 0 2.73253e-43 0 2.22106e-42 0 1.42848e-41 0 7.43123e-41 0 3.41372e-40 0 1.36599e-39 0 4.80847e-39 0 1.53475e-38 0 4.5639e-38 0 1.24356e-37 0 3.18382e-37 0 7.68369e-37 0
6.75157 2.71888e-09 1.24007e-09 1.47881e-09 0.543903 0.134131 0 0 0 0 0 0 0 0 0 0 0 0 9.80909e-45 0 2.24208e-43 0 3.10247e-42 0 3.07179e-41 0 2.25326e-40 0 1.32365e-39 0 6.3529e-39 0 2.70901e-38 0 1.01305e-37 0 3.35353e-37 0 1.0114e-36 0 2.85177e-36 0 7.3993e-36 0 1.80941e-35 0 4.18291e-35 0
7.09813 2.42628e-09 1.19985e-09 1.22643e-09 0.505479 0.122039 0 0 0 0 0 0 0 0 0 0 3.36312e-44 0 1.30181e-42 0 2.55877e-41 0 3.11956e-40 0 2.76123e-39 0 1.83767e-38 0 9.90115e-38 0 4.40175e-37 0 1.74869e-36 0 6.13146e-36 0 1.9145e-35 0 5.47103e-35 0 1.46649e-34 0 3.63194e-34 0 8.50208e-34 0 1.88667e-33 0
7.46248 2.19642e-09 1.12129e-09 1.07513e-09 0.48949 0.113317 0 0 0 0 0 0 0 0 4.76441e-44 0 4.01612e-42 0 1.3006e-40 0 2.21071e-39 0 2.3854e-38 0 1.89817e-37 0 1.15162e-36 0 5.715e-36 0 2.36222e-35 0 8.77321e-35 0 2.89339e-34 0 8.54586e-34 0 2.32009e-33 0 5.92664e-33 0 1.40423e-32 0 3.15348e-32 0 6.73069e-32 0
7.84553 1.95301e-09 1.03425e-09 9.18755e-10 0.470431 0.104253 0 0 0 0 0 0 1.82169e-44 0 5.41882e-42 0 3.69145e-40 0 1.00864e-38 0 1.49297e-37 0 1.43431e-36 0 1.03143e-35 0 5.73039e-35 0 2.62981e-34 0 1.01423e-33 0 3.53309e-33 0 1.09926e-32 0 3.07953e-32 0 7.96264e-32 0 1.94301e-31 0 4.4138e-31 0 9.52817e-31 0 1.95976e-30 0
8.24824 1.69708e-09 9.42739e-10 7.54342e-10 0.444494 0.0947158 0 0 0 0 0 0 2.12297e-42 0 4.77251e-40 0 2.64549e-38 0 6.15047e-37 0 7.98146e-36 0 6.86596e-35 0 4.48397e-34 0 2.29112e-33 0 9.76065e-33 0 3.52429e-32 0 1.15511e-31 0 3.40018e-31 0 9.05823e-31 0 2.236e-30 0 5.22365e-30 0 1.14003e-29 0 2.37025e-29 0 4.70649e-29 0
8.67162 1.42803e-09 8.46534e-10 5.81496e-10 0.407202 0.0846929 0 0 0 0 7.84727e-44 0 1.8958e-40 0 3.2721e-38 0 1.4909e-36 0 2.9726e-35 0 3.40378e-34 0 2.63602e-33 0 1.5708e-32 0 7.41171e-32 0 2.94184e-31 0 9.9767e-31 0 3.0858e-30 0 8.61696e-30 0 2.18836e-29 0 5.16877e-29 0 1.1585e-28 0 2.43383e-28 0 4.88258e-28 0 9.37578e-28 0
9.11674 1.2706e-09 7.84519e-10 4.86077e-10 0.382558 0.0776388 0 0 0 0 8.29569e-42 0 1.379e-38 0 1.85087e-36 0 6.99869e-35 0 1.20573e-33 0 1.22568e-32 0 8.58936e-32 0 4.69122e-31 0 2.05204e-30 0 7.61475e-30 0 2.43293e-29 0 7.12145e-29 0 1.89138e-28 0 4.58967e-28 0 1.0395e-27 0 2.23987e-27 0 4.5381e-27 0 8.79978e-27 0 1.6368e-26 0
9.5847 1.15154e-09 7.33823e-10 4.17718e-10 0.362747 0.0715118 0 0 1.4013e-45 0 6.98329e-40 0 8.08253e-37 0 8.54024e-35 0 2.70448e-33 0 4.0547e-32 0 3.68057e-31 0 2.34538e-30 0 1.17907e-29 0 4.79897e-29 0 1.67037e-28 0 5.04263e-28 0 1.40063e-27 0 3.54668e-27 0 8.24188e-27 0 1.79364e-26 0 3.72268e-26 0 7.28677e-26 0 1.36801e-25 0 2.46862e-25 0
10.0767 1.02636e-09 6.80514e-10 3.45849e-10 0.336965 0.0650707 0 0 1.33123e-43 0 4.62196e-38 0 3.7909e-35 0 3.19043e-33 0 8.53487e-32 0 1.12114e-30 0 9.13789e-30 0 5.31955e-29 0 2.47149e-28 0 9.39301e-28 0 3.07627e-27 0 8.79912e-27 0 2.32511e-26 0 5.62655e-26 0 1.25478e-25 0 2.62899e-25 0 5.26532e-25 0 9.97386e-25 0 1.81578e-24 0 3.18354e-24 0
10.5939 8.9476e-10 6.24472e-10 2.70287e-10 0.302078 0.0582989 0 0 1.30293e-41 0 2.42784e-36 0 1.43505e-33 0 9.72706e-32 0 2.21636e-30 0 2.56742e-29 0 1.88883e-28 0 1.00895e-27 0 4.34896e-27 0 1.54853e-26 0 4.78613e-26 0 1.30052e-25 0 3.2773e-25 0 7.59585e-25 0 1.6289e-24 0 3.2918e-24 0 6.37297e-24 0 1.17013e-23 0 2.06886e-23 0 3.52917e-23 0
11.1377 7.9498e-10 5.79123e-10 2.15857e-10 0.271525 0.0527541 1.4013e-45 0 1.01412e-39 0 1.04488e-34 0 4.52263e-32 0 2.49519e-30 0 4.88064e-29 0 5.01639e-28 0 3.3479e-27 0 1.64787e-26 0 6.61389e-26 0 2.21342e-25 0 6.47442e-25 0 1.67547e-24 0 4.03589e-24 0 8.97791e-24 0 1.85489e-23 0 3.62191e-23 0 6.78952e-23 0 1.21017e-22 0 2.08094e-22 0 3.45841e-22 0
11.7094 7.33851e-10 5.46841e-10 1.8701e-10 0.254833 0.0487125 2.22806e-43 0 6.3951e-38 0 3.75035e-33 0 1.20692e-30 0 5.47464e-29 0 9.26142e-28 0 8.49545e-27 0 5.16795e-26 0 2.35328e-25 0 8.82556e-25 0 2.78443e-24 0 7.72884e-24 0 1.90936e-23 0 4.40605e-23 0 9.42611e-23 0 1.8797e-22 0 3.55238e-22 0 6.45798e-22 0 1.11905e-21 0 1.87399e-21 0 3.03818e-21 0
12.3105 6.69597e-10 5.12897e-10 1.567e-10 0.234021 0.044463 2.07252e-41 0 3.22323e-36 0 1.10589e-31 0 2.68465e-29 0 1.01083e-27 0 1.48946e-26 0 1.22615e-25 0 6.82954e-25 0 2.88804e-24 0 1.01541e-23 0 3.02883e-23 0 7.99844e-23 0 1.89061e-22 0 4.18825e-22 0 8.63356e-22 0 1.6646e-21 0 3.04962e-21 0 5.38454e-21 0 9.08333e-21 0 1.48331e-20 0 2.34872e-20 0
