# 0.000535041 1 92 : grain size, compostion index, size index
# Heating and cooling timescale: 1.14827e-05 1.51833e+12
# Ratio of heating to cooling to determine stochastic cutoff: 100
# Equilibrium emission is recorded even for those grains in the stochastic regime.
# Emission spectrum was computed for: 
# Type: IRSF
# Scales: 0.25 0.5 1 1.5 2 2.5 3 3.5 4 4.5 5 5.5 6 6.5 7 7.5 8 8.5 9 9.5 10
# StochasticallyHeated: 0 0 0 0 0 0 0 0 0 0 0 0 0 0 0 0 0 0 0 0 0
# Temperature: -1
# Wavelength  CExt  CAbs  CSca  Albedo G EqEm1 StEm1 EqEm2 StEm2 EqEm3 StEm3 EqEm4 StEm4 EqEm5 StEm5 EqEm6 StEm6 EqEm7 StEm7 EqEm8 StEm8 EqEm9 StEm9 EqEm10 StEm10 EqEm11 StEm11 EqEm12 StEm12 EqEm13 StEm13 EqEm14 StEm14 EqEm15 StEm15 EqEm16 StEm16 EqEm17 StEm17 EqEm18 StEm18 EqEm19 StEm19 EqEm20 StEm20 EqEm21 StEm21
0.05 1.81896e-06 6.39616e-07 1.17934e-06 0.648361 0.855502 0 0 0 0 0 0 0 0 0 0 0 0 0 0 0 0 0 0 0 0 0 0 0 0 0 0 0 0 0 0 0 0 0 0 0 0 0 0 0 0 0 0
0.0525665 1.82004e-06 6.29634e-07 1.19041e-06 0.654055 0.843177 0 0 0 0 0 0 0 0 0 0 0 0 0 0 0 0 0 0 0 0 0 0 0 0 0 0 0 0 0 0 0 0 0 0 0 0 0 0 0 0 0 0
0.0552647 1.82118e-06 6.22224e-07 1.19896e-06 0.658341 0.832953 0 0 0 0 0 0 0 0 0 0 0 0 0 0 0 0 0 0 0 0 0 0 0 0 0 0 0 0 0 0 0 0 0 0 0 0 0 0 0 0 0 0
0.0581015 1.82229e-06 6.1911e-07 1.20318e-06 0.660257 0.826695 0 0 0 0 0 0 0 0 0 0 0 0 0 0 0 0 0 0 0 0 0 0 0 0 0 0 0 0 0 0 0 0 0 0 0 0 0 0 0 0 0 0
0.0610839 1.8234e-06 6.10674e-07 1.21272e-06 0.66509 0.81808 0 0 0 0 0 0 0 0 0 0 0 0 0 0 0 0 0 0 0 0 0 0 0 0 0 0 0 0 0 0 0 0 0 0 0 0 0 0 0 0 0 0
0.0642193 1.82477e-06 5.89182e-07 1.23559e-06 0.67712 0.800077 0 0 0 0 0 0 0 0 0 0 0 0 0 0 0 0 0 0 0 0 0 0 0 0 0 0 0 0 0 0 0 0 0 0 0 0 0 0 0 0 0 0
0.0675157 1.82651e-06 5.68113e-07 1.2584e-06 0.688962 0.780414 0 0 0 0 0 0 0 0 0 0 0 0 0 0 0 0 0 0 0 0 0 0 0 0 0 0 0 0 0 0 0 0 0 0 0 0 0 0 0 0 0 0
0.0709813 1.82837e-06 5.66872e-07 1.2615e-06 0.689957 0.773443 0 0 0 0 0 0 0 0 0 0 0 0 0 0 0 0 0 0 0 0 0 0 0 0 0 0 0 0 0 0 0 0 0 0 0 0 0 0 0 0 0 0
0.0746248 1.83016e-06 5.76485e-07 1.25367e-06 0.685008 0.774835 0 0 0 0 0 0 0 0 0 0 0 0 0 0 0 0 0 0 0 0 0 0 0 0 0 0 0 0 0 0 0 0 0 0 0 0 0 0 0 0 0 0
0.0784553 1.83185e-06 5.8948e-07 1.24237e-06 0.678205 0.779727 0 0 0 0 0 0 0 0 0 0 0 0 0 0 0 0 0 0 0 0 0 0 0 0 0 0 0 0 0 0 0 0 0 0 0 0 0 0 0 0 0 0
0.0824824 1.83351e-06 6.04254e-07 1.22925e-06 0.670438 0.78557 0 0 0 0 0 0 0 0 0 0 0 0 0 0 0 0 0 0 0 0 0 0 0 0 0 0 0 0 0 0 0 0 0 0 0 0 0 0 0 0 0 0
0.0867162 1.8352e-06 6.0849e-07 1.22671e-06 0.668434 0.784504 0 0 0 0 0 0 0 0 0 0 0 0 0 0 0 0 0 0 0 0 0 0 0 0 0 0 0 0 0 0 0 0 0 0 0 0 0 0 0 0 0 0
0.0911674 1.83712e-06 6.06909e-07 1.23021e-06 0.669641 0.77946 0 0 0 0 0 0 0 0 0 0 0 0 0 0 0 0 0 0 0 0 0 0 0 0 0 0 0 0 0 0 0 0 0 0 0 0 0 0 0 0 0 0
0.095847 1.83904e-06 6.1092e-07 1.22812e-06 0.667806 0.777738 0 0 0 0 0 0 0 0 0 0 0 0 0 0 0 0 0 0 0 0 0 0 0 0 0 0 0 0 0 0 0 0 0 0 0 0 0 0 0 0 0 0
0.100767 1.84032e-06 6.33468e-07 1.20685e-06 0.655783 0.788987 0 0 0 0 0 0 0 0 0 0 0 0 0 0 0 0 0 0 0 0 0 0 0 0 0 0 0 0 0 0 0 0 0 0 0 0 0 0 0 0 0 0
0.105939 1.84117e-06 6.55732e-07 1.18544e-06 0.64385 0.803386 0 0 0 0 0 0 0 0 0 0 0 0 0 0 0 0 0 0 0 0 0 0 0 0 0 0 0 0 0 0 0 0 0 0 0 0 0 0 0 0 0 0
0.111377 1.84096e-06 6.95113e-07 1.14585e-06 0.622418 0.830862 0 0 0 0 0 0 0 0 0 0 0 0 0 0 0 0 0 0 0 0 0 0 0 0 0 0 0 0 0 0 0 0 0 0 0 0 0 0 0 0 0 0
0.117094 1.84078e-06 7.3504e-07 1.10574e-06 0.600691 0.862728 0 0 0 0 0 0 0 0 0 0 0 0 0 0 0 0 0 0 0 0 0 0 0 0 0 0 0 0 0 0 0 0 0 0 0 0 0 0 0 0 0 0
0.123105 1.84141e-06 7.61163e-07 1.08025e-06 0.586641 0.885044 0 0 0 0 0 0 0 0 0 0 0 0 0 0 0 0 0 0 0 0 0 0 0 0 0 0 0 0 0 0 0 0 0 0 0 0 0 0 0 0 0 0
0.129424 1.84233e-06 7.8361e-07 1.05872e-06 0.574665 0.904727 0 0 0 0 0 0 0 0 0 0 0 0 0 0 0 0 0 0 0 0 0 0 0 0 0 0 0 0 0 0 0 0 0 0 0 0 0 0 0 0 0 0
0.136067 1.84327e-06 8.01802e-07 1.04147e-06 0.565011 0.920683 0 0 0 0 0 0 0 0 0 0 0 0 0 0 0 0 0 0 0 0 0 0 0 0 0 0 0 0 0 0 0 0 0 0 0 0 0 0 0 0 0 0
0.143051 1.84385e-06 8.16007e-07 1.02785e-06 0.557445 0.933123 0 0 0 0 0 0 0 0 0 0 0 0 0 0 0 0 0 0 0 0 0 0 0 0 0 0 0 0 0 0 0 0 0 0 0 0 0 0 0 0 0 0
0.150394 1.84373e-06 8.23817e-07 1.01991e-06 0.553178 0.941135 0 0 0 0 0 0 0 0 0 0 0 0 0 0 0 0 0 0 0 0 0 0 0 0 0 0 0 0 0 0 0 0 0 0 0 0 0 0 0 0 0 0
0.158114 1.84348e-06 8.20402e-07 1.02308e-06 0.554971 0.941998 0 0 0 0 0 0 0 0 0 0 0 0 0 0 0 0 0 0 0 0 0 0 0 0 0 0 0 0 0 0 0 0 0 0 0 0 0 0 0 0 0 0
0.16623 1.84442e-06 8.00258e-07 1.04417e-06 0.56612 0.931405 0 0 0 0 0 0 0 0 0 0 0 0 0 0 0 0 0 0 0 0 0 0 0 0 0 0 0 0 0 0 0 0 0 0 0 0 0 0 0 0 0 0
0.174762 1.84726e-06 7.62123e-07 1.08513e-06 0.58743 0.905497 0 0 0 0 0 0 0 0 0 0 0 0 0 0 0 0 0 0 0 0 0 0 0 0 0 0 0 0 0 0 0 0 0 0 0 0 0 0 0 0 0 0
0.183733 1.85091e-06 7.14924e-07 1.13599e-06 0.613745 0.870566 0 0 0 0 0 0 0 0 0 0 0 0 0 0 0 0 0 0 0 0 0 0 0 0 0 0 0 0 0 0 0 0 0 0 0 0 0 0 0 0 0 0
0.193164 1.85503e-06 6.66422e-07 1.18861e-06 0.640749 0.834654 0 0 0 0 0 0 0 0 0 0 0 0 0 0 0 0 0 0 0 0 0 0 0 0 0 0 0 0 0 0 0 0 0 0 0 0 0 0 0 0 0 0
0.203079 1.8595e-06 6.24787e-07 1.23471e-06 0.664003 0.805026 0 0 0 0 0 0 0 0 0 0 0 0 0 0 0 0 0 0 0 0 0 0 0 0 0 0 0 0 0 0 0 0 0 0 0 0 0 0 0 0 0 0
0.213503 1.86441e-06 5.8952e-07 1.27489e-06 0.683803 0.780997 0 0 0 0 0 0 0 0 0 0 0 0 0 0 0 0 0 0 0 0 0 0 0 0 0 0 0 0 0 0 0 0 0 0 0 0 0 0 0 0 0 0
0.224463 1.87026e-06 5.67427e-07 1.30283e-06 0.696605 0.764488 0 0 0 0 0 0 0 0 0 0 0 0 0 0 0 0 0 0 0 0 0 0 0 0 0 0 0 0 0 0 0 0 0 0 0 0 0 0 0 0 0 0
0.235984 1.87688e-06 5.56918e-07 1.31996e-06 0.703274 0.753462 0 0 0 0 0 0 0 0 0 0 0 0 0 0 0 0 0 0 0 0 0 0 0 0 0 0 0 0 0 0 0 0 0 0 0 0 0 0 0 0 0 0
0.248097 1.88352e-06 5.63906e-07 1.31961e-06 0.700611 0.74991 0 0 0 0 0 0 0 0 0 0 0 0 0 0 0 0 0 0 0 0 0 0 0 0 0 0 0 0 0 0 0 0 0 0 0 0 0 0 0 0 0 0
0.260832 1.88788e-06 5.80738e-07 1.30714e-06 0.692386 0.751883 0 0 0 0 0 0 0 0 0 0 0 0 0 0 0 0 0 0 0 0 0 0 0 0 0 0 0 0 0 0 0 0 0 0 0 0 0 0 0 0 0 0
0.274221 1.88985e-06 5.99004e-07 1.29084e-06 0.683041 0.755704 0 0 0 0 0 0 0 0 0 0 0 0 0 0 0 0 0 0 0 0 0 0 0 0 0 0 0 0 0 0 0 0 0 0 0 0 0 0 0 0 0 0
0.288297 1.89e-06 6.21015e-07 1.26898e-06 0.67142 0.764647 0 0 0 0 0 0 0 0 0 0 0 0 0 0 0 0 0 0 0 0 0 0 0 0 0 0 0 0 0 0 0 0 0 0 0 0 0 0 0 0 0 0
0.303095 1.89083e-06 6.36344e-07 1.25448e-06 0.663458 0.77152 0 0 0 0 0 0 0 0 0 0 0 0 0 0 0 0 0 0 0 0 0 0 0 0 0 0 0 0 0 0 0 0 0 0 0 0 0 0 0 0 0 0
0.318653 1.892e-06 6.49021e-07 1.24298e-06 0.656965 0.777586 0 0 0 0 0 0 0 0 0 0 0 0 0 0 0 0 0 0 0 0 0 0 0 0 0 0 0 0 0 0 0 0 0 0 0 0 0 0 0 0 0 0
0.335009 1.89365e-06 6.59371e-07 1.23428e-06 0.651798 0.782826 0 0 0 0 0 0 0 0 0 0 0 0 0 0 0 0 0 0 0 0 0 0 0 0 0 0 0 0 0 0 0 0 0 0 0 0 0 0 0 0 0 0
0.352205 1.8958e-06 6.66984e-07 1.22882e-06 0.648178 0.786528 0 0 0 0 0 0 0 0 0 0 0 0 0 0 0 0 0 0 0 0 0 0 0 0 0 0 0 0 0 0 0 0 0 0 0 0 0 0 0 0 0 0
0.370284 1.89831e-06 6.72468e-07 1.22584e-06 0.645754 0.788805 0 0 0 0 0 0 0 0 0 0 0 0 0 0 0 0 0 0 0 0 0 0 0 0 0 0 0 0 0 0 0 0 0 0 0 0 0 0 0 0 0 0
0.389291 1.90105e-06 6.76079e-07 1.22497e-06 0.644365 0.789653 0 0 0 0 0 0 0 0 0 0 0 0 0 0 0 0 0 0 0 0 0 0 0 0 0 0 0 0 0 0 0 0 0 0 0 0 0 0 0 0 0 0
0.409273 1.9039e-06 6.79162e-07 1.22473e-06 0.643278 0.790138 0 0 0 0 0 0 0 0 0 0 0 0 0 0 0 0 0 0 0 0 0 0 0 0 0 0 0 0 0 0 0 0 0 0 0 0 0 0 0 0 0 0
0.430281 1.90681e-06 6.82011e-07 1.2248e-06 0.642329 0.790459 0 0 0 0 0 0 0 0 0 0 0 0 0 0 0 0 0 0 0 0 0 0 0 0 0 0 0 0 0 0 0 0 0 0 0 0 0 0 0 0 0 0
0.452368 1.90991e-06 6.84958e-07 1.22496e-06 0.641367 0.790965 0 0 0 0 0 0 0 0 0 0 0 0 0 0 0 0 0 0 0 0 0 0 0 0 0 0 0 0 0 0 0 0 0 0 0 0 0 0 0 0 0 0
0.475588 1.91315e-06 6.87818e-07 1.22533e-06 0.640478 0.791414 0 0 0 0 0 0 0 0 0 0 0 0 0 0 0 0 0 0 0 0 0 0 0 0 0 0 0 0 0 0 0 0 0 0 0 0 0 0 0 0 0 0
0.5 1.9166e-06 6.90352e-07 1.22625e-06 0.639804 0.791606 0 0 0 0 0 0 0 0 0 0 0 0 0 0 0 0 0 0 0 0 0 0 0 0 0 0 0 0 0 0 0 0 0 0 0 0 0 0 0 0 0 0
0.525665 1.92026e-06 6.92705e-07 1.22756e-06 0.639265 0.791639 0 0 0 0 0 0 0 0 0 0 0 0 0 0 0 0 0 0 0 0 0 0 0 0 0 0 0 0 0 0 0 0 0 0 0 0 0 0 0 0 0 0
0.552648 1.92403e-06 6.94963e-07 1.22907e-06 0.638798 0.791547 0 0 0 0 0 0 0 0 0 0 0 0 0 0 0 0 0 0 0 0 0 0 0 0 0 0 0 0 0 0 0 0 0 0 0 0 0 0 0 0 0 0
0.581015 1.92811e-06 6.96243e-07 1.23187e-06 0.6389 0.790678 0 0 0 0 0 0 0 0 0 0 0 0 0 0 0 0 0 0 0 0 0 0 0 0 0 0 0 0 0 0 0 0 0 0 0 0 0 0 0 0 0 0
0.610839 1.9323e-06 6.97527e-07 1.23477e-06 0.639017 0.789763 0 0 0 0 0 0 0 0 0 0 0 0 0 0 0 0 0 0 0 0 0 0 0 0 0 0 0 0 0 0 0 0 0 0 0 0 0 0 0 0 0 0
0.642193 1.93661e-06 6.98809e-07 1.2378e-06 0.639158 0.7888 0 0 0 0 0 0 0 0 0 0 0 0 0 0 0 0 0 0 0 0 0 0 0 0 0 0 0 0 0 0 0 0 0 0 0 0 0 0 0 0 0 0
0.675157 1.94107e-06 6.99729e-07 1.24134e-06 0.639513 0.78752 0 0 0 0 0 0 0 0 0 0 0 0 0 0 0 0 0 0 0 0 0 0 0 0 0 0 0 0 0 0 0 0 0 0 0 0 0 0 0 0 0 0
0.709813 1.94567e-06 7.00306e-07 1.24536e-06 0.640069 0.785943 0 0 0 0 0 0 0 0 0 0 0 0 0 0 0 0 0 0 0 0 0 0 0 0 0 0 0 0 0 0 0 0 0 0 0 0 0 0 0 0 0 0
0.746248 1.95036e-06 7.00727e-07 1.24963e-06 0.640718 0.784204 0 0 0 0 0 0 0 0 0 0 0 0 0 0 0 0 0 0 0 0 0 0 0 0 0 0 0 0 0 0 0 0 0 0 0 0 0 0 0 0 0 0
0.784553 1.95515e-06 7.01115e-07 1.25403e-06 0.641401 0.782413 0 0 0 0 0 0 0 0 0 0 0 0 0 0 0 0 0 0 0 0 0 0 0 0 0 0 0 0 0 0 0 0 0 0 0 0 0 0 0 0 0 0
0.824824 1.96001e-06 7.01476e-07 1.25854e-06 0.642106 0.780559 0 0 0 0 0 0 0 0 0 0 0 0 0 0 0 0 0 0 0 0 0 0 0 0 0 0 0 0 0 0 0 0 0 0 0 0 0 0 0 0 0 0
0.867162 1.96495e-06 7.018e-07 1.26315e-06 0.64284 0.778646 0 0 0 0 0 0 0 0 0 0 0 0 0 0 0 0 0 0 0 0 0 0 0 0 0 0 0 0 0 0 0 0 0 0 0 0 0 0 0 0 0 0
0.911674 1.96999e-06 7.02132e-07 1.26786e-06 0.643587 0.776713 0 0 0 0 0 0 0 0 0 0 0 0 0 0 0 0 0 0 0 0 0 0 0 0 0 0 0 0 0 0 0 0 0 0 0 0 0 0 0 0 0 0
0.95847 1.97509e-06 7.02571e-07 1.27252e-06 0.644284 0.774808 0 0 0 0 0 0 0 0 0 0 0 0 0 0 0 0 0 0 0 0 0 0 0 0 0 0 0 0 0 0 0 0 0 0 0 0 0 0 0 0 0 0
1.00767 1.97994e-06 7.02986e-07 1.27696e-06 0.644947 0.772831 0 0 0 0 0 0 0 0 0 0 0 0 0 0 0 0 0 0 0 0 0 0 0 0 0 0 0 0 0 0 0 0 0 0 0 0 0 0 0 0 0 0
1.05939 1.985e-06 7.03568e-07 1.28143e-06 0.645558 0.770933 0 0 0 0 0 0 0 0 0 0 0 0 0 0 0 0 0 0 0 0 0 0 0 0 0 0 0 0 0 0 0 0 0 0 0 0 0 0 0 0 0 0
1.11377 1.9913e-06 7.03974e-07 1.28732e-06 0.646475 0.769064 0 0 0 0 0 0 0 0 0 0 0 0 0 0 0 0 0 0 0 0 0 0 0 0 0 0 0 0 0 0 0 0 0 0 0 0 0 0 0 0 0 0
1.17094 1.99478e-06 7.04447e-07 1.29033e-06 0.646854 0.76686 0 0 0 0 0 0 0 0 0 0 0 0 0 0 0 0 0 0 0 0 0 0 0 0 0 0 0 0 0 0 0 0 0 0 0 0 0 0 0 0 0 0
1.23105 2.00191e-06 7.04571e-07 1.29734e-06 0.64805 0.764897 0 0 0 0 0 0 0 0 0 0 0 0 0 0 0 0 0 0 0 0 0 0 0 0 0 0 0 0 0 0 0 0 0 0 0 0 0 0 0 0 0 0
1.29424 2.00693e-06 7.04153e-07 1.30278e-06 0.64914 0.762401 0 0 0 0 0 0 0 0 0 0 0 0 0 0 0 0 0 0 0 0 0 0 0 0 0 0 0 0 0 0 0 0 0 0 0 0 0 0 0 0 0 0
1.36067 2.01209e-06 7.03237e-07 1.30885e-06 0.650494 0.759663 0 0 0 0 0 0 0 0 0 0 0 0 0 0 0 0 0 0 0 0 0 0 0 0 0 0 0 0 0 0 0 0 0 0 0 0 0 0 0 0 0 0
1.43051 2.0186e-06 7.01665e-07 1.31693e-06 0.652399 0.756958 0 0 0 0 0 0 0 0 0 0 0 0 0 0 0 0 0 0 0 0 0 0 0 0 0 0 0 0 0 0 0 0 0 0 0 0 0 0 0 0 0 0
1.50394 2.02539e-06 6.99778e-07 1.32562e-06 0.654498 0.753845 0 0 0 0 0 0 0 0 0 0 0 0 0 0 0 0 0 0 0 0 0 0 0 0 0 0 0 0 0 0 0 0 0 0 0 0 0 0 0 0 0 0
1.58114 2.02517e-06 6.97007e-07 1.32817e-06 0.655829 0.749582 0 0 0 0 0 0 0 0 0 0 0 0 0 0 0 0 0 0 0 0 0 0 0 0 0 0 0 0 0 0 0 0 0 0 0 0 0 0 0 0 0 0
1.6623 2.04687e-06 6.92276e-07 1.3546e-06 0.661789 0.747365 0 0 0 0 0 0 0 0 0 0 0 0 0 0 0 0 0 0 0 0 0 0 0 0 0 0 0 0 0 0 0 0 0 0 0 0 0 0 0 0 0 0
1.74763 2.02939e-06 6.88819e-07 1.34057e-06 0.660579 0.74088 0 0 0 0 0 0 0 0 0 0 0 0 0 0 0 0 0 0 0 0 0 0 0 0 0 0 0 0 0 0 0 0 0 0 0 0 0 0 0 0 0 0
1.83733 2.05666e-06 6.83664e-07 1.37299e-06 0.667585 0.738629 0 0 0 0 0 0 0 0 0 0 0 0 0 0 0 0 0 0 0 0 0 0 0 0 0 0 0 0 0 0 0 0 0 0 0 0 0 0 0 0 0 0
1.93164 2.06431e-06 6.77741e-07 1.38657e-06 0.671687 0.733227 0 0 0 0 0 0 0 0 0 0 0 0 0 0 0 0 0 0 0 0 0 0 0 0 0 0 0 0 0 0 0 0 0 0 0 0 0 0 0 0 0 0
2.03079 2.03828e-06 6.70331e-07 1.36795e-06 0.671129 0.724601 0 0 0 0 0 0 0 0 0 0 0 0 0 0 0 0 0 0 0 0 0 0 0 0 0 0 0 0 0 0 0 0 0 0 0 0 0 0 0 0 0 0
2.13503 2.07988e-06 6.66205e-07 1.41368e-06 0.679691 0.725839 0 0 0 0 0 0 0 0 0 0 0 0 0 0 0 0 0 0 0 0 0 0 0 0 0 0 0 0 0 0 0 0 0 0 0 0 0 0 0 0 0 0
2.24463 2.09544e-06 6.59992e-07 1.43545e-06 0.685034 0.721535 0 0 0 0 0 0 0 0 0 0 0 0 0 0 0 0 0 0 0 0 0 0 0 0 0 0 0 0 0 0 0 0 0 0 0 0 0 0 0 0 0 0
2.35984 2.06e-06 6.51858e-07 1.40814e-06 0.683564 0.709338 0 0 0 0 0 0 0 0 0 0 0 0 0 0 0 0 0 0 0 0 0 0 0 0 0 0 0 0 0 0 0 0 0 0 0 0 0 0 0 0 0 0
2.48097 2.07505e-06 6.49519e-07 1.42553e-06 0.686986 0.70445 0 0 0 0 0 0 0 0 0 0 0 0 0 0 0 0 0 0 0 0 0 0 0 0 0 0 0 0 0 0 0 0 0 0 0 0 0 0 0 0 0 0
2.60832 2.13054e-06 6.42553e-07 1.48799e-06 0.698408 0.707304 0 0 0 0 0 0 0 0 0 0 0 0 0 0 0 0 0 0 0 0 0 0 0 0 0 0 0 0 0 0 0 0 0 0 0 0 0 0 0 0 0 0
2.74221 2.12141e-06 6.33497e-07 1.48792e-06 0.70138 0.699599 0 0 0 0 0 0 0 0 0 0 0 0 0 0 0 0 0 0 0 0 0 0 0 0 0 0 0 0 0 0 0 0 0 0 0 0 0 0 0 0 0 0
2.88297 2.07441e-06 6.25803e-07 1.44861e-06 0.698323 0.681399 0 0 0 0 0 0 0 0 0 0 0 0 0 0 0 0 0 0 0 0 0 0 0 0 0 0 0 0 0 0 0 0 0 0 0 0 0 0 0 0 0 0
3.03095 2.08749e-06 6.15121e-07 1.47237e-06 0.70533 0.675247 0 0 0 0 0 0 0 0 0 0 0 0 0 0 0 0 0 0 0 0 0 0 0 0 0 0 0 0 0 0 0 0 0 0 0 0 0 0 0 0 0 0
3.18653 2.15672e-06 6.06955e-07 1.54976e-06 0.718575 0.683264 0 0 0 0 0 0 0 0 0 0 0 0 0 0 0 0 0 0 0 0 0 0 0 0 0 0 0 0 0 0 0 0 0 0 0 0 0 0 0 0 0 0
3.35009 2.18493e-06 5.98308e-07 1.58662e-06 0.726166 0.683175 0 0 0 0 0 0 0 0 0 0 0 0 0 0 0 0 0 0 0 0 0 0 0 0 0 0 0 0 0 0 0 0 0 0 0 0 0 0 0 0 0 0
3.52205 2.13609e-06 5.94749e-07 1.54134e-06 0.721571 0.662122 0 0 0 0 0 0 0 0 0 0 0 0 0 0 0 0 0 0 0 0 0 0 0 0 0 0 0 0 0 0 0 0 0 0 0 0 0 0 0 0 0 0
3.70284 2.09327e-06 6.04842e-07 1.48843e-06 0.711054 0.644148 0 0 0 0 0 0 0 0 0 0 0 0 0 0 0 0 0 0 0 0 0 0 0 0 0 0 0 0 0 0 0 0 0 0 0 0 0 0 0 0 0 0
3.89291 2.10333e-06 5.9436e-07 1.50897e-06 0.71742 0.649328 0 0 0 0 0 0 0 0 0 0 0 0 0 0 0 0 0 0 0 0 0 0 0 0 0 0 0 0 0 0 0 0 0 0 0 0 0 0 0 0 0 0
4.09273 2.15812e-06 5.67439e-07 1.59068e-06 0.737068 0.656468 0 0 0 0 0 0 0 0 0 0 0 0 0 0 0 0 0 0 0 0 0 0 0 0 0 0 0 0 0 0 0 0 0 0 0 0 0 0 0 0 0 0
4.30281 2.23247e-06 5.74105e-07 1.65837e-06 0.742839 0.66323 0 0 0 0 0 0 0 0 0 0 0 0 0 0 0 0 0 0 0 0 0 0 0 0 0 0 0 0 0 0 0 0 0 0 0 0 0 0 0 0 0 0
4.52368 2.26879e-06 5.73729e-07 1.69506e-06 0.747121 0.647833 0 0 0 0 0 0 0 0 0 0 0 0 0 0 0 0 0 0 0 0 0 0 0 0 0 0 0 0 0 0 0 0 0 0 0 0 0 0 0 0 0 0
4.75588 2.26103e-06 5.70145e-07 1.69089e-06 0.747838 0.648695 0 0 0 0 0 0 0 0 0 0 0 0 0 0 0 0 0 0 0 0 0 0 0 0 0 0 0 0 0 0 0 0 0 0 0 0 0 0 0 0 0 0
5 2.17111e-06 5.47793e-07 1.62332e-06 0.74769 0.605142 0 0 0 0 0 0 0 0 0 0 0 0 0 0 0 0 0 0 0 0 0 0 0 0 0 0 0 0 0 0 0 0 0 0 0 0 0 0 0 0 0 0
5.25665 2.10185e-06 5.65935e-07 1.53592e-06 0.730745 0.579654 0 0 0 0 0 0 0 0 0 0 0 0 0 0 0 0 0 0 0 0 0 0 0 0 0 0 0 0 0 0 0 0 0 0 0 0 0 0 0 0 0 0
5.52648 2.11895e-06 5.26814e-07 1.59214e-06 0.75138 0.575307 0 0 0 0 0 0 0 0 0 0 0 0 0 0 0 0 0 0 0 0 0 0 0 0 0 0 0 0 0 0 0 0 0 0 0 0 0 0 0 0 0 0
5.81015 2.13931e-06 5.54756e-07 1.58456e-06 0.740685 0.575686 0 0 0 0 0 0 0 0 0 0 0 0 0 0 0 0 0 0 0 0 0 0 0 0 0 0 0 0 0 0 0 0 0 0 0 0 0 0 0 0 0 0
6.10839 2.28044e-06 5.15415e-07 1.76503e-06 0.773985 0.612101 0 0 0 0 0 0 0 0 0 0 0 0 0 0 0 0 0 0 0 0 0 0 0 0 0 0 0 0 0 0 0 0 0 0 0 0 0 0 0 0 0 0
6.42193 2.3605e-06 5.61846e-07 1.79865e-06 0.76198 0.604107 0 0 0 0 0 0 0 0 0 0 0 0 0 0 0 0 0 0 0 0 0 0 0 0 0 0 0 0 0 0 0 0 0 0 0 0 0 0 0 0 0 0
6.75157 2.41375e-06 5.08691e-07 1.90505e-06 0.789252 0.637438 0 0 0 0 0 0 0 0 0 0 0 0 0 0 0 0 0 0 0 0 0 0 0 0 0 0 0 0 0 0 0 0 0 0 0 0 0 0 0 0 0 0
7.09813 2.46312e-06 5.65252e-07 1.89787e-06 0.770514 0.608733 0 0 0 0 0 0 0 0 0 0 0 0 0 0 0 0 0 0 0 0 0 0 0 0 0 0 0 0 0 0 0 0 0 0 0 0 0 0 0 0 0 0
7.46248 2.31161e-06 4.95173e-07 1.81643e-06 0.785788 0.614157 0 0 0 0 0 0 0 0 0 0 0 0 0 0 0 0 0 0 0 0 0 0 0 0 0 0 0 0 0 0 0 0 0 0 0 0 0 0 0 0 0 0
7.84553 2.3339e-06 5.65144e-07 1.76876e-06 0.757855 0.595163 0 0 0 0 0 0 0 0 0 0 0 0 0 0 0 0 0 0 0 0 0 0 0 0 0 0 0 0 0 0 0 0 0 0 0 0 0 0 0 0 0 0
8.24824 2.19333e-06 5.37065e-07 1.65627e-06 0.755137 0.528643 0 0 0 0 0 0 0 0 0 0 0 0 0 0 0 0 0 0 0 0 0 0 0 0 0 0 0 0 0 0 0 0 0 0 0 0 0 0 0 0 0 0
8.67162 2.12419e-06 5.34973e-07 1.58922e-06 0.748152 0.515085 0 0 0 0 0 0 0 0 0 0 0 0 0 0 0 0 0 0 0 0 0 0 0 0 0 0 0 0 0 0 0 0 0 0 0 0 0 0 0 0 0 0
9.11674 2.11625e-06 5.55786e-07 1.56047e-06 0.737373 0.466834 0 0 0 0 0 0 0 0 0 0 0 0 0 0 0 0 0 0 0 0 0 0 0 0 0 0 0 0 0 0 0 0 0 0 0 0 0 0 0 0 0 0
9.5847 2.13452e-06 5.40505e-07 1.59402e-06 0.746779 0.442372 0 0 0 0 0 0 0 0 0 0 0 0 0 0 0 0 0 0 0 0 0 0 0 0 0 0 0 0 0 0 0 0 0 0 0 0 0 0 0 0 0 0
10.0767 2.23903e-06 5.7089e-07 1.66814e-06 0.745028 0.447673 0 0 0 0 0 0 0 0 0 0 0 0 0 0 0 0 0 0 0 0 0 0 0 0 0 0 0 0 0 0 0 0 0 0 0 0 0 0 0 0 0 0
10.5939 2.29677e-06 5.57734e-07 1.73903e-06 0.757166 0.443588 0 0 0 0 0 0 0 0 0 0 0 0 0 0 0 0 0 0 0 0 0 0 0 0 0 0 0 0 0 0 0 0 0 0 0 0 0 0 0 0 0 0
11.1377 2.46467e-06 5.50928e-07 1.91374e-06 0.77647 0.496157 0 0 0 0 0 0 0 0 0 0 0 0 0 0 0 0 0 0 0 0 0 0 0 0 0 0 0 0 0 0 0 0 0 0 1.4013e-45 0 2.8026e-45 0 8.40779e-45 0 2.10195e-44 0
11.7094 2.5341e-06 5.76751e-07 1.95735e-06 0.772404 0.496312 0 0 0 0 0 0 0 0 0 0 0 0 0 0 0 0 0 0 0 0 0 0 0 0 0 0 1.4013e-45 0 4.2039e-45 0 1.4013e-44 0 5.04467e-44 0 1.63952e-43 0 4.91856e-43 0 1.37327e-42 0 3.48363e-42 0
12.3105 2.73049e-06 6.20274e-07 2.11021e-06 0.772834 0.495718 0 0 0 0 0 0 0 0 0 0 0 0 0 0 0 0 0 0 0 0 1.4013e-45 0 5.60519e-45 0 3.50325e-44 0 1.66755e-43 0 6.88038e-43 0 2.46909e-42 0 8.16537e-42 0 2.49866e-41 0 7.10472e-41 0 1.88437e-40 0 4.56819e-40 0
12.9424 2.65336e-06 5.6305e-07 2.09031e-06 0.787798 0.482258 0 0 0 0 0 0 0 0 0 0 0 0 0 0 0 0 1.4013e-45 0 1.82169e-44 0 1.45735e-43 0 9.0664e-43 0 4.73499e-42 0 2.11526e-41 0 8.16943e-41 0 2.75513e-40 0 8.59355e-40 0 2.48984e-39 0 6.72763e-39 0 1.70137e-38 0 3.95005e-38 0
13.6067 2.70086e-06 5.52111e-07 2.14875e-06 0.79558 0.486102 0 0 0 0 0 0 0 0 0 0 0 0 1.4013e-45 0 1.96182e-44 0 2.83062e-43 0 2.78158e-42 0 1.99026e-41 0 1.12767e-40 0 5.43554e-40 0 2.25692e-39 0 8.1602e-39 0 2.59345e-38 0 7.65218e-38 0 2.10489e-37 0 5.41803e-37 0 1.3095e-36 0 2.91776e-36 0
14.3051 2.78649e-06 5.85793e-07 2.20069e-06 0.789774 0.489827 0 0 0 0 0 0 0 0 0 0 4.2039e-45 0 1.58347e-43 0 3.23139e-42 0 3.98123e-41 0 3.49928e-40 0 2.27447e-39 0 1.18406e-38 0 5.28547e-38 0 2.04724e-37 0 6.95188e-37 0 2.08814e-36 0 5.84421e-36 0 1.53008e-35 0 3.76079e-35 0 8.70625e-35 0 1.86546e-34 0
15.0394 2.77368e-06 6.1532e-07 2.15836e-06 0.778158 0.484938 0 0 0 0 0 0 0 0 7.00649e-45 0 6.57209e-43 0 2.23956e-41 0 3.95864e-40 0 4.31393e-39 0 3.40992e-38 0 2.02282e-37 0 9.71557e-37 0 4.03141e-36 0 1.46161e-35 0 4.67564e-35 0 1.331e-34 0 3.54259e-34 0 8.84913e-34 0 2.0816e-33 0 4.62541e-33 0 9.54875e-33 0
15.8114 2.64309e-06 6.0256e-07 2.04053e-06 0.772024 0.46971 0 0 0 0 0 0 2.8026e-45 0 1.09021e-42 0 8.02874e-41 0 2.30403e-39 0 3.53979e-38 0 3.43287e-37 0 2.45296e-36 0 1.33399e-35 0 5.93458e-35 0 2.29724e-34 0 7.82111e-34 0 2.36386e-33 0 6.39406e-33 0 1.62241e-32 0 3.87552e-32 0 8.74357e-32 0 1.86858e-31 0 3.7234e-31 0
16.623 2.51347e-06 5.82646e-07 1.93083e-06 0.768191 0.452617 0 0 0 0 0 0 4.58225e-43 0 1.26634e-40 0 7.56249e-39 0 1.84215e-37 0 2.47677e-36 0 2.14977e-35 0 1.39549e-34 0 6.98684e-34 0 2.88981e-33 0 1.04709e-32 0 3.35792e-32 0 9.61548e-32 0 2.47757e-31 0 6.00714e-31 0 1.37522e-30 0 2.9818e-30 0 6.14043e-30 0 1.18306e-29 0
17.4762 2.40776e-06 5.7993e-07 1.82783e-06 0.759142 0.438812 0 0 0 0 1.54143e-44 0 5.63182e-41 0 1.18426e-38 0 5.79222e-37 0 1.20727e-35 0 1.42976e-34 0 1.11673e-33 0 6.6164e-33 0 3.06211e-32 0 1.18169e-31 0 4.02089e-31 0 1.21814e-30 0 3.31353e-30 0 8.15224e-30 0 1.89295e-29 0 4.1618e-29 0 8.68915e-29 0 1.72735e-28 0 3.22316e-28 0
18.3733 2.30093e-06 5.87052e-07 1.71387e-06 0.744863 0.424669 0 0 0 0 2.30654e-42 0 5.50381e-39 0 8.91362e-37 0 3.60552e-35 0 6.4793e-34 0 6.80106e-33 0 4.80482e-32 0 2.60991e-31 0 1.12082e-30 0 4.04935e-30 0 1.29789e-29 0 3.72487e-29 0 9.64908e-29 0 2.27186e-28 0 5.06268e-28 0 1.07107e-27 0 2.15728e-27 0 4.14705e-27 0 7.50611e-27 0
