# 2.4731e-05 0 67 : grain size, compostion index, size index
# Heating and cooling timescale: 0.00801399 30335
# Ratio of heating to cooling to determine stochastic cutoff: 100
# Equilibrium emission is recorded even for those grains in the stochastic regime.
# Emission spectrum was computed for: 
# Type: ISRF
# Scales: 0.25 0.5 1 1.5 2 2.5 3 3.5 4 4.5 5 5.5 6 6.5 7 7.5 8 8.5 9 9.5 10
# StochasticallyHeated: 0 0 0 0 0 0 0 0 0 0 0 0 0 0 0 0 0 0 0 0 0
# Temperature: -1
# Wavelength  CExt  CAbs  CSca  Albedo G EqEm1 StEm1 EqEm2 StEm2 EqEm3 StEm3 EqEm4 StEm4 EqEm5 StEm5 EqEm6 StEm6 EqEm7 StEm7 EqEm8 StEm8 EqEm9 StEm9 EqEm10 StEm10 EqEm11 StEm11 EqEm12 StEm12 EqEm13 StEm13 EqEm14 StEm14 EqEm15 StEm15 EqEm16 StEm16 EqEm17 StEm17 EqEm18 StEm18 EqEm19 StEm19 EqEm20 StEm20 EqEm21 StEm21
0.05 3.88296e-09 1.71606e-09 2.16689e-09 0.558052 0.962655 0 0 0 0 0 0 0 0 0 0 0 0 0 0 0 0 0 0 0 0 0 0 0 0 0 0 0 0 0 0 0 0 0 0 0 0 0 0 0 0 0 0
0.0525665 3.90029e-09 1.71987e-09 2.18041e-09 0.55904 0.959252 0 0 0 0 0 0 0 0 0 0 0 0 0 0 0 0 0 0 0 0 0 0 0 0 0 0 0 0 0 0 0 0 0 0 0 0 0 0 0 0 0 0
0.0552647 3.91889e-09 1.724e-09 2.19489e-09 0.56008 0.955354 0 0 0 0 0 0 0 0 0 0 0 0 0 0 0 0 0 0 0 0 0 0 0 0 0 0 0 0 0 0 0 0 0 0 0 0 0 0 0 0 0 0
0.0581015 3.93917e-09 1.72877e-09 2.2104e-09 0.561134 0.950951 0 0 0 0 0 0 0 0 0 0 0 0 0 0 0 0 0 0 0 0 0 0 0 0 0 0 0 0 0 0 0 0 0 0 0 0 0 0 0 0 0 0
0.0610839 3.9611e-09 1.734e-09 2.22709e-09 0.562242 0.945984 0 0 0 0 0 0 0 0 0 0 0 0 0 0 0 0 0 0 0 0 0 0 0 0 0 0 0 0 0 0 0 0 0 0 0 0 0 0 0 0 0 0
0.0642193 3.98493e-09 1.74012e-09 2.24481e-09 0.563325 0.940472 0 0 0 0 0 0 0 0 0 0 0 0 0 0 0 0 0 0 0 0 0 0 0 0 0 0 0 0 0 0 0 0 0 0 0 0 0 0 0 0 0 0
0.0675157 4.01122e-09 1.74765e-09 2.26357e-09 0.564309 0.934493 0 0 0 0 0 0 0 0 0 0 0 0 0 0 0 0 0 0 0 0 0 0 0 0 0 0 0 0 0 0 0 0 0 0 0 0 0 0 0 0 0 0
0.0709813 4.0401e-09 1.75708e-09 2.28302e-09 0.56509 0.928131 0 0 0 0 0 0 0 0 0 0 0 0 0 0 0 0 0 0 0 0 0 0 0 0 0 0 0 0 0 0 0 0 0 0 0 0 0 0 0 0 0 0
0.0746248 4.07243e-09 1.77033e-09 2.3021e-09 0.565288 0.921708 0 0 0 0 0 0 0 0 0 0 0 0 0 0 0 0 0 0 0 0 0 0 0 0 0 0 0 0 0 0 0 0 0 0 0 0 0 0 0 0 0 0
0.0784553 4.10803e-09 1.79224e-09 2.31579e-09 0.563722 0.916443 0 0 0 0 0 0 0 0 0 0 0 0 0 0 0 0 0 0 0 0 0 0 0 0 0 0 0 0 0 0 0 0 0 0 0 0 0 0 0 0 0 0
0.0824824 4.14263e-09 1.8225e-09 2.32012e-09 0.560061 0.91336 0 0 0 0 0 0 0 0 0 0 0 0 0 0 0 0 0 0 0 0 0 0 0 0 0 0 0 0 0 0 0 0 0 0 0 0 0 0 0 0 0 0
0.0867162 4.17525e-09 1.85746e-09 2.31778e-09 0.555125 0.912028 0 0 0 0 0 0 0 0 0 0 0 0 0 0 0 0 0 0 0 0 0 0 0 0 0 0 0 0 0 0 0 0 0 0 0 0 0 0 0 0 0 0
0.0911674 4.20563e-09 1.89457e-09 2.31106e-09 0.549515 0.911939 0 0 0 0 0 0 0 0 0 0 0 0 0 0 0 0 0 0 0 0 0 0 0 0 0 0 0 0 0 0 0 0 0 0 0 0 0 0 0 0 0 0
0.095847 4.23293e-09 1.93223e-09 2.3007e-09 0.543525 0.912797 0 0 0 0 0 0 0 0 0 0 0 0 0 0 0 0 0 0 0 0 0 0 0 0 0 0 0 0 0 0 0 0 0 0 0 0 0 0 0 0 0 0
0.100767 4.25725e-09 1.96894e-09 2.28831e-09 0.53751 0.914192 0 0 0 0 0 0 0 0 0 0 0 0 0 0 0 0 0 0 0 0 0 0 0 0 0 0 0 0 0 0 0 0 0 0 0 0 0 0 0 0 0 0
0.105939 4.27813e-09 2.00325e-09 2.27489e-09 0.531747 0.915724 0 0 0 0 0 0 0 0 0 0 0 0 0 0 0 0 0 0 0 0 0 0 0 0 0 0 0 0 0 0 0 0 0 0 0 0 0 0 0 0 0 0
0.111377 4.29619e-09 2.03404e-09 2.26216e-09 0.526549 0.916878 0 0 0 0 0 0 0 0 0 0 0 0 0 0 0 0 0 0 0 0 0 0 0 0 0 0 0 0 0 0 0 0 0 0 0 0 0 0 0 0 0 0
0.117094 4.31164e-09 2.06021e-09 2.25143e-09 0.522175 0.917191 0 0 0 0 0 0 0 0 0 0 0 0 0 0 0 0 0 0 0 0 0 0 0 0 0 0 0 0 0 0 0 0 0 0 0 0 0 0 0 0 0 0
0.123105 4.32521e-09 2.08093e-09 2.24428e-09 0.518883 0.916121 0 0 0 0 0 0 0 0 0 0 0 0 0 0 0 0 0 0 0 0 0 0 0 0 0 0 0 0 0 0 0 0 0 0 0 0 0 0 0 0 0 0
0.129424 4.33743e-09 2.09602e-09 2.24141e-09 0.516759 0.913461 0 0 0 0 0 0 0 0 0 0 0 0 0 0 0 0 0 0 0 0 0 0 0 0 0 0 0 0 0 0 0 0 0 0 0 0 0 0 0 0 0 0
0.136067 4.34924e-09 2.10587e-09 2.24337e-09 0.515807 0.909113 0 0 0 0 0 0 0 0 0 0 0 0 0 0 0 0 0 0 0 0 0 0 0 0 0 0 0 0 0 0 0 0 0 0 0 0 0 0 0 0 0 0
0.143051 4.3623e-09 2.11183e-09 2.25046e-09 0.51589 0.903284 0 0 0 0 0 0 0 0 0 0 0 0 0 0 0 0 0 0 0 0 0 0 0 0 0 0 0 0 0 0 0 0 0 0 0 0 0 0 0 0 0 0
0.150394 4.3776e-09 2.11567e-09 2.26193e-09 0.516705 0.896374 0 0 0 0 0 0 0 0 0 0 0 0 0 0 0 0 0 0 0 0 0 0 0 0 0 0 0 0 0 0 0 0 0 0 0 0 0 0 0 0 0 0
0.158114 4.3972e-09 2.11928e-09 2.27792e-09 0.518038 0.88872 0 0 0 0 0 0 0 0 0 0 0 0 0 0 0 0 0 0 0 0 0 0 0 0 0 0 0 0 0 0 0 0 0 0 0 0 0 0 0 0 0 0
0.16623 4.42231e-09 2.12424e-09 2.29807e-09 0.519653 0.880686 0 0 0 0 0 0 0 0 0 0 0 0 0 0 0 0 0 0 0 0 0 0 0 0 0 0 0 0 0 0 0 0 0 0 0 0 0 0 0 0 0 0
0.174762 4.45438e-09 2.13207e-09 2.32231e-09 0.521354 0.872458 0 0 0 0 0 0 0 0 0 0 0 0 0 0 0 0 0 0 0 0 0 0 0 0 0 0 0 0 0 0 0 0 0 0 0 0 0 0 0 0 0 0
0.183733 4.49414e-09 2.14353e-09 2.35061e-09 0.523039 0.864201 0 0 0 0 0 0 0 0 0 0 0 0 0 0 0 0 0 0 0 0 0 0 0 0 0 0 0 0 0 0 0 0 0 0 0 0 0 0 0 0 0 0
0.193164 4.54184e-09 2.15924e-09 2.38261e-09 0.52459 0.856046 0 0 0 0 0 0 0 0 0 0 0 0 0 0 0 0 0 0 0 0 0 0 0 0 0 0 0 0 0 0 0 0 0 0 0 0 0 0 0 0 0 0
0.203079 4.59752e-09 2.17941e-09 2.41811e-09 0.52596 0.848153 0 0 0 0 0 0 0 0 0 0 0 0 0 0 0 0 0 0 0 0 0 0 0 0 0 0 0 0 0 0 0 0 0 0 0 0 0 0 0 0 0 0
0.213503 4.66018e-09 2.2039e-09 2.45628e-09 0.527078 0.840683 0 0 0 0 0 0 0 0 0 0 0 0 0 0 0 0 0 0 0 0 0 0 0 0 0 0 0 0 0 0 0 0 0 0 0 0 0 0 0 0 0 0
0.224463 4.72875e-09 2.23259e-09 2.49616e-09 0.527869 0.833855 0 0 0 0 0 0 0 0 0 0 0 0 0 0 0 0 0 0 0 0 0 0 0 0 0 0 0 0 0 0 0 0 0 0 0 0 0 0 0 0 0 0
0.235984 4.79937e-09 2.26399e-09 2.53538e-09 0.528273 0.827727 0 0 0 0 0 0 0 0 0 0 0 0 0 0 0 0 0 0 0 0 0 0 0 0 0 0 0 0 0 0 0 0 0 0 0 0 0 0 0 0 0 0
0.248097 4.86731e-09 2.29783e-09 2.56948e-09 0.527906 0.822281 0 0 0 0 0 0 0 0 0 0 0 0 0 0 0 0 0 0 0 0 0 0 0 0 0 0 0 0 0 0 0 0 0 0 0 0 0 0 0 0 0 0
0.260832 4.92174e-09 2.33381e-09 2.58793e-09 0.525816 0.816826 0 0 0 0 0 0 0 0 0 0 0 0 0 0 0 0 0 0 0 0 0 0 0 0 0 0 0 0 0 0 0 0 0 0 0 0 0 0 0 0 0 0
0.274221 4.9449e-09 2.36656e-09 2.57834e-09 0.521414 0.809968 0 0 0 0 0 0 0 0 0 0 0 0 0 0 0 0 0 0 0 0 0 0 0 0 0 0 0 0 0 0 0 0 0 0 0 0 0 0 0 0 0 0
0.288297 4.93278e-09 2.40254e-09 2.53024e-09 0.512944 0.800954 0 0 0 0 0 0 0 0 0 0 0 0 0 0 0 0 0 0 0 0 0 0 0 0 0 0 0 0 0 0 0 0 0 0 0 0 0 0 0 0 0 0
0.303095 4.87928e-09 2.44018e-09 2.4391e-09 0.499888 0.785855 0 0 0 0 0 0 0 0 0 0 0 0 0 0 0 0 0 0 0 0 0 0 0 0 0 0 0 0 0 0 0 0 0 0 0 0 0 0 0 0 0 0
0.318653 4.78061e-09 2.44614e-09 2.33446e-09 0.488319 0.762056 0 0 0 0 0 0 0 0 0 0 0 0 0 0 0 0 0 0 0 0 0 0 0 0 0 0 0 0 0 0 0 0 0 0 0 0 0 0 0 0 0 0
0.335009 4.75258e-09 2.47282e-09 2.27976e-09 0.479689 0.737821 0 0 0 0 0 0 0 0 0 0 0 0 0 0 0 0 0 0 0 0 0 0 0 0 0 0 0 0 0 0 0 0 0 0 0 0 0 0 0 0 0 0
0.352205 4.78531e-09 2.49508e-09 2.29023e-09 0.478596 0.710973 0 0 0 0 0 0 0 0 0 0 0 0 0 0 0 0 0 0 0 0 0 0 0 0 0 0 0 0 0 0 0 0 0 0 0 0 0 0 0 0 0 0
0.370284 4.83653e-09 2.43225e-09 2.40428e-09 0.497108 0.6873 0 0 0 0 0 0 0 0 0 0 0 0 0 0 0 0 0 0 0 0 0 0 0 0 0 0 0 0 0 0 0 0 0 0 0 0 0 0 0 0 0 0
0.389291 5.13845e-09 2.41205e-09 2.7264e-09 0.530588 0.687347 0 0 0 0 0 0 0 0 0 0 0 0 0 0 0 0 0 0 0 0 0 0 0 0 0 0 0 0 0 0 0 0 0 0 0 0 0 0 0 0 0 0
0.409273 5.58246e-09 2.4268e-09 3.15566e-09 0.565281 0.6934 0 0 0 0 0 0 0 0 0 0 0 0 0 0 0 0 0 0 0 0 0 0 0 0 0 0 0 0 0 0 0 0 0 0 0 0 0 0 0 0 0 0
0.430281 5.88811e-09 2.34051e-09 3.5476e-09 0.602503 0.692456 0 0 0 0 0 0 0 0 0 0 0 0 0 0 0 0 0 0 0 0 0 0 0 0 0 0 0 0 0 0 0 0 0 0 0 0 0 0 0 0 0 0
0.452368 6.26532e-09 2.22945e-09 4.03587e-09 0.64416 0.698317 0 0 0 0 0 0 0 0 0 0 0 0 0 0 0 0 0 0 0 0 0 0 0 0 0 0 0 0 0 0 0 0 0 0 0 0 0 0 0 0 0 0
0.475588 6.82103e-09 2.19412e-09 4.62691e-09 0.67833 0.71119 0 0 0 0 0 0 0 0 0 0 0 0 0 0 0 0 0 0 0 0 0 0 0 0 0 0 0 0 0 0 0 0 0 0 0 0 0 0 0 0 0 0
0.5 7.27521e-09 2.18169e-09 5.09352e-09 0.70012 0.718632 0 0 0 0 0 0 0 0 0 0 0 0 0 0 0 0 0 0 0 0 0 0 0 0 0 0 0 0 0 0 0 0 0 0 0 0 0 0 0 0 0 0
0.525665 7.44508e-09 2.11635e-09 5.32874e-09 0.715739 0.715102 0 0 0 0 0 0 0 0 0 0 0 0 0 0 0 0 0 0 0 0 0 0 0 0 0 0 0 0 0 0 0 0 0 0 0 0 0 0 0 0 0 0
0.552648 7.48476e-09 2.01325e-09 5.47151e-09 0.73102 0.70491 0 0 0 0 0 0 0 0 0 0 0 0 0 0 0 0 0 0 0 0 0 0 0 0 0 0 0 0 0 0 0 0 0 0 0 0 0 0 0 0 0 0
0.581015 7.55959e-09 1.928e-09 5.63158e-09 0.744959 0.697246 0 0 0 0 0 0 0 0 0 0 0 0 0 0 0 0 0 0 0 0 0 0 0 0 0 0 0 0 0 0 0 0 0 0 0 0 0 0 0 0 0 0
0.610839 7.64735e-09 1.89813e-09 5.74923e-09 0.751793 0.696298 0 0 0 0 0 0 0 0 0 0 0 0 0 0 0 0 0 0 0 0 0 0 0 0 0 0 0 0 0 0 0 0 0 0 0 0 0 0 0 0 0 0
0.642193 7.64855e-09 1.90768e-09 5.74087e-09 0.750583 0.698191 0 0 0 0 0 0 0 0 0 0 0 0 0 0 0 0 0 0 0 0 0 0 0 0 0 0 0 0 0 0 0 0 0 0 0 0 0 0 0 0 0 0
0.675157 7.49524e-09 1.90739e-09 5.58784e-09 0.745519 0.695149 0 0 0 0 0 0 0 0 0 0 0 0 0 0 0 0 0 0 0 0 0 0 0 0 0 0 0 0 0 0 0 0 0 0 0 0 0 0 0 0 0 0
0.709813 7.19668e-09 1.85655e-09 5.34012e-09 0.742026 0.680831 0 0 0 0 0 0 0 0 0 0 0 0 0 0 0 0 0 0 0 0 0 0 0 0 0 0 0 0 0 0 0 0 0 0 0 0 0 0 0 0 0 0
0.746248 6.82549e-09 1.75706e-09 5.06843e-09 0.742574 0.654921 0 0 0 0 0 0 0 0 0 0 0 0 0 0 0 0 0 0 0 0 0 0 0 0 0 0 0 0 0 0 0 0 0 0 0 0 0 0 0 0 0 0
0.784553 6.46331e-09 1.64693e-09 4.81638e-09 0.745188 0.623289 0 0 0 0 0 0 0 0 0 0 0 0 0 0 0 0 0 0 0 0 0 0 0 0 0 0 0 0 0 0 0 0 0 0 0 0 0 0 0 0 0 0
0.824824 6.1526e-09 1.56544e-09 4.58715e-09 0.745564 0.593562 0 0 0 0 0 0 0 0 0 0 0 0 0 0 0 0 0 0 0 0 0 0 0 0 0 0 0 0 0 0 0 0 0 0 0 0 0 0 0 0 0 0
0.867162 5.8887e-09 1.52972e-09 4.35898e-09 0.740227 0.570811 0 0 0 0 0 0 0 0 0 0 0 0 0 0 0 0 0 0 0 0 0 0 0 0 0 0 0 0 0 0 0 0 0 0 0 0 0 0 0 0 0 0
0.911674 5.63772e-09 1.53235e-09 4.10537e-09 0.728197 0.556223 0 0 0 0 0 0 0 0 0 0 0 0 0 0 0 0 0 0 0 0 0 0 0 0 0 0 0 0 0 0 0 0 0 0 0 0 0 0 0 0 0 0
0.95847 5.35853e-09 1.5497e-09 3.80882e-09 0.710797 0.547623 0 0 0 0 0 0 0 0 0 0 0 0 0 0 0 0 0 0 0 0 0 0 0 0 0 0 0 0 0 0 0 0 0 0 0 0 0 0 0 0 0 0
1.00767 5.02342e-09 1.55376e-09 3.46966e-09 0.690697 0.54069 0 0 0 0 0 0 0 0 0 0 0 0 0 0 0 0 0 0 0 0 0 0 0 0 0 0 0 0 0 0 0 0 0 0 0 0 0 0 0 0 0 0
1.05939 4.62872e-09 1.52464e-09 3.10407e-09 0.670612 0.530456 0 0 0 0 0 0 0 0 0 0 0 0 0 0 0 0 0 0 0 0 0 0 0 0 0 0 0 0 0 0 0 0 0 0 0 0 0 0 0 0 0 0
1.11377 4.19512e-09 1.45817e-09 2.73695e-09 0.652413 0.513313 0 0 0 0 0 0 0 0 0 0 0 0 0 0 0 0 0 0 0 0 0 0 0 0 0 0 0 0 0 0 0 0 0 0 0 0 0 0 0 0 0 0
1.17094 3.75193e-09 1.36334e-09 2.38859e-09 0.636629 0.488137 0 0 0 0 0 0 0 0 0 0 0 0 0 0 0 0 0 0 0 0 0 0 0 0 0 0 0 0 0 0 0 0 0 0 0 0 0 0 0 0 0 0
1.23105 3.32519e-09 1.25445e-09 2.07074e-09 0.622745 0.45625 0 0 0 0 0 0 0 0 0 0 0 0 0 0 0 0 0 0 0 0 0 0 0 0 0 0 0 0 0 0 0 0 0 0 0 0 0 0 0 0 0 0
1.29424 2.93034e-09 1.14393e-09 1.7864e-09 0.609625 0.420339 0 0 0 0 0 0 0 0 0 0 0 0 0 0 0 0 0 0 0 0 0 0 0 0 0 0 0 0 0 0 0 0 0 0 0 0 0 0 0 0 0 0
1.36067 2.57405e-09 1.03961e-09 1.53444e-09 0.596119 0.383202 0 0 0 0 0 0 0 0 0 0 0 0 0 0 0 0 0 0 0 0 0 0 0 0 0 0 0 0 0 0 0 0 0 0 0 0 0 0 0 0 0 0
1.43051 2.25709e-09 9.44984e-10 1.31211e-09 0.581327 0.346975 0 0 0 0 0 0 0 0 0 0 0 0 0 0 0 0 0 0 0 0 0 0 0 0 0 0 0 0 0 0 0 0 0 0 0 0 0 0 0 0 0 0
1.50394 1.97741e-09 8.60745e-10 1.11667e-09 0.564712 0.312979 0 0 0 0 0 0 0 0 0 0 0 0 0 0 0 0 0 0 0 0 0 0 0 0 0 0 0 0 0 0 0 0 0 0 0 0 0 0 0 0 0 0
1.58114 1.73196e-09 7.86197e-10 9.45768e-10 0.546067 0.281846 0 0 0 0 0 0 0 0 0 0 0 0 0 0 0 0 0 0 0 0 0 0 0 0 0 0 0 0 0 0 0 0 0 0 0 0 0 0 0 0 0 0
1.6623 1.5174e-09 7.20122e-10 7.97278e-10 0.525424 0.253739 0 0 0 0 0 0 0 0 0 0 0 0 0 0 0 0 0 0 0 0 0 0 0 0 0 0 0 0 0 0 0 0 0 0 0 0 0 0 0 0 0 0
1.74763 1.33053e-09 6.61303e-10 6.69228e-10 0.502978 0.22857 0 0 0 0 0 0 0 0 0 0 0 0 0 0 0 0 0 0 0 0 0 0 0 0 0 0 0 0 0 0 0 0 0 0 0 0 0 0 0 0 0 0
1.83733 1.16821e-09 6.08621e-10 5.59585e-10 0.479012 0.206093 0 0 0 0 0 0 0 0 0 0 0 0 0 0 0 0 0 0 0 0 0 0 0 0 0 0 0 0 0 0 0 0 0 0 0 0 0 0 0 0 0 0
1.93164 1.02758e-09 5.6121e-10 4.66367e-10 0.453851 0.186042 0 0 0 0 0 0 0 0 0 0 0 0 0 0 0 0 0 0 0 0 0 0 0 0 0 0 0 0 0 0 0 0 0 0 0 0 0 0 0 0 0 0
2.03079 9.06027e-10 5.18343e-10 3.87684e-10 0.427895 0.168165 0 0 0 0 0 0 0 0 0 0 0 0 0 0 0 0 0 0 0 0 0 0 0 0 0 0 0 0 0 0 0 0 0 0 0 0 0 0 0 0 0 0
2.13503 8.0102e-10 4.79466e-10 3.21554e-10 0.401431 0.152178 0 0 0 0 0 0 0 0 0 0 0 0 0 0 0 0 0 0 0 0 0 0 0 0 0 0 0 0 0 0 0 0 0 0 0 0 0 0 0 0 0 0
2.24463 7.10275e-10 4.44073e-10 2.66202e-10 0.374788 0.137853 0 0 0 0 0 0 0 0 0 0 0 0 0 0 0 0 0 0 0 0 0 0 0 0 0 0 0 0 0 0 0 0 0 0 0 0 0 0 0 0 0 0
2.35984 6.31855e-10 4.11799e-10 2.20056e-10 0.34827 0.124994 0 0 0 0 0 0 0 0 0 0 0 0 0 0 0 0 0 0 0 0 0 0 0 0 0 0 0 0 0 0 0 0 0 0 0 0 0 0 0 0 0 0
2.48097 5.63999e-10 3.82324e-10 1.81675e-10 0.322119 0.113422 0 0 0 0 0 0 0 0 0 0 0 0 0 0 0 0 0 0 0 0 0 0 0 0 0 0 0 0 0 0 0 0 0 0 0 0 0 0 0 0 0 0
2.60832 5.05214e-10 3.55377e-10 1.49837e-10 0.296581 0.102986 0 0 0 0 0 0 0 0 0 0 0 0 0 0 0 0 0 0 0 0 0 0 0 0 0 0 0 0 0 0 0 0 0 0 0 0 0 0 0 0 0 0
2.74221 4.54193e-10 3.30725e-10 1.23467e-10 0.271839 0.0935653 0 0 0 0 0 0 0 0 0 0 0 0 0 0 0 0 0 0 0 0 0 0 0 0 0 0 0 0 0 0 0 0 0 0 0 0 0 0 0 0 0 0
2.88297 4.09856e-10 3.08206e-10 1.01649e-10 0.248013 0.0850427 0 0 0 0 0 0 0 0 0 0 0 0 0 0 0 0 0 0 0 0 0 0 0 0 0 0 0 0 0 0 0 0 0 0 0 0 0 0 0 0 0 0
3.03095 3.71244e-10 2.87702e-10 8.35412e-11 0.225031 0.0773112 0 0 0 0 0 0 0 0 0 0 0 0 0 0 0 0 0 0 0 0 0 0 0 0 0 0 0 0 0 0 0 0 0 0 0 0 0 0 0 0 0 0
3.18653 3.38522e-10 2.70042e-10 6.84797e-11 0.20229 0.0703118 0 0 0 0 0 0 0 0 0 0 0 0 0 0 0 0 0 0 0 0 0 0 0 0 0 0 0 0 0 0 0 0 0 0 0 0 0 0 0 0 0 0
3.35009 3.25866e-10 2.69812e-10 5.60533e-11 0.172013 0.0639951 0 0 0 0 0 0 0 0 0 0 0 0 0 0 0 0 0 0 0 0 0 0 0 0 0 0 0 0 0 0 0 0 0 0 0 0 0 0 0 0 0 0
3.52205 2.95073e-10 2.46723e-10 4.83497e-11 0.163857 0.0582951 0 0 0 0 0 0 0 0 0 0 0 0 0 0 0 0 0 0 0 0 0 0 0 0 0 0 0 0 0 0 0 0 0 0 0 0 0 0 0 0 0 0
3.70284 2.56663e-10 2.1769e-10 3.89723e-11 0.151842 0.0529983 0 0 0 0 0 0 0 0 0 0 0 0 0 0 0 0 0 0 0 0 0 0 0 0 0 0 0 0 0 0 0 0 0 0 0 0 0 0 0 0 0 0
3.89291 2.35837e-10 2.03884e-10 3.19534e-11 0.135489 0.0482296 0 0 0 0 0 0 0 0 0 0 0 0 0 0 0 0 0 0 0 0 0 0 0 0 0 0 0 0 0 0 0 0 0 0 0 0 0 0 0 0 0 0
4.09273 2.17415e-10 1.91154e-10 2.62602e-11 0.120784 0.0438969 0 0 0 0 0 0 0 0 0 0 0 0 0 0 0 0 0 0 0 0 0 0 0 0 0 0 0 0 0 0 0 0 0 0 0 0 0 0 0 0 0 0
4.30281 2.00922e-10 1.79329e-10 2.1593e-11 0.10747 0.0399552 0 0 0 0 0 0 0 0 0 0 0 0 0 0 0 0 0 0 0 0 0 0 0 0 0 0 0 0 0 0 0 0 0 0 0 0 0 0 0 0 0 0
4.52368 1.86111e-10 1.68348e-10 1.77632e-11 0.0954441 0.0363684 0 0 0 0 0 0 0 0 0 0 0 0 0 0 0 0 0 0 0 0 0 0 0 0 0 0 0 0 0 0 0 0 0 0 0 0 0 0 0 0 0 0
4.75588 1.72754e-10 1.58141e-10 1.46129e-11 0.0845878 0.033102 0 0 0 0 0 0 0 0 0 0 0 0 0 0 0 0 0 0 0 0 0 0 0 0 0 0 0 0 0 0 0 0 0 0 0 0 0 0 0 0 0 0
5 1.60679e-10 1.48656e-10 1.20231e-11 0.0748265 0.0301281 0 0 0 0 0 0 0 0 0 0 0 0 0 0 0 0 0 0 0 0 0 0 0 0 0 0 0 0 0 0 0 0 0 0 0 0 0 0 0 0 0 0
5.25665 1.49735e-10 1.39844e-10 9.89099e-12 0.0660567 0.0274177 0 0 0 0 0 0 0 0 0 0 0 0 0 0 0 0 0 0 0 0 0 0 0 0 0 0 0 0 0 0 0 0 0 0 0 0 0 0 0 0 1.4013e-45 0
5.52648 1.39816e-10 1.31681e-10 8.1356e-12 0.0581878 0.0249452 0 0 0 0 0 0 0 0 0 0 0 0 0 0 0 0 0 0 0 0 0 0 0 0 0 0 0 0 0 0 0 0 2.8026e-45 0 8.40779e-45 0 2.8026e-44 0 8.54792e-44 0 2.34017e-43 0
5.81015 1.30949e-10 1.24261e-10 6.68779e-12 0.0510719 0.0226814 0 0 0 0 0 0 0 0 0 0 0 0 0 0 0 0 0 0 0 0 0 0 0 0 1.4013e-45 0 5.60519e-45 0 2.24208e-44 0 9.24857e-44 0 3.25101e-43 0 1.08881e-42 0 3.2412e-42 0 9.42233e-42 0 2.4562e-41 0
6.10839 1.24711e-10 1.1922e-10 5.49094e-12 0.0440295 0.0205824 0 0 0 0 0 0 0 0 0 0 0 0 0 0 0 0 0 0 0 0 2.8026e-45 0 2.38221e-44 0 1.31722e-43 0 6.37591e-43 0 2.67788e-42 0 1.00865e-41 0 3.35345e-41 0 1.05923e-40 0 2.98926e-40 0 8.24876e-40 0 2.05202e-39 0
6.42193 1.16544e-10 1.11984e-10 4.56013e-12 0.0391279 0.0188919 0 0 0 0 0 0 0 0 0 0 0 0 0 0 0 0 4.2039e-45 0 5.04467e-44 0 4.11982e-43 0 2.63724e-42 0 1.36963e-41 0 6.14399e-41 0 2.40665e-40 0 8.49513e-40 0 2.66333e-39 0 7.95318e-39 0 2.13361e-38 0 5.60296e-38 0 1.33317e-37 0
6.75157 1.09491e-10 1.05756e-10 3.73523e-12 0.0341144 0.0171478 0 0 0 0 0 0 0 0 0 0 0 0 1.4013e-45 0 4.06377e-44 0 5.74532e-43 0 5.49589e-42 0 4.0101e-41 0 2.34778e-40 0 1.12521e-39 0 4.69081e-39 0 1.71895e-38 0 5.70528e-38 0 1.69162e-37 0 4.78874e-37 0 1.22425e-36 0 3.06691e-36 0 6.99502e-36 0
7.09813 1.0419e-10 1.01109e-10 3.08173e-12 0.0295778 0.0155673 0 0 0 0 0 0 0 0 0 0 5.60519e-45 0 2.29813e-43 0 4.44772e-42 0 5.4994e-41 0 4.7085e-40 0 3.11757e-39 0 1.67436e-38 0 7.43355e-38 0 2.89027e-37 0 9.94068e-37 0 3.11166e-36 0 8.74929e-36 0 2.35411e-35 0 5.74875e-35 0 1.37699e-34 0 3.01672e-34 0
7.46248 9.86877e-11 9.61546e-11 2.53304e-12 0.0256672 0.0141199 0 0 0 0 0 0 0 0 8.40779e-45 0 7.13261e-43 0 2.25525e-41 0 3.77443e-40 0 4.1278e-39 0 3.1824e-38 0 1.92136e-37 0 9.50599e-37 0 3.92409e-36 0 1.42787e-35 0 4.62351e-35 0 1.36884e-34 0 3.65941e-34 0 9.38162e-34 0 2.19328e-33 0 5.03418e-33 0 1.06146e-32 0
7.84553 9.57213e-11 9.36053e-11 2.116e-12 0.0221058 0.0130112 0 0 0 0 0 0 2.8026e-45 0 1.01174e-42 0 6.67158e-41 0 1.78358e-39 0 2.60131e-38 0 2.53127e-37 0 1.7663e-36 0 9.76774e-36 0 4.46972e-35 0 1.7217e-34 0 5.88193e-34 0 1.79842e-33 0 5.04958e-33 0 1.28666e-32 0 3.15042e-32 0 7.06605e-32 0 1.55738e-31 0 3.1663e-31 0
8.24824 8.5383e-11 8.36446e-11 1.73832e-12 0.020359 0.0118565 0 0 0 0 0 0 3.82554e-43 0 8.43512e-41 0 4.5315e-39 0 1.03189e-37 0 1.32041e-36 0 1.14976e-35 0 7.29696e-35 0 3.71199e-34 0 1.57705e-33 0 5.6876e-33 0 1.82995e-32 0 5.298e-32 0 1.41445e-31 0 3.4432e-31 0 8.07009e-31 0 1.74004e-30 0 3.68994e-30 0 7.24654e-30 0
8.67162 8.13719e-11 7.99369e-11 1.43501e-12 0.0176352 0.0108109 0 0 0 0 1.54143e-44 0 3.50661e-41 0 5.95136e-39 0 2.63204e-37 0 5.14529e-36 0 5.81343e-35 0 4.55452e-34 0 2.64115e-33 0 1.24098e-32 0 4.91283e-32 0 1.66424e-31 0 5.05763e-31 0 1.39021e-30 0 3.53779e-30 0 8.24599e-30 0 1.85395e-29 0 3.85023e-29 0 7.87062e-29 0 1.49558e-28 0
9.11674 7.45441e-11 7.33658e-11 1.17831e-12 0.0158069 0.00982943 0 0 0 0 1.53302e-42 0 2.44448e-39 0 3.22889e-37 0 1.18681e-35 0 2.0066e-34 0 2.01405e-33 0 1.42702e-32 0 7.59473e-32 0 3.30885e-31 0 1.2248e-30 0 3.90913e-30 0 1.12523e-29 0 2.94397e-29 0 7.15782e-29 0 1.60084e-28 0 3.45959e-28 0 6.93294e-28 0 1.36861e-27 0 2.52038e-27 0
9.5847 7.00166e-11 6.90483e-11 9.68314e-13 0.0138298 0.0089322 0 0 0 0 1.25626e-40 0 1.39727e-37 0 1.45411e-35 0 4.48229e-34 0 6.60116e-33 0 5.92007e-32 0 3.81215e-31 0 1.86982e-30 0 7.58156e-30 0 2.63268e-29 0 7.93967e-29 0 2.17044e-28 0 5.41808e-28 0 1.2614e-27 0 2.7124e-27 0 5.64534e-27 0 1.09356e-26 0 2.08825e-26 0 3.73271e-26 0
10.0767 6.59521e-11 6.51556e-11 7.965e-13 0.0120769 0.00812204 0 0 2.52234e-44 0 8.19703e-39 0 6.47339e-36 0 5.36976e-34 0 1.40011e-32 0 1.80821e-31 0 1.45694e-30 0 8.56632e-30 0 3.88781e-29 0 1.47225e-28 0 4.81086e-28 0 1.37474e-27 0 3.57802e-27 0 8.54167e-27 0 1.90824e-26 0 3.95275e-26 0 7.93766e-26 0 1.48876e-25 0 2.75454e-25 0 4.78602e-25 0
10.5939 6.21939e-11 6.15386e-11 6.55327e-13 0.0105368 0.00738669 0 0 2.46769e-42 0 4.30029e-37 0 2.45192e-34 0 1.63925e-32 0 3.64508e-31 0 4.15477e-30 0 3.0234e-29 0 1.63036e-28 0 6.87263e-28 0 2.43873e-27 0 7.52141e-27 0 2.0419e-26 0 5.07193e-26 0 1.16044e-25 0 2.49269e-25 0 4.98303e-25 0 9.67171e-25 0 1.75914e-24 0 3.15848e-24 0 5.34181e-24 0
11.1377 5.88378e-11 5.82985e-11 5.39297e-13 0.00916582 0.00671783 0 0 1.90069e-40 0 1.83724e-35 0 7.68448e-33 0 4.18449e-31 0 7.99716e-30 0 8.09426e-29 0 5.34615e-28 0 2.65523e-27 0 1.04336e-26 0 3.48032e-26 0 1.01595e-25 0 2.62682e-25 0 6.24133e-25 0 1.37144e-24 0 2.83799e-24 0 5.48464e-24 0 1.03062e-23 0 1.82058e-23 0 3.1767e-23 0 5.23655e-23 0
11.7094 5.54273e-11 5.49831e-11 4.44232e-13 0.00801469 0.00611546 4.2039e-44 0 1.16138e-38 0 6.40952e-34 0 1.99657e-31 0 8.94443e-30 0 1.48009e-28 0 1.33798e-27 0 8.05907e-27 0 3.70136e-26 0 1.36042e-25 0 4.27875e-25 0 1.18537e-24 0 2.92597e-24 0 6.66448e-24 0 1.4092e-23 0 2.8144e-23 0 5.26688e-23 0 9.59681e-23 0 1.64883e-22 0 2.79987e-22 0 4.5041e-22 0
12.3105 5.23364e-11 5.19708e-11 3.65609e-13 0.00698575 0.00556246 3.85497e-42 0 5.73116e-37 0 1.856e-32 0 4.36814e-30 0 1.62534e-28 0 2.34518e-27 0 1.90394e-26 0 1.05054e-25 0 4.47883e-25 0 1.54482e-24 0 4.59433e-24 0 1.21103e-23 0 2.86029e-23 0 6.25823e-23 0 1.27579e-22 0 2.46335e-22 0 4.47101e-22 0 7.91145e-22 0 1.32382e-21 0 2.1906e-21 0 3.44313e-21 0
