# 6.6834e-05 0 131 : grain size, compostion index, size index
# Heating and cooling timescale: 0.000452103 4.4187e+06
# Ratio of heating to cooling to determine stochastic cutoff: 100
# Equilibrium emission is recorded even for those grains in the stochastic regime.
# Emission spectrum was computed for: 
# Type: IRSF
# Scales: 0.25 0.5 1 1.5 2 2.5 3 3.5 4 4.5 5 5.5 6 6.5 7 7.5 8 8.5 9 9.5 10
# StochasticallyHeated: 0 0 0 0 0 0 0 0 0 0 0 0 0 0 0 0 0 0 0 0 0
# Temperature: -1
# Wavelength  CExt  CAbs  CSca  Albedo G EqEm1 StEm1 EqEm2 StEm2 EqEm3 StEm3 EqEm4 StEm4 EqEm5 StEm5 EqEm6 StEm6 EqEm7 StEm7 EqEm8 StEm8 EqEm9 StEm9 EqEm10 StEm10 EqEm11 StEm11 EqEm12 StEm12 EqEm13 StEm13 EqEm14 StEm14 EqEm15 StEm15 EqEm16 StEm16 EqEm17 StEm17 EqEm18 StEm18 EqEm19 StEm19 EqEm20 StEm20 EqEm21 StEm21
0.05 7.6585e-09 2.9065e-09 4.752e-09 0.620487 0.00576547 0 0 0 0 0 0 0 0 0 0 0 0 0 0 0 0 0 0 0 0 0 0 0 0 0 0 0 0 0 0 0 0 0 0 0 0 0 0 0 0 0 0
0.0525665 8.46491e-09 3.21254e-09 5.25236e-09 0.620487 0.00637255 0 0 0 0 0 0 0 0 0 0 0 0 0 0 0 0 0 0 0 0 0 0 0 0 0 0 0 0 0 0 0 0 0 0 0 0 0 0 0 0 0 0
0.0552647 9.35622e-09 3.55081e-09 5.80541e-09 0.620487 0.00704355 0 0 0 0 0 0 0 0 0 0 0 0 0 0 0 0 0 0 0 0 0 0 0 0 0 0 0 0 0 0 0 0 0 0 0 0 0 0 0 0 0 0
0.0581015 1.03414e-08 3.92469e-09 6.41669e-09 0.620487 0.0077852 0 0 0 0 0 0 0 0 0 0 0 0 0 0 0 0 0 0 0 0 0 0 0 0 0 0 0 0 0 0 0 0 0 0 0 0 0 0 0 0 0 0
0.0610839 1.14303e-08 4.33794e-09 7.09234e-09 0.620487 0.00860494 0 0 0 0 0 0 0 0 0 0 0 0 0 0 0 0 0 0 0 0 0 0 0 0 0 0 0 0 0 0 0 0 0 0 0 0 0 0 0 0 0 0
0.0642193 1.26338e-08 4.7947e-09 7.83913e-09 0.620487 0.009511 0 0 0 0 0 0 0 0 0 0 0 0 0 0 0 0 0 0 0 0 0 0 0 0 0 0 0 0 0 0 0 0 0 0 0 0 0 0 0 0 0 0
0.0675157 1.39641e-08 5.29956e-09 8.66455e-09 0.620487 0.0105125 0 0 0 0 0 0 0 0 0 0 0 0 0 0 0 0 0 0 0 0 0 0 0 0 0 0 0 0 0 0 0 0 0 0 0 0 0 0 0 0 0 0
0.0709813 1.54345e-08 5.85758e-09 9.57689e-09 0.620487 0.0116194 0 0 0 0 0 0 0 0 0 0 0 0 0 0 0 0 0 0 0 0 0 0 0 0 0 0 0 0 0 0 0 0 0 0 0 0 0 0 0 0 0 0
0.0746248 1.70596e-08 6.47435e-09 1.05853e-08 0.620487 0.0128428 0 0 0 0 0 0 0 0 0 0 0 0 0 0 0 0 0 0 0 0 0 0 0 0 0 0 0 0 0 0 0 0 0 0 0 0 0 0 0 0 0 0
0.0784553 1.88559e-08 7.15607e-09 1.16999e-08 0.620487 0.0141951 0 0 0 0 0 0 0 0 0 0 0 0 0 0 0 0 0 0 0 0 0 0 0 0 0 0 0 0 0 0 0 0 0 0 0 0 0 0 0 0 0 0
0.0824824 2.08414e-08 7.90957e-09 1.29318e-08 0.620487 0.0156898 0 0 0 0 0 0 0 0 0 0 0 0 0 0 0 0 0 0 0 0 0 0 0 0 0 0 0 0 0 0 0 0 0 0 0 0 0 0 0 0 0 0
0.0867162 2.30359e-08 8.74241e-09 1.42935e-08 0.620487 0.0173419 0 0 0 0 0 0 0 0 0 0 0 0 0 0 0 0 0 0 0 0 0 0 0 0 0 0 0 0 0 0 0 0 0 0 0 0 0 0 0 0 0 0
0.0911674 2.54614e-08 9.66295e-09 1.57985e-08 0.620487 0.0191679 0 0 0 0 0 0 0 0 0 0 0 0 0 0 0 0 0 0 0 0 0 0 0 0 0 0 0 0 0 0 0 0 0 0 0 0 0 0 0 0 0 0
0.095847 2.81424e-08 1.06804e-08 1.7462e-08 0.620487 0.0211862 0 0 0 0 0 0 0 0 0 0 0 0 0 0 0 0 0 0 0 0 0 0 0 0 0 0 0 0 0 0 0 0 0 0 0 0 0 0 0 0 0 0
0.100767 3.06238e-08 1.17117e-08 1.8912e-08 0.61756 0.0235692 0 0 0 0 0 0 0 0 0 0 0 0 0 0 0 0 0 0 0 0 0 0 0 0 0 0 0 0 0 0 0 0 0 0 0 0 0 0 0 0 0 0
0.105939 3.0595e-08 1.22052e-08 1.83898e-08 0.601072 0.0256046 0 0 0 0 0 0 0 0 0 0 0 0 0 0 0 0 0 0 0 0 0 0 0 0 0 0 0 0 0 0 0 0 0 0 0 0 0 0 0 0 0 0
0.111377 3.06386e-08 1.2342e-08 1.82965e-08 0.597174 0.0289403 0 0 0 0 0 0 0 0 0 0 0 0 0 0 0 0 0 0 0 0 0 0 0 0 0 0 0 0 0 0 0 0 0 0 0 0 0 0 0 0 0 0
0.117094 3.06155e-08 1.27614e-08 1.78541e-08 0.583171 0.0274507 0 0 0 0 0 0 0 0 0 0 0 0 0 0 0 0 0 0 0 0 0 0 0 0 0 0 0 0 0 0 0 0 0 0 0 0 0 0 0 0 0 0
0.123105 3.06445e-08 1.32694e-08 1.73751e-08 0.566989 0.0236555 0 0 0 0 0 0 0 0 0 0 0 0 0 0 0 0 0 0 0 0 0 0 0 0 0 0 0 0 0 0 0 0 0 0 0 0 0 0 0 0 0 0
0.129424 3.07063e-08 1.36799e-08 1.70264e-08 0.554492 0.0199126 0 0 0 0 0 0 0 0 0 0 0 0 0 0 0 0 0 0 0 0 0 0 0 0 0 0 0 0 0 0 0 0 0 0 0 0 0 0 0 0 0 0
0.136067 3.07713e-08 1.40201e-08 1.67511e-08 0.544376 0.0168557 0 0 0 0 0 0 0 0 0 0 0 0 0 0 0 0 0 0 0 0 0 0 0 0 0 0 0 0 0 0 0 0 0 0 0 0 0 0 0 0 0 0
0.143051 3.08232e-08 1.43121e-08 1.65112e-08 0.535673 0.0143876 0 0 0 0 0 0 0 0 0 0 0 0 0 0 0 0 0 0 0 0 0 0 0 0 0 0 0 0 0 0 0 0 0 0 0 0 0 0 0 0 0 0
0.150394 3.08384e-08 1.45496e-08 1.62888e-08 0.5282 0.0122986 0 0 0 0 0 0 0 0 0 0 0 0 0 0 0 0 0 0 0 0 0 0 0 0 0 0 0 0 0 0 0 0 0 0 0 0 0 0 0 0 0 0
0.158114 3.07845e-08 1.46901e-08 1.60944e-08 0.522809 0.01055 0 0 0 0 0 0 0 0 0 0 0 0 0 0 0 0 0 0 0 0 0 0 0 0 0 0 0 0 0 0 0 0 0 0 0 0 0 0 0 0 0 0
0.16623 3.06515e-08 1.46553e-08 1.59963e-08 0.521875 0.00908216 0 0 0 0 0 0 0 0 0 0 0 0 0 0 0 0 0 0 0 0 0 0 0 0 0 0 0 0 0 0 0 0 0 0 0 0 0 0 0 0 0 0
0.174762 3.05317e-08 1.44061e-08 1.61255e-08 0.528157 0.00782097 0 0 0 0 0 0 0 0 0 0 0 0 0 0 0 0 0 0 0 0 0 0 0 0 0 0 0 0 0 0 0 0 0 0 0 0 0 0 0 0 0 0
0.183733 3.05637e-08 1.39199e-08 1.66439e-08 0.544562 0.00667218 0 0 0 0 0 0 0 0 0 0 0 0 0 0 0 0 0 0 0 0 0 0 0 0 0 0 0 0 0 0 0 0 0 0 0 0 0 0 0 0 0 0
0.193164 3.0873e-08 1.31907e-08 1.76823e-08 0.572743 0.00556038 0 0 0 0 0 0 0 0 0 0 0 0 0 0 0 0 0 0 0 0 0 0 0 0 0 0 0 0 0 0 0 0 0 0 0 0 0 0 0 0 0 0
0.203079 3.14133e-08 1.23874e-08 1.90259e-08 0.605663 0.00446034 0 0 0 0 0 0 0 0 0 0 0 0 0 0 0 0 0 0 0 0 0 0 0 0 0 0 0 0 0 0 0 0 0 0 0 0 0 0 0 0 0 0
0.213503 3.20745e-08 1.17515e-08 2.0323e-08 0.633618 0.00342932 0 0 0 0 0 0 0 0 0 0 0 0 0 0 0 0 0 0 0 0 0 0 0 0 0 0 0 0 0 0 0 0 0 0 0 0 0 0 0 0 0 0
0.224463 3.27615e-08 1.14212e-08 2.13403e-08 0.651384 0.00254317 0 0 0 0 0 0 0 0 0 0 0 0 0 0 0 0 0 0 0 0 0 0 0 0 0 0 0 0 0 0 0 0 0 0 0 0 0 0 0 0 0 0
0.235984 3.33352e-08 1.1344e-08 2.19912e-08 0.659698 0.00182186 0 0 0 0 0 0 0 0 0 0 0 0 0 0 0 0 0 0 0 0 0 0 0 0 0 0 0 0 0 0 0 0 0 0 0 0 0 0 0 0 0 0
0.248097 3.36539e-08 1.13915e-08 2.22623e-08 0.661509 0.00138916 0 0 0 0 0 0 0 0 0 0 0 0 0 0 0 0 0 0 0 0 0 0 0 0 0 0 0 0 0 0 0 0 0 0 0 0 0 0 0 0 0 0
0.260832 3.36439e-08 1.15176e-08 2.21263e-08 0.657662 0.00141961 0 0 0 0 0 0 0 0 0 0 0 0 0 0 0 0 0 0 0 0 0 0 0 0 0 0 0 0 0 0 0 0 0 0 0 0 0 0 0 0 0 0
0.274221 3.34017e-08 1.17783e-08 2.16234e-08 0.647374 0.00187131 0 0 0 0 0 0 0 0 0 0 0 0 0 0 0 0 0 0 0 0 0 0 0 0 0 0 0 0 0 0 0 0 0 0 0 0 0 0 0 0 0 0
0.288297 3.31467e-08 1.22026e-08 2.09441e-08 0.63186 0.00251556 0 0 0 0 0 0 0 0 0 0 0 0 0 0 0 0 0 0 0 0 0 0 0 0 0 0 0 0 0 0 0 0 0 0 0 0 0 0 0 0 0 0
0.303095 3.30322e-08 1.27023e-08 2.03298e-08 0.615455 0.0028362 0 0 0 0 0 0 0 0 0 0 0 0 0 0 0 0 0 0 0 0 0 0 0 0 0 0 0 0 0 0 0 0 0 0 0 0 0 0 0 0 0 0
0.318653 3.30482e-08 1.31691e-08 1.9879e-08 0.601517 0.00297223 0 0 0 0 0 0 0 0 0 0 0 0 0 0 0 0 0 0 0 0 0 0 0 0 0 0 0 0 0 0 0 0 0 0 0 0 0 0 0 0 0 0
0.335009 3.3145e-08 1.35565e-08 1.95885e-08 0.590994 0.00293231 0 0 0 0 0 0 0 0 0 0 0 0 0 0 0 0 0 0 0 0 0 0 0 0 0 0 0 0 0 0 0 0 0 0 0 0 0 0 0 0 0 0
0.352205 3.32836e-08 1.38588e-08 1.94248e-08 0.583614 0.00278811 0 0 0 0 0 0 0 0 0 0 0 0 0 0 0 0 0 0 0 0 0 0 0 0 0 0 0 0 0 0 0 0 0 0 0 0 0 0 0 0 0 0
0.370284 3.34443e-08 1.40875e-08 1.93568e-08 0.578777 0.00261033 0 0 0 0 0 0 0 0 0 0 0 0 0 0 0 0 0 0 0 0 0 0 0 0 0 0 0 0 0 0 0 0 0 0 0 0 0 0 0 0 0 0
0.389291 3.36171e-08 1.42608e-08 1.93563e-08 0.575786 0.00243645 0 0 0 0 0 0 0 0 0 0 0 0 0 0 0 0 0 0 0 0 0 0 0 0 0 0 0 0 0 0 0 0 0 0 0 0 0 0 0 0 0 0
0.409273 3.37939e-08 1.43981e-08 1.93958e-08 0.573945 0.00226652 0 0 0 0 0 0 0 0 0 0 0 0 0 0 0 0 0 0 0 0 0 0 0 0 0 0 0 0 0 0 0 0 0 0 0 0 0 0 0 0 0 0
0.430281 3.39722e-08 1.45181e-08 1.9454e-08 0.572646 0.00210471 0 0 0 0 0 0 0 0 0 0 0 0 0 0 0 0 0 0 0 0 0 0 0 0 0 0 0 0 0 0 0 0 0 0 0 0 0 0 0 0 0 0
0.452368 3.41491e-08 1.46337e-08 1.95154e-08 0.571476 0.00193723 0 0 0 0 0 0 0 0 0 0 0 0 0 0 0 0 0 0 0 0 0 0 0 0 0 0 0 0 0 0 0 0 0 0 0 0 0 0 0 0 0 0
0.475588 3.43274e-08 1.47532e-08 1.95743e-08 0.570222 0.00177642 0 0 0 0 0 0 0 0 0 0 0 0 0 0 0 0 0 0 0 0 0 0 0 0 0 0 0 0 0 0 0 0 0 0 0 0 0 0 0 0 0 0
0.5 3.45079e-08 1.488e-08 1.96278e-08 0.568793 0.00162159 0 0 0 0 0 0 0 0 0 0 0 0 0 0 0 0 0 0 0 0 0 0 0 0 0 0 0 0 0 0 0 0 0 0 0 0 0 0 0 0 0 0
0.525665 3.46933e-08 1.50148e-08 1.96784e-08 0.567211 0.0014751 0 0 0 0 0 0 0 0 0 0 0 0 0 0 0 0 0 0 0 0 0 0 0 0 0 0 0 0 0 0 0 0 0 0 0 0 0 0 0 0 0 0
0.552648 3.48859e-08 1.51551e-08 1.97308e-08 0.565582 0.00134175 0 0 0 0 0 0 0 0 0 0 0 0 0 0 0 0 0 0 0 0 0 0 0 0 0 0 0 0 0 0 0 0 0 0 0 0 0 0 0 0 0 0
0.581015 3.50848e-08 1.52991e-08 1.97857e-08 0.563939 0.00121775 0 0 0 0 0 0 0 0 0 0 0 0 0 0 0 0 0 0 0 0 0 0 0 0 0 0 0 0 0 0 0 0 0 0 0 0 0 0 0 0 0 0
0.610839 3.52925e-08 1.54426e-08 1.98499e-08 0.56244 0.00110516 0 0 0 0 0 0 0 0 0 0 0 0 0 0 0 0 0 0 0 0 0 0 0 0 0 0 0 0 0 0 0 0 0 0 0 0 0 0 0 0 0 0
0.642193 3.55089e-08 1.55856e-08 1.99233e-08 0.561079 0.00100302 0 0 0 0 0 0 0 0 0 0 0 0 0 0 0 0 0 0 0 0 0 0 0 0 0 0 0 0 0 0 0 0 0 0 0 0 0 0 0 0 0 0
0.675157 3.57326e-08 1.57262e-08 2.00064e-08 0.559892 0.000910957 0 0 0 0 0 0 0 0 0 0 0 0 0 0 0 0 0 0 0 0 0 0 0 0 0 0 0 0 0 0 0 0 0 0 0 0 0 0 0 0 0 0
0.709813 3.59616e-08 1.58581e-08 2.01035e-08 0.559028 0.00082817 0 0 0 0 0 0 0 0 0 0 0 0 0 0 0 0 0 0 0 0 0 0 0 0 0 0 0 0 0 0 0 0 0 0 0 0 0 0 0 0 0 0
0.746248 3.62009e-08 1.59877e-08 2.02132e-08 0.558363 0.000754183 0 0 0 0 0 0 0 0 0 0 0 0 0 0 0 0 0 0 0 0 0 0 0 0 0 0 0 0 0 0 0 0 0 0 0 0 0 0 0 0 0 0
0.784553 3.64436e-08 1.61111e-08 2.03325e-08 0.557918 0.000686995 0 0 0 0 0 0 0 0 0 0 0 0 0 0 0 0 0 0 0 0 0 0 0 0 0 0 0 0 0 0 0 0 0 0 0 0 0 0 0 0 0 0
0.824824 3.66836e-08 1.62206e-08 2.0463e-08 0.557824 0.000626788 0 0 0 0 0 0 0 0 0 0 0 0 0 0 0 0 0 0 0 0 0 0 0 0 0 0 0 0 0 0 0 0 0 0 0 0 0 0 0 0 0 0
0.867162 3.69368e-08 1.63279e-08 2.06089e-08 0.557951 0.000572518 0 0 0 0 0 0 0 0 0 0 0 0 0 0 0 0 0 0 0 0 0 0 0 0 0 0 0 0 0 0 0 0 0 0 0 0 0 0 0 0 0 0
0.911674 3.71975e-08 1.64389e-08 2.07586e-08 0.558064 0.000523427 0 0 0 0 0 0 0 0 0 0 0 0 0 0 0 0 0 0 0 0 0 0 0 0 0 0 0 0 0 0 0 0 0 0 0 0 0 0 0 0 0 0
0.95847 3.74421e-08 1.65337e-08 2.09084e-08 0.558419 0.00047944 0 0 0 0 0 0 0 0 0 0 0 0 0 0 0 0 0 0 0 0 0 0 0 0 0 0 0 0 0 0 0 0 0 0 0 0 0 0 0 0 0 0
1.00767 3.76778e-08 1.66089e-08 2.10689e-08 0.559186 0.0004395 0 0 0 0 0 0 0 0 0 0 0 0 0 0 0 0 0 0 0 0 0 0 0 0 0 0 0 0 0 0 0 0 0 0 0 0 0 0 0 0 0 0
1.05939 3.79365e-08 1.66912e-08 2.12453e-08 0.560022 0.000403275 0 0 0 0 0 0 0 0 0 0 0 0 0 0 0 0 0 0 0 0 0 0 0 0 0 0 0 0 0 0 0 0 0 0 0 0 0 0 0 0 0 0
1.11377 3.82105e-08 1.67923e-08 2.14181e-08 0.560531 0.000370298 0 0 0 0 0 0 0 0 0 0 0 0 0 0 0 0 0 0 0 0 0 0 0 0 0 0 0 0 0 0 0 0 0 0 0 0 0 0 0 0 0 0
1.17094 3.84531e-08 1.6883e-08 2.15701e-08 0.560946 0.000339515 0 0 0 0 0 0 0 0 0 0 0 0 0 0 0 0 0 0 0 0 0 0 0 0 0 0 0 0 0 0 0 0 0 0 0 0 0 0 0 0 0 0
1.23105 3.86543e-08 1.69376e-08 2.17167e-08 0.561818 0.000311294 0 0 0 0 0 0 0 0 0 0 0 0 0 0 0 0 0 0 0 0 0 0 0 0 0 0 0 0 0 0 0 0 0 0 0 0 0 0 0 0 0 0
1.29424 3.8862e-08 1.69761e-08 2.18859e-08 0.56317 0.000285362 0 0 0 0 0 0 0 0 0 0 0 0 0 0 0 0 0 0 0 0 0 0 0 0 0 0 0 0 0 0 0 0 0 0 0 0 0 0 0 0 0 0
1.36067 3.91207e-08 1.70441e-08 2.20766e-08 0.564319 0.000261742 0 0 0 0 0 0 0 0 0 0 0 0 0 0 0 0 0 0 0 0 0 0 0 0 0 0 0 0 0 0 0 0 0 0 0 0 0 0 0 0 0 0
1.43051 3.94162e-08 1.71583e-08 2.2258e-08 0.564691 0.000240209 0 0 0 0 0 0 0 0 0 0 0 0 0 0 0 0 0 0 0 0 0 0 0 0 0 0 0 0 0 0 0 0 0 0 0 0 0 0 0 0 0 0
1.50394 3.96717e-08 1.72812e-08 2.23905e-08 0.564395 0.000220279 0 0 0 0 0 0 0 0 0 0 0 0 0 0 0 0 0 0 0 0 0 0 0 0 0 0 0 0 0 0 0 0 0 0 0 0 0 0 0 0 0 0
1.58114 3.98335e-08 1.73592e-08 2.24744e-08 0.564207 0.000201732 0 0 0 0 0 0 0 0 0 0 0 0 0 0 0 0 0 0 0 0 0 0 0 0 0 0 0 0 0 0 0 0 0 0 0 0 0 0 0 0 0 0
1.6623 3.99247e-08 1.73763e-08 2.25484e-08 0.564772 0.000184534 0 0 0 0 0 0 0 0 0 0 0 0 0 0 0 0 0 0 0 0 0 0 0 0 0 0 0 0 0 0 0 0 0 0 0 0 0 0 0 0 0 0
1.74763 4.00364e-08 1.73716e-08 2.26647e-08 0.566104 0.000169005 0 0 0 0 0 0 0 0 0 0 0 0 0 0 0 0 0 0 0 0 0 0 0 0 0 0 0 0 0 0 0 0 0 0 0 0 0 0 0 0 0 0
1.83733 4.02521e-08 1.7409e-08 2.28431e-08 0.567501 0.000154804 0 0 0 0 0 0 0 0 0 0 0 0 0 0 0 0 0 0 0 0 0 0 0 0 0 0 0 0 0 0 0 0 0 0 0 0 0 0 0 0 0 0
1.93164 4.05827e-08 1.75294e-08 2.30533e-08 0.568058 0.000141793 0 0 0 0 0 0 0 0 0 0 0 0 0 0 0 0 0 0 0 0 0 0 0 0 0 0 0 0 0 0 0 0 0 0 0 0 0 0 0 0 0 0
2.03079 4.09566e-08 1.77262e-08 2.32304e-08 0.567196 0.000129725 0 0 0 0 0 0 0 0 0 0 0 0 0 0 0 0 0 0 0 0 0 0 0 0 0 0 0 0 0 0 0 0 0 0 0 0 0 0 0 0 0 0
2.13503 4.12585e-08 1.79487e-08 2.33099e-08 0.564971 0.000118657 0 0 0 0 0 0 0 0 0 0 0 0 0 0 0 0 0 0 0 0 0 0 0 0 0 0 0 0 0 0 0 0 0 0 0 0 0 0 0 0 0 0
2.24463 4.13919e-08 1.81313e-08 2.32606e-08 0.56196 0.000108569 0 0 0 0 0 0 0 0 0 0 0 0 0 0 0 0 0 0 0 0 0 0 0 0 0 0 0 0 0 0 0 0 0 0 0 0 0 0 0 0 0 0
2.35984 4.13258e-08 1.82251e-08 2.31007e-08 0.55899 9.92926e-05 0 0 0 0 0 0 0 0 0 0 0 0 0 0 0 0 0 0 0 0 0 0 0 0 0 0 0 0 0 0 0 0 0 0 0 0 0 0 0 0 0 0
2.48097 4.11183e-08 1.82215e-08 2.28968e-08 0.556852 9.07218e-05 0 0 0 0 0 0 0 0 0 0 0 0 0 0 0 0 0 0 0 0 0 0 0 0 0 0 0 0 0 0 0 0 0 0 0 0 0 0 0 0 0 0
2.60832 4.08848e-08 1.81553e-08 2.27296e-08 0.555942 8.27967e-05 0 0 0 0 0 0 0 0 0 0 0 0 0 0 0 0 0 0 0 0 0 0 0 0 0 0 0 0 0 0 0 0 0 0 0 0 0 0 0 0 0 0
2.74221 4.07533e-08 1.809e-08 2.26633e-08 0.556109 7.55862e-05 0 0 0 0 0 0 0 0 0 0 0 0 0 0 0 0 0 0 0 0 0 0 0 0 0 0 0 0 0 0 0 0 0 0 0 0 0 0 0 0 0 0
2.88297 4.08057e-08 1.80867e-08 2.2719e-08 0.55676 6.90729e-05 0 0 0 0 0 0 0 0 0 0 0 0 0 0 0 0 0 0 0 0 0 0 0 0 0 0 0 0 0 0 0 0 0 0 0 0 0 0 0 0 0 0
3.03095 4.10664e-08 1.81931e-08 2.28733e-08 0.556982 6.31538e-05 0 0 0 0 0 0 0 0 0 0 0 0 0 0 0 0 0 0 0 0 0 0 0 0 0 0 0 0 0 0 0 0 0 0 0 0 0 0 0 0 0 0
3.18653 4.15009e-08 1.84283e-08 2.30726e-08 0.555954 5.76567e-05 0 0 0 0 0 0 0 0 0 0 0 0 0 0 0 0 0 0 0 0 0 0 0 0 0 0 0 0 0 0 0 0 0 0 0 0 0 0 0 0 0 0
3.35009 4.20368e-08 1.87905e-08 2.32464e-08 0.553 5.2603e-05 0 0 0 0 0 0 0 0 0 0 0 0 0 0 0 0 0 0 0 0 0 0 0 0 0 0 0 0 0 0 0 0 0 0 0 0 0 0 0 0 0 0
3.52205 4.25907e-08 1.92616e-08 2.33291e-08 0.547751 4.80102e-05 0 0 0 0 0 0 0 0 0 0 0 0 0 0 0 0 0 0 0 0 0 0 0 0 0 0 0 0 0 0 0 0 0 0 0 0 0 0 0 0 0 0
3.70284 4.30796e-08 1.98094e-08 2.32702e-08 0.540168 4.38066e-05 0 0 0 0 0 0 0 0 0 0 0 0 0 0 0 0 0 0 0 0 0 0 0 0 0 0 0 0 0 0 0 0 0 0 0 0 0 0 0 0 0 0
3.89291 4.34327e-08 2.03928e-08 2.30399e-08 0.530474 3.9926e-05 0 0 0 0 0 0 0 0 0 0 0 0 0 0 0 0 0 0 0 0 0 0 0 0 0 0 0 0 0 0 0 0 0 0 0 0 0 0 0 0 0 0
4.09273 4.359e-08 2.09622e-08 2.26279e-08 0.519106 3.62643e-05 0 0 0 0 0 0 0 0 0 0 0 0 0 0 0 0 0 0 0 0 0 0 0 0 0 0 0 0 0 0 0 0 0 0 0 0 0 0 0 0 0 0
4.30281 4.34886e-08 2.14508e-08 2.20378e-08 0.50675 3.29535e-05 0 0 0 0 0 0 0 0 0 0 0 0 0 0 0 0 0 0 0 0 0 0 0 0 0 0 0 0 0 0 0 0 0 0 0 0 0 0 0 0 0 0
4.52368 4.3044e-08 2.17801e-08 2.12639e-08 0.494003 2.99416e-05 0 0 0 0 0 0 0 0 0 0 0 0 0 0 0 0 0 0 0 0 0 0 0 0 0 0 0 0 0 0 0 0 0 0 0 0 0 0 0 0 0 0
4.75588 4.21391e-08 2.18655e-08 2.02736e-08 0.481111 2.71796e-05 0 0 0 0 0 0 0 0 0 0 0 0 0 0 0 0 0 0 0 0 0 0 0 0 0 0 0 0 0 0 0 0 0 0 0 0 0 0 0 0 0 0
5 4.06788e-08 2.16538e-08 1.9025e-08 0.467688 2.45398e-05 0 0 0 0 0 0 0 0 0 0 0 0 0 0 0 0 0 0 0 0 0 0 0 0 0 0 0 0 0 0 0 0 0 0 0 0 0 0 0 0 0 0
5.25665 3.86253e-08 2.11511e-08 1.74743e-08 0.452404 2.21678e-05 0 0 0 0 0 0 0 0 0 0 0 0 0 0 0 0 0 0 0 0 0 0 0 0 0 0 0 0 0 0 0 0 0 0 0 0 0 0 0 0 0 0
5.52648 3.61177e-08 2.04697e-08 1.56479e-08 0.433249 2.00489e-05 0 0 0 0 0 0 0 0 0 0 0 0 0 0 0 0 0 0 0 0 0 0 0 0 0 0 0 0 0 0 0 0 0 0 0 0 0 0 0 0 1.4013e-45 0
5.81015 3.34221e-08 1.97757e-08 1.36465e-08 0.408306 1.8115e-05 0 0 0 0 0 0 0 0 0 0 0 0 0 0 0 0 0 0 0 0 0 0 0 0 0 0 0 0 0 0 1.4013e-45 0 2.8026e-45 0 8.40779e-45 0 2.66247e-44 0 7.28675e-44 0 1.93379e-43 0
6.10839 3.0822e-08 1.92101e-08 1.16119e-08 0.37674 1.63023e-05 0 0 0 0 0 0 0 0 0 0 0 0 0 0 0 0 0 0 0 0 0 0 0 0 1.4013e-45 0 8.40779e-45 0 3.50325e-44 0 1.28919e-43 0 4.40008e-43 0 1.35225e-42 0 3.95026e-42 0 1.04635e-41 0 2.6549e-41 0
6.42193 2.86967e-08 1.89799e-08 9.71684e-09 0.338605 1.48144e-05 0 0 0 0 0 0 0 0 0 0 0 0 0 0 0 0 0 0 1.4013e-45 0 9.80909e-45 0 5.88545e-44 0 3.08286e-43 0 1.36206e-42 0 5.32774e-42 0 1.81062e-41 0 5.82674e-41 0 1.69334e-40 0 4.6949e-40 0 1.1859e-39 0 2.87507e-39 0
6.75157 2.65608e-08 1.85971e-08 7.96374e-09 0.29983 1.32279e-05 0 0 0 0 0 0 0 0 0 0 0 0 0 0 1.4013e-45 0 2.38221e-44 0 2.17201e-43 0 1.5064e-42 0 8.49747e-42 0 4.06573e-41 0 1.67019e-40 0 6.10998e-40 0 1.95598e-39 0 5.94546e-39 0 1.64017e-38 0 4.32659e-38 0 1.04453e-37 0 2.42517e-37 0
7.09813 2.45317e-08 1.80778e-08 6.45395e-09 0.263086 1.18448e-05 0 0 0 0 0 0 0 0 0 0 0 0 1.68156e-44 0 2.99878e-43 0 3.40516e-42 0 2.84351e-41 0 1.79887e-40 0 9.3265e-40 0 4.13369e-39 0 1.58494e-38 0 5.44232e-38 0 1.64602e-37 0 4.73897e-37 0 1.24414e-36 0 3.13011e-36 0 7.23846e-36 0 1.6129e-35 0
7.46248 2.22623e-08 1.70958e-08 5.16651e-09 0.232075 1.05694e-05 0 0 0 0 0 0 0 0 1.4013e-45 0 8.68805e-44 0 2.40603e-42 0 3.71232e-41 0 3.74997e-40 0 2.82347e-39 0 1.63233e-38 0 7.80961e-38 0 3.21868e-37 0 1.15573e-36 0 3.73652e-36 0 1.07066e-35 0 2.92738e-35 0 7.33159e-35 0 1.76329e-34 0 3.91412e-34 0 8.38702e-34 0
7.84553 1.96205e-08 1.55303e-08 4.09018e-09 0.208465 9.34187e-06 0 0 0 0 0 0 1.4013e-45 0 1.9478e-43 0 1.0825e-41 0 2.55021e-40 0 3.44324e-39 0 3.10683e-38 0 2.11966e-37 0 1.12483e-36 0 4.98558e-36 0 1.9175e-35 0 6.46855e-35 0 1.97487e-34 0 5.37528e-34 0 1.39926e-33 0 3.35082e-33 0 7.72094e-33 0 1.64843e-32 0 3.40318e-32 0
8.24824 1.67405e-08 1.35285e-08 3.212e-09 0.19187 8.19911e-06 0 0 0 0 0 0 1.34525e-43 0 2.20172e-41 0 1.00538e-39 0 2.02991e-38 0 2.41367e-37 0 1.95606e-36 0 1.21511e-35 0 5.94355e-35 0 2.44966e-34 0 8.82189e-34 0 2.80447e-33 0 8.10802e-33 0 2.10158e-32 0 5.22105e-32 0 1.1981e-31 0 2.65041e-31 0 5.45295e-31 0 1.08661e-30 0
8.67162 1.38879e-08 1.13749e-08 2.51305e-09 0.180952 7.20916e-06 0 0 0 0 9.80909e-45 0 1.46085e-41 0 1.87062e-39 0 7.08821e-38 0 1.23584e-36 0 1.30216e-35 0 9.52807e-35 0 5.41388e-34 0 2.45063e-33 0 9.42557e-33 0 3.18857e-32 0 9.5799e-32 0 2.62975e-31 0 6.50654e-31 0 1.5462e-30 0 3.40714e-30 0 7.25059e-30 0 1.44011e-29 0 2.77471e-29 0
9.11674 1.13053e-08 9.33804e-09 1.96725e-09 0.174012 6.32492e-06 0 0 0 0 1.19811e-42 0 1.21103e-39 0 1.22364e-37 0 3.8827e-36 0 5.88771e-35 0 5.52992e-34 0 3.67162e-33 0 1.91656e-32 0 8.05889e-32 0 2.90229e-31 0 9.25098e-31 0 2.63407e-30 0 6.88284e-30 0 1.62928e-29 0 3.71157e-29 0 7.86915e-29 0 1.61398e-28 0 3.10005e-28 0 5.78476e-28 0
9.5847 9.12113e-09 7.57601e-09 1.54512e-09 0.1694 5.52644e-06 0 0 0 0 1.08568e-40 0 7.82403e-38 0 6.31048e-36 0 1.69135e-34 0 2.24592e-33 0 1.89092e-32 0 1.14464e-31 0 5.51184e-31 0 2.1607e-30 0 7.30957e-30 0 2.2017e-29 0 5.95675e-29 0 1.4852e-28 0 3.37085e-28 0 7.37639e-28 0 1.50758e-27 0 2.98551e-27 0 5.55455e-27 0 1.0054e-26 0
10.0767 7.35056e-09 6.13107e-09 1.21949e-09 0.165904 4.78203e-06 0 0 6.44597e-44 0 7.6964e-39 0 4.02243e-36 0 2.61837e-34 0 5.97686e-33 0 6.99514e-32 0 5.30761e-31 0 2.9425e-30 0 1.31224e-29 0 4.81222e-29 0 1.53391e-28 0 4.3781e-28 0 1.12832e-27 0 2.69051e-27 0 5.86694e-27 0 1.23569e-26 0 2.43888e-26 0 4.67133e-26 0 8.43154e-26 0 1.48257e-25 0
10.5939 5.94229e-09 4.97558e-09 9.66704e-10 0.162682 4.06995e-06 0 0 6.38992e-42 0 4.34446e-37 0 1.67272e-34 0 8.88017e-33 0 1.73996e-31 0 1.80594e-30 0 1.24118e-29 0 6.32901e-29 0 2.62381e-28 0 9.03047e-28 0 2.7201e-27 0 7.37618e-27 0 1.81512e-26 0 4.1484e-26 0 8.70817e-26 0 1.76861e-25 0 3.37671e-25 0 6.26562e-25 0 1.09877e-24 0 1.87953e-24 0
11.1377 4.81107e-09 4.04261e-09 7.68465e-10 0.159728 3.40803e-06 4.2039e-45 0 4.99221e-40 0 1.97168e-35 0 5.67661e-33 0 2.48237e-31 0 4.20627e-30 0 3.89446e-29 0 2.43617e-28 0 1.14727e-27 0 4.4372e-27 0 1.43774e-26 0 4.10368e-26 0 1.05991e-25 0 2.49601e-25 0 5.47894e-25 0 1.10922e-24 0 2.17621e-24 0 4.02578e-24 0 7.24789e-24 0 1.23665e-23 0 2.06065e-23 0
11.7094 4.20208e-09 3.57747e-09 6.24607e-10 0.148642 2.82232e-06 4.24593e-43 0 3.3582e-38 0 7.91092e-34 0 1.72747e-31 0 6.2817e-30 0 9.27048e-29 0 7.69949e-28 0 4.40398e-27 0 1.92286e-26 0 6.9616e-26 0 2.12986e-25 0 5.77571e-25 0 1.42423e-24 0 3.21661e-24 0 6.79479e-24 0 1.32905e-23 0 2.5231e-23 0 4.5294e-23 0 7.92383e-23 0 1.31716e-22 0 2.14078e-22 0
12.3105 3.36647e-09 2.86988e-09 4.96597e-10 0.147513 2.20615e-06 3.59447e-41 0 1.63739e-36 0 2.35943e-32 0 3.9608e-30 0 1.20852e-28 0 1.56387e-27 0 1.17131e-26 0 6.15287e-26 0 2.49993e-25 0 8.49979e-25 0 2.46229e-24 0 6.35976e-24 0 1.50064e-23 0 3.25702e-23 0 6.63349e-23 0 1.25569e-22 0 2.31037e-22 0 4.03071e-22 0 6.86147e-22 0 1.11262e-21 0 1.76595e-21 0
