# 2.33182e-07 2 18 : grain size, compostion index, size index
# Heating and cooling timescale: 6149 179.961
# Ratio of heating to cooling to determine stochastic cutoff: 100
# Equilibrium emission is recorded even for those grains in the stochastic regime.
# Emission spectrum was computed for: 
# Type: IRSF
# Scales: 0.5 1 2 5 10
StochasticallyHeated: 1 1 1 1 1
# Temperature: -1
# Wavelength  CExt  CAbs  CSca  Albedo G EqEm1 StEm1 EqEm2 StEm2 EqEm3 StEm3 EqEm4 StEm4 EqEm5 StEm5
0.05 5.20096e-14 5.15263e-14 4.83268e-16 0.00929191 0.0121492 0 0 0 0 0 0 0 0 0 0
0.0525665 6.02209e-14 5.97013e-14 5.19675e-16 0.00862947 0.0108186 0 0 0 0 0 0 0 0 0 0
0.0552647 6.95125e-14 6.89542e-14 5.58276e-16 0.00803131 0.00962815 0 0 0 0 0 0 0 0 0 0
0.0581015 8.32183e-14 8.26278e-14 5.90456e-16 0.00709527 0.00856178 0 0 0 0 0 0 0 0 0 0
0.0610839 1.17732e-13 1.17102e-13 6.30349e-16 0.00535408 0.00753699 0 0 0 0 0 0 0 0 0 0
0.0642193 1.48618e-13 1.47911e-13 7.06629e-16 0.00475467 0.00651931 0 0 0 0 0 0 0 0 0 0
0.0675157 1.77797e-13 1.76957e-13 8.39107e-16 0.00471948 0.00549072 0 0 0 0 0 0 0 0 0 0
0.0709813 2.04168e-13 2.03286e-13 8.81615e-16 0.00431809 0.0045884 0 0 0 0 0 0 0 0 0 0
0.0746248 1.90756e-13 1.89972e-13 7.84334e-16 0.00411171 0.00393922 0 0 0 0 0 0 0 0 0 0
0.0784553 1.50008e-13 1.49391e-13 6.16872e-16 0.00411226 0.00350657 0 0 0 0 0 0 0 0 0 0
0.0824824 1.19034e-13 1.18598e-13 4.36587e-16 0.00366774 0.00326287 0 0 0 0 0 0 0 0 0 0
0.0867162 9.97207e-14 9.93844e-14 3.36293e-16 0.00337235 0.00312009 0 0 0 0 0 0 0 0 0 0
0.0911674 8.70108e-14 8.67283e-14 2.82488e-16 0.00324658 0.00301801 0 0 0 0 0 0 0 0 0 0
0.095847 7.77623e-14 7.75373e-14 2.24915e-16 0.00289234 0.00317171 0 0 0 0 0 0 0 0 0 0
0.100767 6.81099e-14 6.79563e-14 1.53528e-16 0.00225413 0.00370027 0 0 0 0 0 0 0 0 0 0
0.105939 5.92672e-14 5.91609e-14 1.06314e-16 0.00179381 0.00399965 0 0 0 0 0 0 0 0 0 0
0.111377 5.07693e-14 5.07045e-14 6.48523e-17 0.00127739 0.00457943 0 0 0 0 0 0 0 0 0 0
0.117094 4.30035e-14 4.29632e-14 4.03133e-17 0.000937442 0.00421135 0 0 0 0 0 0 0 0 0 0
0.123105 3.61348e-14 3.61086e-14 2.62169e-17 0.000725531 0.00361603 0 0 0 0 0 0 0 0 0 0
0.129424 3.03919e-14 3.0375e-14 1.68384e-17 0.000554043 0.00304176 0 0 0 0 0 0 0 0 0 0
0.136067 2.75633e-14 2.75524e-14 1.0897e-17 0.000395344 0.00257404 0 0 0 0 0 0 0 0 0 0
0.143051 2.50269e-14 2.50197e-14 7.15157e-18 0.000285755 0.00219619 0 0 0 0 0 0 0 0 0 0
0.150394 2.36593e-14 2.36544e-14 4.86821e-18 0.000205763 0.00187517 0 0 0 0 0 0 0 0 0 0
0.158114 2.3409e-14 2.34054e-14 3.67826e-18 0.00015713 0.00160612 0 0 0 0 0 0 0 0 0 0
0.16623 2.43676e-14 2.43642e-14 3.39365e-18 0.000139269 0.00138106 0 0 0 0 0 0 0 0 0 0
0.174762 2.6732e-14 2.6728e-14 4.08309e-18 0.000152741 0.00118777 0 0 0 0 0 0 0 0 0 0
0.183733 3.09258e-14 3.092e-14 5.8233e-18 0.000188299 0.00101185 0 0 0 0 0 0 0 0 0 0
0.193164 3.83206e-14 3.83114e-14 9.24729e-18 0.000241314 0.000842152 0 0 0 0 0 0 0 0 0 0
0.203079 5.01966e-14 5.01825e-14 1.41373e-17 0.000281638 0.000675328 0 0 0 0 0 0 0 0 0 0
0.213503 6.17715e-14 6.17541e-14 1.74108e-17 0.000281857 0.00051936 0 0 0 0 0 0 0 0 0 0
0.224463 5.92454e-14 5.92308e-14 1.4505e-17 0.000244829 0.000384612 0 0 0 0 0 0 0 0 0 0
0.235984 4.57817e-14 4.57719e-14 9.84025e-18 0.000214938 0.000274622 0 0 0 0 0 0 0 0 0 0
0.248097 3.46062e-14 3.45999e-14 6.36337e-18 0.000183879 0.00021019 0 0 0 0 0 0 0 0 0 0
0.260832 2.77327e-14 2.77284e-14 4.36631e-18 0.000157443 0.000218093 0 0 0 0 0 0 0 0 0 0
0.274221 2.36197e-14 2.36165e-14 3.14723e-18 0.000133246 0.000291086 0 0 0 0 0 0 0 0 0 0
0.288297 2.10561e-14 2.10537e-14 2.34465e-18 0.000111353 0.000390803 0 0 0 0 0 0 0 0 0 0
0.303095 1.9103e-14 1.91012e-14 1.80616e-18 9.45485e-05 0.000438552 0 0 0 0 0 0 0 0 0 0
0.318653 1.67324e-14 1.6731e-14 1.40603e-18 8.40304e-05 0.00045789 0 0 0 0 0 0 0 0 0 0
0.335009 1.47343e-14 1.47332e-14 1.10722e-18 7.5146e-05 0.000450494 0 0 0 0 0 0 0 0 0 0
0.352205 1.28952e-14 1.28943e-14 8.8271e-19 6.84525e-05 0.000427591 0 0 0 0 0 0 0 0 0 0
0.370284 1.12107e-14 1.121e-14 7.09967e-19 6.33292e-05 0.000399834 0 0 0 0 0 0 0 0 0 0
0.389291 9.6779e-15 9.67732e-15 5.75434e-19 5.94586e-05 0.000372832 0 0 0 0 0 0 0 0 0 0
0.409273 8.29643e-15 8.29597e-15 4.67793e-19 5.63849e-05 0.000346601 0 0 0 0 0 0 0 0 0 0
0.430281 7.0584e-15 7.05802e-15 3.80671e-19 5.39316e-05 0.000321671 0 0 0 0 0 0 0 0 0 0
0.452368 5.95752e-15 5.95721e-15 3.09731e-19 5.19899e-05 0.000295906 0 0 0 0 0 0 0 0 0 0
0.475588 4.98718e-15 4.98693e-15 2.52181e-19 5.05658e-05 0.000271223 0 0 0 0 0 0 0 0 0 0
0.5 4.14152e-15 4.14132e-15 2.05866e-19 4.97078e-05 0.000247537 0 0 0 0 0 0 0 0 0 0
0.525665 3.40894e-15 3.40877e-15 1.6824e-19 4.93524e-05 0.000225138 0 0 0 0 0 0 0 0 0 0
0.552647 2.78015e-15 2.78001e-15 1.37541e-19 4.94726e-05 0.000204731 0 0 0 0 0 0 0 0 0 0
0.581015 2.24715e-15 2.24704e-15 1.12993e-19 5.02829e-05 0.000185764 0 0 0 0 0 0 0 0 0 0
0.610839 1.79959e-15 1.7995e-15 9.2854e-20 5.15973e-05 0.000168582 0 0 0 0 0 0 0 0 0 0
0.642193 1.42681e-15 1.42674e-15 7.62918e-20 5.34701e-05 0.000152996 0 0 0 0 0 0 0 0 0 0
0.675157 1.11951e-15 1.11945e-15 6.27559e-20 5.60565e-05 0.000138916 0 0 0 0 0 0 0 0 0 0
0.709813 8.69397e-16 8.69345e-16 5.17092e-20 5.94771e-05 0.000126286 0 0 0 0 0 0 0 0 0 0
0.746248 6.6561e-16 6.65568e-16 4.26144e-20 6.40231e-05 0.000115002 0 0 0 0 0 0 0 0 0 0
0.784553 4.96257e-16 4.96222e-16 3.51086e-20 7.07467e-05 0.000104755 0 0 0 0 0 0 0 0 0 0
0.824824 3.54482e-16 3.54453e-16 2.89183e-20 8.1579e-05 9.55575e-05 0 0 0 0 0 0 0 0 0 0
0.867162 2.60202e-16 2.60178e-16 2.38284e-20 9.15765e-05 8.7282e-05 0 0 0 0 0 0 0 0 0 0
0.911674 1.93001e-16 1.92981e-16 1.9624e-20 0.000101678 7.97956e-05 0 0 0 0 0 0 0 0 0 4.2039e-45
0.95847 1.33045e-16 1.33028e-16 1.61479e-20 0.000121372 7.30859e-05 0 0 0 0 0 1.4013e-45 0 9.80909e-45 0 8.26766e-44
1.00767 8.6492e-17 8.64787e-17 1.32886e-20 0.00015364 6.69931e-05 0 1.4013e-45 0 4.2039e-45 0 1.82169e-44 0 2.14399e-43 0 1.57506e-42
1.05939 6.51822e-17 6.51713e-17 1.0931e-20 0.0001677 6.14665e-05 0 1.96182e-44 0 8.82818e-44 0 4.33001e-43 0 4.46874e-42 0 3.04208e-41
1.11377 5.16537e-17 5.16447e-17 8.98895e-21 0.000174023 5.64354e-05 0 4.37205e-43 0 1.90577e-42 0 9.04118e-42 0 8.55297e-41 0 5.44278e-40
1.17094 3.94426e-17 3.94352e-17 7.3887e-21 0.000187328 5.17385e-05 0 7.92715e-42 0 3.40095e-41 0 1.56599e-40 0 1.38313e-39 0 8.29045e-39
1.23105 3.10619e-17 3.10558e-17 6.07615e-21 0.000195614 4.74385e-05 0 1.27685e-40 0 5.40079e-40 0 2.42647e-39 0 2.02768e-38 0 1.15365e-37
1.29424 2.56946e-17 2.56896e-17 4.99838e-21 0.00019453 4.34827e-05 0 1.88411e-39 0 7.8434e-39 0 3.44826e-38 0 2.75329e-37 0 1.49744e-36
1.36067 2.15051e-17 2.1501e-17 4.10937e-21 0.000191088 3.98794e-05 0 2.48459e-38 0 1.01334e-37 0 4.36107e-37 0 3.34888e-36 0 1.75142e-35
1.43051 1.80219e-17 1.80186e-17 3.37693e-21 0.000187379 3.65965e-05 0 2.93973e-37 0 1.16533e-36 0 4.89776e-36 0 3.62879e-35 0 1.83313e-34
1.50394 1.51104e-17 1.51076e-17 2.77604e-21 0.000183718 3.35621e-05 0 3.16697e-36 0 1.20646e-35 0 4.92525e-35 0 3.52064e-34 0 1.72279e-33
1.58114 1.2676e-17 1.26737e-17 2.28211e-21 0.000180034 3.07331e-05 0 3.15241e-35 0 1.13885e-34 0 4.47915e-34 0 3.07867e-33 0 1.46097e-32
1.6623 1.06509e-17 1.06491e-17 1.87625e-21 0.000176158 2.8109e-05 0 2.93417e-34 0 9.93045e-34 0 3.72548e-33 0 2.44662e-32 0 1.12521e-31
1.74762 8.97687e-18 8.97532e-18 1.54275e-21 0.000171858 2.57444e-05 0 2.56921e-33 0 8.08497e-33 0 2.86526e-32 0 1.78271e-31 0 7.92755e-31
1.83733 7.60832e-18 7.60705e-18 1.26839e-21 0.000166711 2.35831e-05 0 2.11786e-32 0 6.19243e-32 0 2.05871e-31 0 1.20257e-30 0 5.15225e-30
1.93164 6.49428e-18 6.49324e-18 1.04242e-21 0.000160514 2.15987e-05 0 1.6363e-31 0 4.47039e-31 0 1.39084e-30 0 7.56906e-30 0 3.11101e-29
2.03079 5.59635e-18 5.59549e-18 8.56513e-22 0.000153049 1.97573e-05 0 1.17966e-30 0 3.04001e-30 0 8.87229e-30 0 4.47776e-29 0 1.75828e-28
2.13503 4.87507e-18 4.87436e-18 7.04311e-22 0.000144472 1.80729e-05 0 7.9016e-30 0 1.94133e-29 0 5.34697e-29 0 2.50105e-28 0 9.35254e-28
2.24463 4.29457e-18 4.29399e-18 5.7889e-22 0.000134796 1.65379e-05 0 4.90242e-29 0 1.15979e-28 0 3.03862e-28 0 1.32142e-27 0 4.69811e-27
2.35984 3.83254e-18 3.83207e-18 4.75624e-22 0.000124101 1.5123e-05 0 2.8188e-28 0 6.47528e-28 0 1.62713e-27 0 6.61755e-27 0 2.23733e-26
2.48097 3.46572e-18 3.46533e-18 3.90712e-22 0.000112736 1.3816e-05 0 1.50307e-27 0 3.37508e-27 0 8.19611e-27 0 3.14053e-26 0 1.01153e-25
2.60832 3.17554e-18 3.17522e-18 3.21228e-22 0.000101157 1.26101e-05 0 7.44469e-27 0 1.64237e-26 0 3.87948e-26 0 1.41146e-25 1.26117e-44 4.34443e-25
2.74221 2.95009e-18 2.94983e-18 2.64011e-22 8.94924e-05 1.15126e-05 0 3.43551e-26 0 7.47495e-26 0 1.7266e-25 0 6.00922e-25 7.65109e-43 1.77434e-24
2.88297 2.79818e-18 2.79796e-18 2.16818e-22 7.74856e-05 1.05196e-05 0 1.49173e-25 0 3.21035e-25 0 7.28211e-25 2.8026e-45 2.44069e-24 3.81391e-41 6.94218e-24
3.03095 2.78608e-18 2.7859e-18 1.78092e-22 6.39222e-05 9.61774e-06 0 6.28587e-25 0 1.34096e-24 0 2.99701e-24 1.70958e-43 9.72926e-24 1.62555e-39 2.67684e-23
3.18653 3.93948e-18 3.93933e-18 1.46308e-22 3.7139e-05 8.78097e-06 0 3.48879e-24 0 7.38967e-24 0 1.63157e-23 1.33586e-41 5.15522e-23 8.0908e-38 1.37734e-22
3.35009 1.08534e-17 1.08533e-17 1.20157e-22 1.10709e-05 8.01159e-06 0 3.51065e-23 0 7.39241e-23 7.00649e-45 1.61572e-22 1.6454e-39 4.98907e-22 6.51408e-36 1.29897e-21
3.52205 2.68127e-18 2.68117e-18 9.86328e-23 3.67859e-05 7.3115e-06 0 2.95699e-23 0 6.1961e-23 1.21913e-43 1.34278e-22 1.49119e-38 4.06561e-22 3.93974e-35 1.03481e-21
3.70284 2.38078e-18 2.3807e-18 8.09998e-23 3.40224e-05 6.67146e-06 0 8.38353e-23 0 1.74943e-22 5.86023e-42 3.76402e-22 4.02459e-37 1.12058e-21 7.23739e-34 2.79593e-21
3.89291 2.3283e-18 2.32824e-18 6.64948e-23 2.85593e-05 6.08061e-06 0 2.45911e-22 3.08286e-44 5.11343e-22 2.50908e-40 1.09342e-21 1.00034e-35 3.20808e-21 1.24765e-32 7.8653e-21
4.09273 2.36702e-18 2.36697e-18 5.45798e-23 2.30584e-05 5.52294e-06 0 7.06468e-22 1.76844e-42 1.46455e-21 9.17267e-39 3.11506e-21 2.18026e-34 9.02437e-21 1.91999e-31 2.17856e-20
4.30281 2.4872e-18 2.48715e-18 4.47907e-23 1.80085e-05 5.01875e-06 9.80909e-45 1.98205e-21 8.41494e-41 4.09803e-21 2.87444e-37 8.67614e-21 4.17745e-33 2.48577e-20 2.64195e-30 5.91929e-20
4.52368 2.72377e-18 2.72374e-18 3.67684e-23 1.34991e-05 4.55994e-06 6.22177e-43 5.49096e-21 3.422e-39 1.13266e-20 7.85713e-36 2.3883e-20 7.15154e-32 6.77627e-20 3.30107e-29 1.59412e-19
4.75588 3.18062e-18 3.18059e-18 3.01713e-23 9.48599e-06 4.13925e-06 3.40235e-41 1.54087e-20 1.22869e-37 3.17197e-20 1.93343e-34 6.66448e-20 1.12762e-30 1.87468e-19 3.85779e-28 4.36274e-19
5 4.35669e-18 4.35667e-18 2.47506e-23 5.68105e-06 3.73686e-06 1.7865e-39 4.83056e-20 4.32473e-36 9.92588e-20 4.75074e-33 2.07889e-19 1.8144e-29 5.80326e-19 4.66852e-27 1.33754e-18
5.25665 1.26215e-17 1.26215e-17 2.03085e-23 1.60904e-06 3.37603e-06 1.64025e-37 3.0577e-19 2.71424e-34 6.27284e-19 2.11829e-31 1.31009e-18 5.40841e-28 3.63232e-18 1.06128e-25 8.29959e-18
5.52648 1.05767e-17 1.05767e-17 1.66626e-23 1.5754e-06 3.05315e-06 3.63497e-36 5.35728e-19 4.18878e-33 1.09745e-18 2.36162e-30 2.28627e-18 4.111e-27 6.30031e-18 6.23398e-25 1.42842e-17
5.81015 1.8364e-17 1.8364e-17 1.36625e-23 7.43982e-07 2.75844e-06 1.40516e-34 1.86511e-18 1.14772e-31 3.81573e-18 4.74936e-29 7.93122e-18 5.7431e-26 2.17369e-17 6.81534e-24 4.89379e-17
6.10839 6.25893e-17 6.25893e-17 1.11996e-23 1.78937e-07 2.48226e-06 9.05224e-33 1.22498e-17 5.32946e-30 2.50319e-17 1.64332e-27 5.19247e-17 1.40518e-24 1.4161e-16 1.32068e-22 3.16801e-16
6.42193 4.13148e-17 4.13148e-17 9.18058e-24 2.2221e-07 2.25607e-06 9.66587e-32 1.50059e-17 4.16801e-29 3.06314e-17 9.71496e-27 6.34234e-17 5.97446e-24 1.72201e-16 4.4981e-22 3.83032e-16
6.75157 3.40003e-17 3.40003e-17 7.5266e-24 2.21369e-07 2.01436e-06 1.10956e-30 2.21121e-17 3.55798e-28 4.50941e-17 6.35515e-26 9.32139e-17 2.85642e-23 2.52068e-16 1.7415e-21 5.57759e-16
7.09813 3.95659e-17 3.95659e-17 6.16714e-24 1.5587e-07 1.80352e-06 1.56441e-29 4.4538e-17 3.78483e-27 9.07488e-17 5.24832e-25 1.87304e-16 1.75065e-22 5.04654e-16 8.73263e-21 1.11135e-15
7.46248 9.64599e-17 9.64599e-17 5.05172e-24 5.23711e-08 1.60954e-06 4.04134e-28 1.81986e-16 7.47894e-26 3.70514e-16 8.15144e-24 7.63687e-16 2.04749e-21 2.05074e-15 8.43855e-20 4.49647e-15
7.84553 1.23079e-16 1.23079e-16 4.13954e-24 3.36332e-08 1.42262e-06 4.81018e-27 3.77486e-16 6.89885e-25 7.67986e-16 5.97994e-23 1.58096e-15 1.14685e-20 4.2324e-15 3.94184e-19 9.24279e-15
8.24824 5.58648e-17 5.58648e-17 3.39095e-24 6.06993e-08 1.24861e-06 1.80405e-26 2.70584e-16 2.03034e-24 5.50131e-16 1.41538e-22 1.13119e-15 2.10004e-20 3.01981e-15 6.07319e-19 6.57026e-15
8.67162 4.53486e-17 4.53486e-17 2.77588e-24 6.12121e-08 1.09773e-06 1.07828e-25 3.37478e-16 9.63603e-24 6.85717e-16 5.46014e-22 1.40849e-15 6.34665e-20 3.75032e-15 1.55737e-18 8.13154e-15
9.11674 1.28757e-17 1.28757e-17 2.27238e-24 1.76486e-07 9.62909e-07 2.01997e-25 1.43431e-16 1.4496e-23 2.91271e-16 6.74453e-22 5.97695e-16 6.21519e-20 1.58762e-15 1.3045e-18 3.43121e-15
9.5847 7.70084e-18 7.70083e-18 1.85943e-24 2.41459e-07 8.41616e-07 7.18154e-25 1.25272e-16 4.18319e-23 2.54263e-16 1.61356e-21 5.21277e-16 1.19227e-19 1.3815e-15 2.15684e-18 2.97669e-15
10.0767 6.08508e-18 6.08508e-18 1.52087e-24 2.49934e-07 7.28378e-07 3.05449e-24 1.41195e-16 1.45895e-22 2.8644e-16 4.70837e-21 5.8674e-16 2.81985e-19 1.55168e-15 4.42872e-18 3.33373e-15
10.5939 6.17593e-18 6.17593e-18 1.24302e-24 2.01268e-07 6.19831e-07 1.51837e-23 1.9989e-16 6.00482e-22 4.05327e-16 1.63555e-20 8.29595e-16 8.02122e-19 2.18948e-15 1.10127e-17 4.69106e-15
11.1377 2.09828e-17 2.09828e-17 1.01515e-24 4.83802e-08 5.18676e-07 2.30965e-22 9.27399e-16 7.6329e-21 1.8797e-15 1.76922e-19 3.84427e-15 7.17493e-18 1.01262e-14 8.66818e-17 2.16381e-14
11.7094 1.13718e-17 1.13718e-17 8.36792e-25 7.35847e-08 4.29871e-07 5.14545e-22 6.72626e-16 1.43349e-20 1.36274e-15 2.84996e-19 2.78493e-15 9.6464e-18 7.322e-15 1.03191e-16 1.56055e-14
12.3105 1.13159e-17 1.13159e-17 6.80398e-25 6.01277e-08 3.35832e-07 1.94052e-21 8.78658e-16 4.59558e-20 1.77943e-15 7.89565e-19 3.63387e-15 2.25028e-17 9.53648e-15 2.14417e-16 2.02737e-14
12.9424 9.39917e-18 9.39917e-18 5.55579e-25 5.91094e-08 2.44925e-07 5.65445e-21 9.40696e-16 1.14738e-19 1.90431e-15 1.71576e-18 3.88613e-15 4.15215e-17 1.01801e-14 3.54403e-16 2.15877e-14
13.6067 7.38115e-18 7.38115e-18 4.5367e-25 6.14633e-08 1.69315e-07 1.44738e-20 9.35673e-16 2.53554e-19 1.8934e-15 3.32248e-18 3.86115e-15 6.88202e-17 1.00966e-14 5.29022e-16 2.13572e-14
14.3051 5.76537e-18 5.76536e-18 3.70158e-25 6.42038e-08 1.02757e-07 3.43617e-20 9.10384e-16 5.23423e-19 1.8415e-15 6.04907e-18 3.75269e-15 1.08063e-16 9.79543e-15 7.5195e-16 2.06684e-14
15.0394 4.77015e-18 4.77015e-18 3.01843e-25 6.32774e-08 4.32635e-08 8.0853e-20 9.23448e-16 1.07827e-18 1.86719e-15 1.10578e-17 3.80237e-15 1.71605e-16 9.90726e-15 1.08619e-15 2.08517e-14
15.8114 4.83978e-18 4.83978e-18 2.46129e-25 5.08554e-08 -1.2212e-08 2.18995e-19 1.13131e-15 2.57356e-18 2.28656e-15 2.3557e-17 4.65309e-15 3.19771e-16 1.21018e-14 1.84965e-15 2.54054e-14
16.623 6.48457e-18 6.48457e-18 2.00661e-25 3.09444e-08 -6.84648e-08 7.37578e-19 1.80381e-15 7.68533e-18 3.64433e-15 6.31393e-17 7.41076e-15 7.54596e-16 1.92383e-14 4.00635e-15 4.02824e-14
17.4762 5.60443e-18 5.60443e-18 1.63507e-25 2.91746e-08 -1.2234e-07 1.51329e-18 1.82957e-15 1.40631e-17 3.69486e-15 1.04247e-16 7.50799e-15 1.10376e-15 1.94539e-14 5.40144e-15 4.06258e-14
18.3733 3.84389e-18 3.84389e-18 1.33161e-25 3.46422e-08 -1.72913e-07 2.33341e-18 1.45316e-15 1.94482e-17 2.93345e-15 1.30733e-16 5.95629e-15 1.23356e-15 1.54034e-14 5.58632e-15 3.20798e-14
19.3164 3.29584e-18 3.29584e-18 1.08586e-25 3.29464e-08 -2.2499e-07 4.27097e-18 1.4246e-15 3.20962e-17 2.87455e-15 1.96588e-16 5.83218e-15 1.66242e-15 1.50524e-14 6.99327e-15 3.12614e-14
20.3079 2.86735e-18 2.86735e-18 8.86032e-26 3.09007e-08 -2.84246e-07 7.55089e-18 1.39989e-15 5.14232e-17 2.82341e-15 2.88292e-16 5.72384e-15 2.19659e-15 1.47426e-14 8.6144e-15 3.05299e-14
21.3503 2.54713e-18 2.54713e-18 7.2375e-26 2.84143e-08 -3.28026e-07 1.30071e-17 1.38826e-15 8.06611e-17 2.79866e-15 4.15704e-16 5.66898e-15 2.86842e-15 1.45704e-14 1.05231e-14 3.00839e-14
22.4463 2.29572e-18 2.29572e-18 5.93103e-26 2.58351e-08 -3.62801e-07 2.17427e-17 1.38129e-15 1.2334e-16 2.78329e-15 5.86755e-16 5.63302e-15 3.68433e-15 1.44462e-14 1.26854e-14 2.97362e-14
23.5984 2.099e-18 2.099e-18 4.88945e-26 2.32941e-08 -3.91749e-07 3.53399e-17 1.37936e-15 1.84184e-16 2.77801e-15 8.1196e-16 5.61735e-15 4.66103e-15 1.43733e-14 1.51084e-14 2.94922e-14
24.8097 1.94971e-18 1.94971e-18 4.06561e-26 2.08524e-08 -4.36075e-07 5.605e-17 1.38511e-15 2.69499e-16 2.78815e-15 1.10505e-15 5.63266e-15 5.82478e-15 1.43784e-14 1.78274e-14 2.94055e-14
26.0832 1.84229e-18 1.84229e-18 3.42433e-26 1.85874e-08 -4.65139e-07 8.70289e-17 1.4011e-15 3.87569e-16 2.81883e-15 1.48339e-15 5.68917e-15 7.20961e-15 1.44869e-14 2.08936e-14 2.95258e-14
27.4221 1.76726e-18 1.76726e-18 2.92408e-26 1.65459e-08 -4.86549e-07 1.32273e-16 1.42544e-15 5.47627e-16 2.86619e-15 1.96306e-15 5.77896e-15 8.83229e-15 1.46777e-14 2.43014e-14 2.98078e-14
28.8297 1.70777e-18 1.70777e-18 2.53899e-26 1.48672e-08 -4.96644e-07 1.95613e-16 1.4479e-15 7.55594e-16 2.90965e-15 2.5449e-15 5.86044e-15 1.06398e-14 1.48446e-14 2.78649e-14 3.0034e-14
30.3095 1.65136e-18 1.65136e-18 2.23181e-26 1.3515e-08 -5.0005e-07 2.80078e-16 1.45919e-15 1.01278e-15 2.93055e-15 3.2148e-15 5.89602e-15 1.25345e-14 1.48924e-14 3.13221e-14 3.0013e-14
31.8653 1.56674e-18 1.56674e-18 1.96089e-26 1.25157e-08 -4.91686e-07 3.81309e-16 1.43124e-15 1.29498e-15 2.87255e-15 3.88522e-15 5.77263e-15 1.41757e-14 1.45373e-14 3.38781e-14 2.9177e-14
33.5009 1.46194e-18 1.46194e-18 1.71993e-26 1.17647e-08 -4.84077e-07 4.95544e-16 1.37004e-15 1.58543e-15 2.74785e-15 4.50835e-15 5.51524e-15 1.54433e-14 1.38453e-14 3.53759e-14 2.76682e-14
35.2206 1.31923e-18 1.31923e-18 1.47293e-26 1.11651e-08 -4.5463e-07 6.0537e-16 1.25901e-15 1.82993e-15 2.52334e-15 4.94494e-15 5.05801e-15 1.59526e-14 1.2655e-14 3.51003e-14 2.51745e-14
37.0284 1.16799e-18 1.16799e-18 1.2459e-26 1.0667e-08 -4.29016e-07 7.06253e-16 1.12728e-15 2.02269e-15 2.25758e-15 5.20718e-15 4.51899e-15 1.58676e-14 1.12661e-14 3.36034e-14 2.23041e-14
38.9291 1.01714e-18 1.01714e-18 1.03501e-26 1.01757e-08 -3.89188e-07 7.89893e-16 9.86245e-16 2.14903e-15 1.9735e-15 5.28323e-15 3.94445e-15 1.52504e-14 9.79645e-15 3.11448e-14 1.92961e-14
40.9273 8.78426e-19 8.78426e-19 8.51523e-27 9.69373e-09 -3.51971e-07 8.54973e-16 8.50358e-16 2.21527e-15 1.70008e-15 5.21264e-15 3.3925e-15 1.4292e-14 8.3914e-15 2.81989e-14 1.644e-14
43.0282 7.57028e-19 7.57028e-19 6.94686e-27 9.17649e-09 -2.99396e-07 9.02263e-16 7.27323e-16 2.23179e-15 1.4527e-15 5.03736e-15 2.89384e-15 1.31527e-14 7.12677e-15 2.51167e-14 1.38831e-14
45.2368 6.52279e-19 6.52279e-19 5.64832e-27 8.65936e-09 -2.43981e-07 9.3119e-16 6.1849e-16 2.20394e-15 1.23404e-15 4.78158e-15 2.45363e-15 1.1919e-14 6.01438e-15 2.20666e-14 1.16458e-14
47.5588 5.64815e-19 5.64815e-19 4.58109e-27 8.11078e-09 -1.47659e-07 9.45755e-16 5.2576e-16 2.14651e-15 1.04783e-15 4.48527e-15 2.07912e-15 1.0699e-14 5.07073e-15 1.92352e-14 9.75629e-15
50 4.89873e-19 4.89873e-19 3.71614e-27 7.58593e-09 -4.92132e-08 9.43099e-16 4.45421e-16 2.05689e-15 8.86607e-16 4.14741e-15 1.75531e-15 9.48883e-15 4.25779e-15 1.6592e-14 8.1372e-15
52.5665 4.27023e-19 4.27023e-19 3.0127e-27 7.05511e-09 5.0122e-08 9.27454e-16 3.77476e-16 1.94767e-15 7.50332e-16 3.79648e-15 1.48189e-15 8.34916e-15 3.57361e-15 1.42204e-14 6.78131e-15
55.2648 3.73671e-19 3.73671e-19 2.44289e-27 6.53754e-09 1.46187e-07 8.99238e-16 3.19693e-16 1.82178e-15 6.34514e-16 3.4389e-15 1.24981e-15 7.28478e-15 2.99505e-15 1.21031e-14 5.64105e-15
58.1015 3.28286e-19 3.28286e-19 1.98359e-27 6.04228e-09 2.25597e-07 8.60502e-16 2.70685e-16 1.68487e-15 5.36347e-16 3.08513e-15 1.05337e-15 6.30777e-15 2.50727e-15 1.02367e-14 4.68536e-15
