# 5.97623e-07 4 27 : grain size, compostion index, size index
# This grain was stochastically heated: Yes
# Heating and cooling timescale: 17563.9 912.543
# Ratio of heating to cooling to determine stochastic cutoff: 100
# Equilibrium emission is recorded even for those grains in the stochastic regime.
# Emission spectrum was computed for: 
# Type: IRSF
# Scale: 1
# Temperature: -1
# Wavelength  CExt  CAbs  CSca  Albedo G EqEmission StEmission
0.05 7.98609e-13 7.48538e-13 5.0071e-14 0.0626978 0.0924889 0 0
0.0525665 8.29759e-13 7.80582e-13 4.91775e-14 0.0592672 0.0827316 0 0
0.0552647 8.71295e-13 8.21429e-13 4.98663e-14 0.0572323 0.0738232 0 0
0.0581015 9.52813e-13 8.98313e-13 5.44999e-14 0.0571989 0.0656166 0 0
0.0610839 1.08249e-12 1.02011e-12 6.23872e-14 0.0576328 0.0581212 0 0
0.0642193 1.22398e-12 1.15425e-12 6.97283e-14 0.0569685 0.0513867 0 0
0.0675157 1.33943e-12 1.26542e-12 7.40131e-14 0.0552572 0.0454736 0 0
0.0709813 1.39994e-12 1.32594e-12 7.40048e-14 0.0528627 0.0404819 0 0
0.0746248 1.38714e-12 1.31773e-12 6.94089e-14 0.0500375 0.0365125 0 0
0.0784553 1.29406e-12 1.23359e-12 6.04788e-14 0.0467355 0.0336665 0 0
0.0824824 1.13106e-12 1.08287e-12 4.81888e-14 0.0426052 0.0319449 0 0
0.0867162 1.03561e-12 9.97149e-13 3.84646e-14 0.0371418 0.0293055 0 0
0.0911674 9.86702e-13 9.5213e-13 3.45721e-14 0.0350381 0.0266346 0 0
0.095847 8.68896e-13 8.39288e-13 2.96081e-14 0.0340755 0.025366 0 0
0.100767 7.42011e-13 7.17768e-13 2.42425e-14 0.0326714 0.0245259 0 0
0.105939 6.04571e-13 5.85777e-13 1.87946e-14 0.0310874 0.0241512 0 0
0.111377 5.05406e-13 4.9098e-13 1.44264e-14 0.0285443 0.0231043 0 0
0.117094 4.29179e-13 4.17862e-13 1.1317e-14 0.026369 0.0218302 0 0
0.123105 3.66566e-13 3.57572e-13 8.99373e-15 0.0245351 0.0205033 0 0
0.129424 3.13145e-13 3.05918e-13 7.22764e-15 0.0230808 0.01921 0 0
0.136067 2.65975e-13 2.60087e-13 5.8882e-15 0.0221382 0.0180229 0 0
0.143051 2.18617e-13 2.13722e-13 4.89485e-15 0.0223901 0.0171127 0 0
0.150394 1.55526e-13 1.51612e-13 3.91324e-15 0.0251614 0.016322 0 0
0.158114 1.02189e-13 9.92161e-14 2.97254e-15 0.0290888 0.0149429 0 0
0.16623 6.65703e-14 6.43446e-14 2.22569e-15 0.0334337 0.0132967 0 0
0.174762 4.50559e-14 4.33832e-14 1.6727e-15 0.0371249 0.0117375 0 0
0.183733 3.00895e-14 2.88275e-14 1.26202e-15 0.0419422 0.0103573 0 0
0.193164 2.04991e-14 1.95389e-14 9.60247e-16 0.0468434 0.0091635 0 0
0.203079 1.42657e-14 1.35293e-14 7.36399e-16 0.0516201 0.00813213 0 0
0.213503 1.05284e-14 9.96108e-15 5.67318e-16 0.0538846 0.0072319 0 0
0.224463 8.80225e-15 8.3618e-15 4.40455e-16 0.0500389 0.00644973 0 0
0.235984 8.2584e-15 7.91272e-15 3.45672e-16 0.041857 0.00577172 0 0
0.248097 8.11214e-15 7.83831e-15 2.73831e-16 0.0337557 0.00517924 0 0
0.260832 7.83877e-15 7.62063e-15 2.18139e-16 0.0278282 0.00465515 0 0
0.274221 7.52989e-15 7.35545e-15 1.74446e-16 0.0231671 0.00418858 0 0
0.288297 7.21548e-15 7.07539e-15 1.40097e-16 0.0194161 0.00377305 0 0
0.303095 6.91002e-15 6.7972e-15 1.12816e-16 0.0163265 0.00340107 0 0
0.318653 6.60996e-15 6.51895e-15 9.10098e-17 0.0137686 0.00306711 0 0
0.335009 6.31804e-15 6.24445e-15 7.35907e-17 0.0116477 0.00276753 0 0
0.352205 6.03733e-15 5.97772e-15 5.96034e-17 0.00987248 0.00249822 0 0
0.370284 5.76563e-15 5.71731e-15 4.83232e-17 0.00838125 0.00225561 0 1.99075e-308
0.389291 5.50461e-15 5.46538e-15 3.92319e-17 0.00712709 0.00203717 0 3.59322e-294
0.409273 5.25131e-15 5.2194e-15 3.19069e-17 0.006076 0.00184067 0 1.29035e-280
0.430281 5.00682e-15 4.98086e-15 2.5957e-17 0.00518433 0.00166322 0 9.97839e-268
0.452368 4.77246e-15 4.75132e-15 2.11428e-17 0.00443018 0.00150327 0 1.79181e-255
0.475588 4.54783e-15 4.5306e-15 1.72283e-17 0.00378824 0.00135878 0 8.02395e-244
0.5 4.33428e-15 4.32023e-15 1.4054e-17 0.00324251 0.00122854 0 9.59414e-233
0.525665 4.13102e-15 4.11956e-15 1.1466e-17 0.00277559 0.00111078 0 3.2674e-222
0.552647 3.93788e-15 3.92853e-15 9.35222e-18 0.00237494 0.00100422 0 3.37027e-212
0.581015 3.75187e-15 3.74422e-15 7.64273e-18 0.00203705 0.000908284 0 1.11572e-202
0.610839 3.57542e-15 3.56918e-15 6.24659e-18 0.00174709 0.000821545 0 1.25412e-193
0.642193 3.40783e-15 3.40273e-15 5.10368e-18 0.00149763 0.000743013 0 5.04603e-185
0.675157 3.24882e-15 3.24465e-15 4.17074e-18 0.00128377 0.000672001 0 7.64381e-177
0.709813 3.09822e-15 3.09481e-15 3.4117e-18 0.00110118 0.000607932 0 4.57371e-169
0.746248 2.95534e-15 2.95255e-15 2.79056e-18 0.000944245 0.000549952 0 1.1315e-161
0.784553 2.81953e-15 2.81725e-15 2.28181e-18 0.000809287 0.000497457 0 1.2084e-154
0.824824 2.68911e-15 2.68725e-15 1.86654e-18 0.000694108 0.000450006 0 5.80347e-148
0.867162 2.56447e-15 2.56294e-15 1.52813e-18 0.000595885 0.000407174 0 1.30404e-141
0.911674 2.4456e-15 2.44435e-15 1.2508e-18 0.000511446 0.000368391 0 1.42339e-135
0.95847 2.33165e-15 2.33062e-15 1.02368e-18 0.000439038 0.000333286 0 7.81964e-130
1.00767 2.2235e-15 2.22266e-15 8.38016e-19 0.000376891 0.000301548 0 2.23786e-124
1.05939 2.12135e-15 2.12066e-15 6.86089e-19 0.000323421 0.000272842 0 3.44706e-119
1.11377 2.02418e-15 2.02362e-15 5.61551e-19 0.000277421 0.000246848 0 2.94639e-114
1.17094 1.93134e-15 1.93088e-15 4.59434e-19 0.000237883 0.000223306 2.03222e-303 1.439e-109
1.23105 1.84304e-15 1.84266e-15 3.76074e-19 0.000204051 0.00020204 9.0899e-289 4.13103e-105
1.29424 1.7634e-15 1.76309e-15 3.07724e-19 0.000174507 0.000182781 7.73859e-275 7.1776e-101
1.36067 1.68865e-15 1.6884e-15 2.51895e-19 0.000149169 0.000165368 1.35756e-261 7.72982e-97
1.43051 1.61752e-15 1.61731e-15 2.0604e-19 0.000127381 0.000149589 5.2982e-249 5.28434e-93
1.50394 1.54981e-15 1.54964e-15 1.68653e-19 0.000108822 0.000135341 4.95053e-237 2.3474e-89
1.58114 1.48498e-15 1.48485e-15 1.3801e-19 9.29368e-05 0.000122441 1.18714e-225 6.92688e-86
1.6623 1.42286e-15 1.42274e-15 1.12839e-19 7.93048e-05 0.000110747 7.80791e-215 1.38714e-82
1.74762 1.36434e-15 1.36425e-15 9.2282e-20 6.76387e-05 0.000100177 1.50144e-204 1.92558e-79
1.83733 1.3109e-15 1.31082e-15 7.54529e-20 5.75582e-05 9.06123e-05 8.97505e-195 1.89219e-76
1.93164 1.26097e-15 1.2609e-15 6.16665e-20 4.89042e-05 8.19511e-05 1.76436e-185 1.34024e-73
2.03079 1.21381e-15 1.21376e-15 5.03914e-20 4.15151e-05 7.4114e-05 1.20385e-176 6.96594e-71
2.13503 1.16913e-15 1.16909e-15 4.11794e-20 3.52223e-05 6.70299e-05 3.00218e-168 2.70401e-68
2.24463 1.12751e-15 1.12748e-15 3.363e-20 2.98268e-05 6.06137e-05 2.87561e-160 7.97911e-66
2.35984 1.08774e-15 1.08771e-15 2.74509e-20 2.52366e-05 5.48043e-05 1.10768e-152 1.81798e-63
2.48097 1.05015e-15 1.05013e-15 2.23855e-20 2.13165e-05 4.95414e-05 1.79475e-145 3.25019e-61
2.60832 1.01538e-15 1.01536e-15 1.82605e-20 1.79838e-05 4.47885e-05 1.27695e-138 4.63052e-59
2.74221 9.82373e-16 9.82359e-16 1.48881e-20 1.51552e-05 4.04864e-05 4.15004e-132 5.32406e-57
2.88297 9.51735e-16 9.51723e-16 1.21178e-20 1.27323e-05 3.65834e-05 6.4058e-126 5.00395e-55
3.03095 9.2278e-16 9.2277e-16 9.86145e-21 1.06867e-05 3.30565e-05 4.8675e-120 3.88324e-53
3.18653 8.97501e-16 8.97493e-16 8.02126e-21 8.93733e-06 2.98668e-05 1.88932e-114 2.51716e-51
3.35009 8.73599e-16 8.73592e-16 6.51587e-21 7.45865e-06 2.69769e-05 3.86265e-109 1.37088e-49
3.52205 8.47657e-16 8.47651e-16 5.28362e-21 6.23321e-06 2.43575e-05 4.27491e-104 6.29471e-48
3.70284 8.22105e-16 8.221e-16 4.28187e-21 5.20842e-06 2.19913e-05 2.64573e-99 2.46073e-46
3.89291 7.97407e-16 7.97404e-16 3.4631e-21 4.34295e-06 1.98469e-05 9.42571e-95 8.25075e-45
4.09273 7.7401e-16 7.74007e-16 2.79331e-21 3.60887e-06 1.79019e-05 1.98704e-90 2.39034e-43
4.30281 7.49514e-16 7.49511e-16 2.2467e-21 2.99754e-06 1.6139e-05 2.5352e-86 6.00422e-42
4.52368 7.26961e-16 7.26959e-16 1.80223e-21 2.47912e-06 1.45435e-05 2.01406e-82 1.32105e-40
4.75588 7.07394e-16 7.07393e-16 1.4397e-21 2.03521e-06 1.30959e-05 1.02136e-78 2.56472e-39
5 6.92707e-16 6.92706e-16 1.14297e-21 1.65e-06 1.17794e-05 3.39032e-75 4.42948e-38
5.25665 6.84723e-16 6.84723e-16 9.01574e-22 1.3167e-06 1.05846e-05 7.54622e-72 6.85722e-37
5.52648 6.8251e-16 6.82509e-16 7.06431e-22 1.03505e-06 9.50184e-06 1.14769e-68 9.54266e-36
5.81015 6.89468e-16 6.89467e-16 5.46917e-22 7.93245e-07 8.51457e-06 1.22186e-65 1.20412e-34
6.10839 7.02662e-16 7.02661e-16 4.18013e-22 5.94899e-07 7.61719e-06 9.22836e-63 1.37599e-33
6.42193 7.13091e-16 7.13091e-16 3.137e-22 4.39915e-07 6.8007e-06 4.96594e-60 1.4103e-32
6.75157 7.14947e-16 7.14947e-16 2.26703e-22 3.1709e-07 6.04662e-06 1.91976e-57 1.29063e-31
7.09813 7.2641e-16 7.2641e-16 1.51822e-22 2.09004e-07 5.33686e-06 5.5556e-55 1.08577e-30
7.46248 8.95071e-16 8.95071e-16 8.55481e-23 9.55769e-08 4.64504e-06 1.46153e-52 1.00867e-29
7.84553 1.73961e-15 1.73961e-15 4.27565e-23 2.45782e-08 3.9863e-06 4.61095e-50 1.35128e-28
8.24824 3.61884e-15 3.61884e-15 5.22486e-23 1.44379e-08 3.42589e-06 1.19962e-47 1.77871e-27
8.67162 5.52343e-15 5.52343e-15 9.39813e-23 1.7015e-08 2.98257e-06 1.78707e-45 1.58364e-26
9.11674 8.14312e-15 8.14312e-15 1.83264e-22 2.25054e-08 2.54186e-06 2.03107e-43 1.2606e-25
9.5847 9.16164e-15 9.16164e-15 2.60672e-22 2.84526e-08 2.27651e-06 1.40764e-41 7.11593e-25
10.0767 8.20847e-15 8.20847e-15 2.50652e-22 3.05358e-08 2.16217e-06 6.27566e-40 2.98316e-24
10.5939 6.88575e-15 6.88575e-15 2.2726e-22 3.30044e-08 2.1249e-06 2.13842e-38 1.09554e-23
11.1377 5.41315e-15 5.41315e-15 1.79868e-22 3.3228e-08 2.17784e-06 5.62964e-37 3.53765e-23
11.7094 4.3223e-15 4.3223e-15 1.41348e-22 3.2702e-08 2.19057e-06 1.25275e-35 1.09129e-22
12.3105 3.37516e-15 3.37516e-15 1.08356e-22 3.21038e-08 2.17915e-06 2.28935e-34 3.10285e-22
12.9424 2.63422e-15 2.63422e-15 8.07453e-23 3.06525e-08 2.0856e-06 3.54132e-33 8.3251e-22
13.6067 2.10515e-15 2.10515e-15 5.7823e-23 2.74673e-08 1.89581e-06 4.78926e-32 2.16277e-21
14.3051 1.93352e-15 1.93352e-15 3.96734e-23 2.05188e-08 1.62405e-06 6.40479e-31 6.11488e-21
15.0394 2.15183e-15 2.15183e-15 2.95173e-23 1.37173e-08 1.37507e-06 8.99602e-30 1.98648e-20
15.8114 2.48382e-15 2.48382e-15 2.44626e-23 9.84879e-09 1.17965e-06 1.14386e-28 6.35532e-20
16.623 2.85452e-15 2.85452e-15 2.2367e-23 7.83566e-09 1.01963e-06 1.2724e-27 1.92486e-19
17.4762 3.14781e-15 3.14781e-15 2.18546e-23 6.94278e-09 8.91701e-07 1.20085e-26 5.32647e-19
18.3733 3.24925e-15 3.24925e-15 2.15628e-23 6.63625e-09 7.94235e-07 9.43691e-26 1.31565e-18
19.3164 3.0982e-15 3.0982e-15 2.03861e-23 6.57999e-09 7.28893e-07 6.12867e-25 2.86682e-18
20.3079 2.76855e-15 2.76855e-15 1.79656e-23 6.48916e-09 6.91681e-07 3.35536e-24 5.59968e-18
21.3503 2.47289e-15 2.47289e-15 1.52408e-23 6.16316e-09 6.55424e-07 1.66025e-23 1.04736e-17
22.4463 2.21168e-15 2.21168e-15 1.28367e-23 5.80405e-09 6.20601e-07 7.47435e-23 1.8821e-17
23.5984 1.98274e-15 1.98274e-15 1.06787e-23 5.3858e-09 5.86707e-07 3.07903e-22 3.25793e-17
24.8097 1.78441e-15 1.78441e-15 8.89279e-24 4.9836e-09 5.53523e-07 1.16763e-21 5.44933e-17
26.0832 1.60278e-15 1.60278e-15 7.34604e-24 4.58331e-09 5.22241e-07 4.06944e-21 8.76949e-17
27.4221 1.43747e-15 1.43747e-15 6.06792e-24 4.22125e-09 4.92954e-07 1.30936e-20 1.3605e-16
28.8297 1.29426e-15 1.29426e-15 5.01116e-24 3.87185e-09 4.64238e-07 3.92535e-20 2.04883e-16
30.3095 1.16479e-15 1.16479e-15 4.13623e-24 3.55104e-09 4.37255e-07 1.09572e-19 2.98638e-16
31.8653 1.05068e-15 1.05068e-15 3.40034e-24 3.23634e-09 4.10174e-07 2.86552e-19 4.23068e-16
33.5009 9.46068e-16 9.46068e-16 2.79995e-24 2.95956e-09 3.85391e-07 7.01549e-19 5.80951e-16
35.2206 8.59413e-16 8.59413e-16 2.30047e-24 2.67679e-09 3.59026e-07 1.63015e-18 7.82536e-16
37.0284 7.79333e-16 7.79333e-16 1.89069e-24 2.42604e-09 3.35316e-07 3.56789e-18 1.02442e-15
38.9291 7.05131e-16 7.05131e-16 1.55556e-24 2.20606e-09 3.13265e-07 7.37285e-18 1.30433e-15
40.9273 6.36458e-16 6.36458e-16 1.28142e-24 2.01336e-09 2.92421e-07 1.44208e-17 1.61687e-15
43.0282 5.74123e-16 5.74123e-16 1.053e-24 1.8341e-09 2.73185e-07 2.6815e-17 1.95719e-15
45.2368 5.16676e-16 5.16676e-16 8.64992e-25 1.67415e-09 2.5407e-07 4.74347e-17 2.31199e-15
47.5588 4.65777e-16 4.65777e-16 7.09727e-25 1.52375e-09 2.36645e-07 8.03391e-17 2.67898e-15
50 4.18494e-16 4.18494e-16 5.82718e-25 1.39242e-09 2.2048e-07 1.29906e-16 3.03275e-15
52.5665 3.76445e-16 3.76445e-16 4.77805e-25 1.26926e-09 2.04114e-07 2.01867e-16 3.37264e-15
55.2648 3.38379e-16 3.38379e-16 3.91523e-25 1.15705e-09 1.90074e-07 3.01504e-16 3.68107e-15
58.1015 3.04019e-16 3.04019e-16 3.20956e-25 1.05571e-09 1.74173e-07 4.33754e-16 3.94778e-15
61.0839 2.73166e-16 2.73166e-16 2.62906e-25 9.62439e-10 1.61801e-07 6.02464e-16 4.16605e-15
64.2193 2.45281e-16 2.45281e-16 2.15259e-25 8.77603e-10 1.5006e-07 8.08702e-16 4.3265e-15
67.5157 2.20349e-16 2.20349e-16 1.76216e-25 7.99711e-10 1.36534e-07 1.05202e-15 4.43041e-15
70.9813 1.97965e-16 1.97965e-16 1.44278e-25 7.28806e-10 1.25541e-07 1.3278e-15 4.47502e-15
74.6248 1.77974e-16 1.77974e-16 1.18062e-25 6.63365e-10 1.14517e-07 1.62937e-15 4.46454e-15
78.4553 1.59954e-16 1.59954e-16 9.65898e-26 6.03859e-10 1.05604e-07 1.94481e-15 4.39817e-15
82.4824 1.4381e-16 1.4381e-16 7.90532e-26 5.49704e-10 9.66746e-08 2.2624e-15 4.28403e-15
86.7162 1.29394e-16 1.29394e-16 6.46903e-26 4.9995e-10 8.88324e-08 2.56936e-15 4.13012e-15
91.1674 1.16441e-16 1.16441e-16 5.29232e-26 4.54507e-10 8.07489e-08 2.85045e-15 3.94096e-15
95.847 1.04791e-16 1.04791e-16 4.32888e-26 4.13094e-10 7.11939e-08 3.09239e-15 3.72364e-15
100.767 9.43792e-17 9.43792e-17 3.54301e-26 3.75402e-10 6.47553e-08 3.28665e-15 3.48809e-15
105.939 8.51642e-17 8.51642e-17 2.8987e-26 3.40365e-10 5.67924e-08 3.42961e-15 3.24465e-15
111.377 7.67065e-17 7.67065e-17 2.37112e-26 3.09115e-10 5.48754e-08 3.50407e-15 2.9872e-15
117.094 6.90797e-17 6.90797e-17 1.94011e-26 2.80851e-10 4.96544e-08 3.51479e-15 2.72775e-15
123.105 6.22891e-17 6.22891e-17 1.58778e-26 2.54906e-10 4.3088e-08 3.46918e-15 2.47485e-15
129.424 5.62621e-17 5.62621e-17 1.29928e-26 2.30933e-10 4.49549e-08 3.37392e-15 2.23277e-15
136.067 5.06816e-17 5.06816e-17 1.06297e-26 2.09736e-10 3.9741e-08 3.22163e-15 1.99486e-15
143.051 4.5838e-17 4.5838e-17 8.69924e-27 1.89782e-10 3.50604e-08 3.04306e-15 1.77739e-15
150.394 4.12898e-17 4.12898e-17 7.11964e-27 1.72431e-10 3.43809e-08 2.82277e-15 1.567e-15
158.114 3.74481e-17 3.74481e-17 5.82532e-27 1.55557e-10 3.30081e-08 2.60148e-15 1.38227e-15
166.23 3.38178e-17 3.38178e-17 4.76551e-27 1.40917e-10 2.59759e-08 2.35728e-15 1.20672e-15
174.763 3.03897e-17 3.03897e-17 3.90129e-27 1.28376e-10 2.13034e-08 2.10029e-15 1.04212e-15
183.733 2.75386e-17 2.75386e-17 3.19309e-27 1.1595e-10 8.52919e-09 1.86586e-15 9.02363e-16
193.164 2.48555e-17 2.48555e-17 2.61283e-27 1.05121e-10 1.94216e-08 1.63347e-15 7.739e-16
203.079 2.23977e-17 2.23977e-17 2.13846e-27 9.54767e-11 1.58476e-08 1.4134e-15 6.59063e-16
213.503 2.02674e-17 2.02674e-17 1.75089e-27 8.63898e-11 2.24683e-08 1.21649e-15 5.60634e-16
224.463 1.825e-17 1.825e-17 1.43323e-27 7.85333e-11 5.06258e-09 1.0326e-15 4.72119e-16
235.984 1.64904e-17 1.64904e-17 1.17294e-27 7.11283e-11 9.92244e-09 8.72162e-16 3.96944e-16
248.097 1.4838e-17 1.4838e-17 9.60732e-28 6.4748e-11 4.30407e-09 7.27755e-16 3.30698e-16
260.832 1.32045e-17 1.32045e-17 7.8655e-28 5.95668e-11 1.21229e-08 5.96114e-16 2.71166e-16
274.221 1.17321e-17 1.17321e-17 6.43573e-28 5.48555e-11 7.18704e-09 4.84096e-16 2.20951e-16
288.297 1.04765e-17 1.04765e-17 5.26353e-28 5.02414e-11 1.39988e-08 3.92506e-16 1.80109e-16
303.095 9.33765e-18 9.33765e-18 4.30743e-28 4.61297e-11 4.04688e-08 3.15685e-16 1.45882e-16
318.653 8.40693e-18 8.40693e-18 3.52407e-28 4.19186e-11 -9.53018e-09 2.54982e-16 1.18834e-16
335.009 7.52013e-18 7.52013e-18 2.88234e-28 3.83283e-11 4.51894e-08 2.03507e-16 9.57665e-17
352.206 6.70802e-18 6.70802e-18 2.35792e-28 3.51509e-11 2.27384e-08 1.61139e-16 7.66406e-17
370.284 6.06285e-18 6.06285e-18 1.92957e-28 3.18262e-11 2.52737e-08 1.28662e-16 6.18963e-17
389.291 5.44904e-18 5.44904e-18 1.57859e-28 2.897e-11 1.33912e-09 1.01695e-16 4.95142e-17
409.273 4.91549e-18 4.91549e-18 1.29112e-28 2.62663e-11 7.715e-09 8.03364e-17 3.9605e-17
430.282 4.45329e-18 4.45329e-18 1.05654e-28 2.37249e-11 5.43452e-08 6.34847e-17 3.16986e-17
452.368 4.02341e-18 4.02341e-18 8.64535e-29 2.14876e-11 8.69693e-09 4.98438e-17 2.5211e-17
475.588 3.66382e-18 3.66382e-18 7.07326e-29 1.93057e-11 -7.86645e-09 3.93065e-17 2.0141e-17
500 3.32188e-18 3.32188e-18 5.78614e-29 1.74183e-11 1.27369e-08 3.07615e-17 1.59679e-17
525.665 3.03506e-18 3.03506e-18 4.73671e-29 1.56067e-11 -8.90829e-08 2.41852e-17 1.27167e-17
552.648 2.76687e-18 2.76687e-18 3.87652e-29 1.40105e-11 -1.37155e-08 1.89182e-17 1.00742e-17
581.015 2.53435e-18 2.53435e-18 3.17174e-29 1.2515e-11 -2.10968e-09 1.48284e-17 7.99529e-18
610.838 2.31922e-18 2.31922e-18 2.59577e-29 1.11924e-11 6.88518e-08 1.15826e-17 6.32177e-18
642.193 2.12861e-18 2.12861e-18 2.12514e-29 9.98371e-12 -4.95561e-08 9.05242e-18 4.99985e-18
675.157 1.95709e-18 1.95709e-18 1.73938e-29 8.88757e-12 -5.98934e-09 7.0715e-18 3.95111e-18
709.813 1.80273e-18 1.80273e-18 1.42329e-29 7.89519e-12 2.17447e-07 5.52272e-18 3.12049e-18
746.247 1.66199e-18 1.66199e-18 1.16524e-29 7.01114e-12 3.15961e-08 4.30842e-18 2.46086e-18
784.553 1.53402e-18 1.53402e-18 9.53906e-30 6.21832e-12 8.47063e-09 3.3588e-18 1.9386e-18
824.824 1.417e-18 1.417e-18 7.80751e-30 5.5099e-12 -9.17937e-08 2.61594e-18 1.52511e-18
867.162 1.30758e-18 1.30758e-18 6.38981e-30 4.88673e-12 -2.01432e-07 2.03201e-18 1.19618e-18
911.674 1.20527e-18 1.20527e-18 5.23272e-30 4.34153e-12 -1.75581e-07 1.57424e-18 9.35346e-19
958.471 1.11237e-18 1.11237e-18 4.28443e-30 3.85162e-12 3.15598e-08 1.21936e-18 7.30969e-19
1007.67 1.02514e-18 1.02514e-18 3.507e-30 3.42099e-12 1.4958e-07 9.41836e-19 5.69433e-19
1059.39 9.48329e-19 9.48329e-19 2.87106e-30 3.02749e-12 -1.51405e-08 7.29289e-19 4.44535e-19
1113.77 8.75309e-19 8.75309e-19 2.35095e-30 2.68585e-12 -2.26761e-07 5.62765e-19 3.45713e-19
1170.94 8.05827e-19 8.05827e-19 1.9245e-30 2.38823e-12 -2.73643e-07 4.3265e-19 2.67766e-19
1231.05 7.41652e-19 7.41652e-19 1.57527e-30 2.124e-12 1.0423e-07 3.3217e-19 2.07043e-19
1294.24 6.85984e-19 6.85984e-19 1.29005e-30 1.88059e-12 -2.04232e-07 2.56035e-19 1.60671e-19
1360.67 6.33624e-19 6.33624e-19 1.0563e-30 1.66707e-12 -4.02634e-08 1.96892e-19 1.24356e-19
1430.51 5.83817e-19 5.83817e-19 8.64686e-31 1.48109e-12 2.16466e-07 1.50901e-19 9.58949e-20
1503.94 5.36841e-19 5.36841e-19 7.07777e-31 1.31841e-12 -1.43132e-08 1.15322e-19 7.3715e-20
1581.14 4.97795e-19 4.97795e-19 5.79634e-31 1.1644e-12 5.83553e-07 8.88014e-20 5.70795e-20
1662.3 4.60699e-19 4.60699e-19 4.74557e-31 1.03008e-12 1.02246e-07 6.81962e-20 4.40677e-20
1747.63 4.25405e-19 4.25405e-19 3.88424e-31 9.13069e-13 -1.2687e-07 5.22164e-20 3.3912e-20
1837.33 3.91864e-19 3.91864e-19 3.18009e-31 8.11528e-13 1.33402e-06 3.98575e-20 2.60098e-20
1931.64 3.59988e-19 3.59988e-19 2.60417e-31 7.23403e-13 -3.38473e-07 3.03218e-20 1.98774e-20
2030.79 3.30978e-19 3.30978e-19 2.13189e-31 6.44117e-13 2.12317e-07 2.30726e-20 1.51908e-20
2135.03 3.06319e-19 3.06319e-19 1.74468e-31 5.69564e-13 -1.26061e-06 1.76625e-20 1.16768e-20
2244.63 2.82898e-19 2.82898e-19 1.42866e-31 5.05009e-13 -2.44674e-07 1.34851e-20 8.95e-21
2359.84 2.60618e-19 2.60618e-19 1.16972e-31 4.48823e-13 -1.84716e-07 1.0265e-20 6.83815e-21
2480.97 2.39533e-19 2.39533e-19 9.57452e-32 3.99716e-13 -1.49473e-06 7.79171e-21 5.2089e-21
2608.32 2.21585e-19 2.21585e-19 7.83711e-32 3.53684e-13 -1.91002e-06 5.95012e-21 3.99112e-21
2742.21 2.04622e-19 2.04622e-19 6.41835e-32 3.13668e-13 -8.77113e-08 4.53386e-21 3.05085e-21
2882.96 1.88486e-19 1.88486e-19 5.25506e-32 2.78804e-13 -3.63494e-08 3.44466e-21 2.32494e-21
3030.95 1.73549e-19 1.73549e-19 4.30139e-32 2.47849e-13 1.98649e-06 2.615e-21 1.77005e-21
3186.53 1.60913e-19 1.60913e-19 3.52143e-32 2.18841e-13 1.83745e-06 1.99831e-21 1.35632e-21
3350.09 1.489e-19 1.489e-19 2.88345e-32 1.93649e-13 -1.02815e-06 1.52349e-21 1.03673e-21
3522.05 1.37472e-19 1.37472e-19 2.36045e-32 1.71704e-13 1.93e-06 1.15848e-21 7.90285e-22
3702.84 1.26598e-19 1.26598e-19 1.93178e-32 1.52592e-13 -1.56832e-06 8.78399e-22 6.00627e-22
3892.91 1.1627e-19 1.1627e-19 1.58193e-32 1.36057e-13 2.19336e-06 6.64047e-22 4.55069e-22
