# 0.00137126 2 101 : grain size, compostion index, size index
# Heating and cooling timescale: 1.31237e-06 inf
# Ratio of heating to cooling to determine stochastic cutoff: 100
# Equilibrium emission is recorded even for those grains in the stochastic regime.
# Emission spectrum was computed for: 
# Type: ISRF
# Scales: 0.25 0.5 1 1.5 2 2.5 3 3.5 4 4.5 5 5.5 6 6.5 7 7.5 8 8.5 9 9.5 10
# StochasticallyHeated: 0 0 0 0 0 0 0 0 0 0 0 0 0 0 0 0 0 0 0 0 0
# Temperature: -1
# Wavelength  CExt  CAbs  CSca  Albedo G EqEm1 StEm1 EqEm2 StEm2 EqEm3 StEm3 EqEm4 StEm4 EqEm5 StEm5 EqEm6 StEm6 EqEm7 StEm7 EqEm8 StEm8 EqEm9 StEm9 EqEm10 StEm10 EqEm11 StEm11 EqEm12 StEm12 EqEm13 StEm13 EqEm14 StEm14 EqEm15 StEm15 EqEm16 StEm16 EqEm17 StEm17 EqEm18 StEm18 EqEm19 StEm19 EqEm20 StEm20 EqEm21 StEm21
0.05 1.18876e-05 5.02331e-06 6.86433e-06 0.577434 0.931898 0 0 0 0 0 0 0 0 0 0 0 0 0 0 0 0 0 0 0 0 0 0 0 0 0 0 0 0 0 0 0 0 0 0 0 0 0 0 0 0 0 0
0.0525665 1.18907e-05 4.97997e-06 6.91069e-06 0.581186 0.926109 0 0 0 0 0 0 0 0 0 0 0 0 0 0 0 0 0 0 0 0 0 0 0 0 0 0 0 0 0 0 0 0 0 0 0 0 0 0 0 0 0 0
0.0552647 1.18939e-05 4.90767e-06 6.98623e-06 0.587379 0.91725 0 0 0 0 0 0 0 0 0 0 0 0 0 0 0 0 0 0 0 0 0 0 0 0 0 0 0 0 0 0 0 0 0 0 0 0 0 0 0 0 0 0
0.0581015 1.18977e-05 4.79792e-06 7.09979e-06 0.596736 0.903473 0 0 0 0 0 0 0 0 0 0 0 0 0 0 0 0 0 0 0 0 0 0 0 0 0 0 0 0 0 0 0 0 0 0 0 0 0 0 0 0 0 0
0.0610839 1.1902e-05 4.68751e-06 7.21448e-06 0.606157 0.888026 0 0 0 0 0 0 0 0 0 0 0 0 0 0 0 0 0 0 0 0 0 0 0 0 0 0 0 0 0 0 0 0 0 0 0 0 0 0 0 0 0 0
0.0642193 1.19066e-05 4.61072e-06 7.29589e-06 0.61276 0.875464 0 0 0 0 0 0 0 0 0 0 0 0 0 0 0 0 0 0 0 0 0 0 0 0 0 0 0 0 0 0 0 0 0 0 0 0 0 0 0 0 0 0
0.0675157 1.19113e-05 4.56782e-06 7.34351e-06 0.616515 0.866603 0 0 0 0 0 0 0 0 0 0 0 0 0 0 0 0 0 0 0 0 0 0 0 0 0 0 0 0 0 0 0 0 0 0 0 0 0 0 0 0 0 0
0.0709813 1.19161e-05 4.55256e-06 7.36357e-06 0.61795 0.861016 0 0 0 0 0 0 0 0 0 0 0 0 0 0 0 0 0 0 0 0 0 0 0 0 0 0 0 0 0 0 0 0 0 0 0 0 0 0 0 0 0 0
0.0746248 1.1921e-05 4.56031e-06 7.36069e-06 0.617456 0.858297 0 0 0 0 0 0 0 0 0 0 0 0 0 0 0 0 0 0 0 0 0 0 0 0 0 0 0 0 0 0 0 0 0 0 0 0 0 0 0 0 0 0
0.0784553 1.19258e-05 4.59406e-06 7.33171e-06 0.614779 0.85894 0 0 0 0 0 0 0 0 0 0 0 0 0 0 0 0 0 0 0 0 0 0 0 0 0 0 0 0 0 0 0 0 0 0 0 0 0 0 0 0 0 0
0.0824824 1.19302e-05 4.66458e-06 7.26561e-06 0.60901 0.864479 0 0 0 0 0 0 0 0 0 0 0 0 0 0 0 0 0 0 0 0 0 0 0 0 0 0 0 0 0 0 0 0 0 0 0 0 0 0 0 0 0 0
0.0867162 1.19341e-05 4.69435e-06 7.23975e-06 0.606644 0.867458 0 0 0 0 0 0 0 0 0 0 0 0 0 0 0 0 0 0 0 0 0 0 0 0 0 0 0 0 0 0 0 0 0 0 0 0 0 0 0 0 0 0
0.0911674 1.19392e-05 4.65345e-06 7.28571e-06 0.610237 0.860954 0 0 0 0 0 0 0 0 0 0 0 0 0 0 0 0 0 0 0 0 0 0 0 0 0 0 0 0 0 0 0 0 0 0 0 0 0 0 0 0 0 0
0.095847 1.19446e-05 4.64914e-06 7.29543e-06 0.610774 0.857665 0 0 0 0 0 0 0 0 0 0 0 0 0 0 0 0 0 0 0 0 0 0 0 0 0 0 0 0 0 0 0 0 0 0 0 0 0 0 0 0 0 0
0.100767 1.19496e-05 4.66457e-06 7.28507e-06 0.609648 0.857198 0 0 0 0 0 0 0 0 0 0 0 0 0 0 0 0 0 0 0 0 0 0 0 0 0 0 0 0 0 0 0 0 0 0 0 0 0 0 0 0 0 0
0.105939 1.19542e-05 4.7131e-06 7.24111e-06 0.605737 0.861114 0 0 0 0 0 0 0 0 0 0 0 0 0 0 0 0 0 0 0 0 0 0 0 0 0 0 0 0 0 0 0 0 0 0 0 0 0 0 0 0 0 0
0.111377 1.19585e-05 4.76289e-06 7.19559e-06 0.601715 0.86618 0 0 0 0 0 0 0 0 0 0 0 0 0 0 0 0 0 0 0 0 0 0 0 0 0 0 0 0 0 0 0 0 0 0 0 0 0 0 0 0 0 0
0.117094 1.1963e-05 4.79584e-06 7.16718e-06 0.599111 0.869357 0 0 0 0 0 0 0 0 0 0 0 0 0 0 0 0 0 0 0 0 0 0 0 0 0 0 0 0 0 0 0 0 0 0 0 0 0 0 0 0 0 0
0.123105 1.19678e-05 4.81875e-06 7.14901e-06 0.597356 0.87136 0 0 0 0 0 0 0 0 0 0 0 0 0 0 0 0 0 0 0 0 0 0 0 0 0 0 0 0 0 0 0 0 0 0 0 0 0 0 0 0 0 0
0.129424 1.19727e-05 4.83339e-06 7.13927e-06 0.596297 0.872335 0 0 0 0 0 0 0 0 0 0 0 0 0 0 0 0 0 0 0 0 0 0 0 0 0 0 0 0 0 0 0 0 0 0 0 0 0 0 0 0 0 0
0.136067 1.19778e-05 4.8389e-06 7.13893e-06 0.596012 0.872094 0 0 0 0 0 0 0 0 0 0 0 0 0 0 0 0 0 0 0 0 0 0 0 0 0 0 0 0 0 0 0 0 0 0 0 0 0 0 0 0 0 0
0.143051 1.19831e-05 4.82996e-06 7.15316e-06 0.596936 0.869767 0 0 0 0 0 0 0 0 0 0 0 0 0 0 0 0 0 0 0 0 0 0 0 0 0 0 0 0 0 0 0 0 0 0 0 0 0 0 0 0 0 0
0.150394 1.19877e-05 4.8481e-06 7.1396e-06 0.595577 0.870996 0 0 0 0 0 0 0 0 0 0 0 0 0 0 0 0 0 0 0 0 0 0 0 0 0 0 0 0 0 0 0 0 0 0 0 0 0 0 0 0 0 0
0.158114 1.1992e-05 4.90069e-06 7.09135e-06 0.591338 0.877442 0 0 0 0 0 0 0 0 0 0 0 0 0 0 0 0 0 0 0 0 0 0 0 0 0 0 0 0 0 0 0 0 0 0 0 0 0 0 0 0 0 0
0.16623 1.19969e-05 4.96038e-06 7.03655e-06 0.58653 0.885276 0 0 0 0 0 0 0 0 0 0 0 0 0 0 0 0 0 0 0 0 0 0 0 0 0 0 0 0 0 0 0 0 0 0 0 0 0 0 0 0 0 0
0.174762 1.20025e-05 5.01372e-06 6.98875e-06 0.582276 0.892386 0 0 0 0 0 0 0 0 0 0 0 0 0 0 0 0 0 0 0 0 0 0 0 0 0 0 0 0 0 0 0 0 0 0 0 0 0 0 0 0 0 0
0.183733 1.20084e-05 5.06144e-06 6.94697e-06 0.578509 0.898746 0 0 0 0 0 0 0 0 0 0 0 0 0 0 0 0 0 0 0 0 0 0 0 0 0 0 0 0 0 0 0 0 0 0 0 0 0 0 0 0 0 0
0.193164 1.20147e-05 5.1024e-06 6.91233e-06 0.575321 0.904142 0 0 0 0 0 0 0 0 0 0 0 0 0 0 0 0 0 0 0 0 0 0 0 0 0 0 0 0 0 0 0 0 0 0 0 0 0 0 0 0 0 0
0.203079 1.20214e-05 5.13785e-06 6.88355e-06 0.572608 0.90873 0 0 0 0 0 0 0 0 0 0 0 0 0 0 0 0 0 0 0 0 0 0 0 0 0 0 0 0 0 0 0 0 0 0 0 0 0 0 0 0 0 0
0.213503 1.20283e-05 5.16964e-06 6.85867e-06 0.57021 0.912763 0 0 0 0 0 0 0 0 0 0 0 0 0 0 0 0 0 0 0 0 0 0 0 0 0 0 0 0 0 0 0 0 0 0 0 0 0 0 0 0 0 0
0.224463 1.20356e-05 5.19684e-06 6.83871e-06 0.568209 0.916104 0 0 0 0 0 0 0 0 0 0 0 0 0 0 0 0 0 0 0 0 0 0 0 0 0 0 0 0 0 0 0 0 0 0 0 0 0 0 0 0 0 0
0.235984 1.2043e-05 5.21909e-06 6.82389e-06 0.566628 0.918702 0 0 0 0 0 0 0 0 0 0 0 0 0 0 0 0 0 0 0 0 0 0 0 0 0 0 0 0 0 0 0 0 0 0 0 0 0 0 0 0 0 0
0.248097 1.20507e-05 5.23706e-06 6.81365e-06 0.565415 0.920656 0 0 0 0 0 0 0 0 0 0 0 0 0 0 0 0 0 0 0 0 0 0 0 0 0 0 0 0 0 0 0 0 0 0 0 0 0 0 0 0 0 0
0.260832 1.20586e-05 5.2525e-06 6.80611e-06 0.564419 0.922219 0 0 0 0 0 0 0 0 0 0 0 0 0 0 0 0 0 0 0 0 0 0 0 0 0 0 0 0 0 0 0 0 0 0 0 0 0 0 0 0 0 0
0.274221 1.20669e-05 5.26638e-06 6.80049e-06 0.563567 0.923526 0 0 0 0 0 0 0 0 0 0 0 0 0 0 0 0 0 0 0 0 0 0 0 0 0 0 0 0 0 0 0 0 0 0 0 0 0 0 0 0 0 0
0.288297 1.20753e-05 5.27893e-06 6.79642e-06 0.562834 0.92461 0 0 0 0 0 0 0 0 0 0 0 0 0 0 0 0 0 0 0 0 0 0 0 0 0 0 0 0 0 0 0 0 0 0 0 0 0 0 0 0 0 0
0.303095 1.20841e-05 5.29042e-06 6.7937e-06 0.562201 0.925512 0 0 0 0 0 0 0 0 0 0 0 0 0 0 0 0 0 0 0 0 0 0 0 0 0 0 0 0 0 0 0 0 0 0 0 0 0 0 0 0 0 0
0.318653 1.20932e-05 5.30127e-06 6.79194e-06 0.561632 0.926288 0 0 0 0 0 0 0 0 0 0 0 0 0 0 0 0 0 0 0 0 0 0 0 0 0 0 0 0 0 0 0 0 0 0 0 0 0 0 0 0 0 0
0.335009 1.21026e-05 5.31152e-06 6.79106e-06 0.561125 0.926944 0 0 0 0 0 0 0 0 0 0 0 0 0 0 0 0 0 0 0 0 0 0 0 0 0 0 0 0 0 0 0 0 0 0 0 0 0 0 0 0 0 0
0.352205 1.21122e-05 5.32145e-06 6.79078e-06 0.560655 0.927517 0 0 0 0 0 0 0 0 0 0 0 0 0 0 0 0 0 0 0 0 0 0 0 0 0 0 0 0 0 0 0 0 0 0 0 0 0 0 0 0 0 0
0.370284 1.21222e-05 5.33113e-06 6.79112e-06 0.560219 0.928016 0 0 0 0 0 0 0 0 0 0 0 0 0 0 0 0 0 0 0 0 0 0 0 0 0 0 0 0 0 0 0 0 0 0 0 0 0 0 0 0 0 0
0.389291 1.21326e-05 5.34044e-06 6.79212e-06 0.559826 0.928423 0 0 0 0 0 0 0 0 0 0 0 0 0 0 0 0 0 0 0 0 0 0 0 0 0 0 0 0 0 0 0 0 0 0 0 0 0 0 0 0 0 0
0.409273 1.21433e-05 5.34957e-06 6.79371e-06 0.559462 0.928764 0 0 0 0 0 0 0 0 0 0 0 0 0 0 0 0 0 0 0 0 0 0 0 0 0 0 0 0 0 0 0 0 0 0 0 0 0 0 0 0 0 0
0.430281 1.21543e-05 5.35884e-06 6.79547e-06 0.559099 0.929083 0 0 0 0 0 0 0 0 0 0 0 0 0 0 0 0 0 0 0 0 0 0 0 0 0 0 0 0 0 0 0 0 0 0 0 0 0 0 0 0 0 0
0.452368 1.21657e-05 5.36783e-06 6.79788e-06 0.558773 0.929318 0 0 0 0 0 0 0 0 0 0 0 0 0 0 0 0 0 0 0 0 0 0 0 0 0 0 0 0 0 0 0 0 0 0 0 0 0 0 0 0 0 0
0.475588 1.21775e-05 5.37696e-06 6.80052e-06 0.558451 0.929526 0 0 0 0 0 0 0 0 0 0 0 0 0 0 0 0 0 0 0 0 0 0 0 0 0 0 0 0 0 0 0 0 0 0 0 0 0 0 0 0 0 0
0.5 1.21897e-05 5.3862e-06 6.80348e-06 0.558134 0.929704 0 0 0 0 0 0 0 0 0 0 0 0 0 0 0 0 0 0 0 0 0 0 0 0 0 0 0 0 0 0 0 0 0 0 0 0 0 0 0 0 0 0
0.525665 1.22023e-05 5.39564e-06 6.80662e-06 0.557816 0.929858 0 0 0 0 0 0 0 0 0 0 0 0 0 0 0 0 0 0 0 0 0 0 0 0 0 0 0 0 0 0 0 0 0 0 0 0 0 0 0 0 0 0
0.552648 1.22153e-05 5.40543e-06 6.80985e-06 0.557486 0.930008 0 0 0 0 0 0 0 0 0 0 0 0 0 0 0 0 0 0 0 0 0 0 0 0 0 0 0 0 0 0 0 0 0 0 0 0 0 0 0 0 0 0
0.581015 1.22287e-05 5.41495e-06 6.81375e-06 0.557193 0.93007 0 0 0 0 0 0 0 0 0 0 0 0 0 0 0 0 0 0 0 0 0 0 0 0 0 0 0 0 0 0 0 0 0 0 0 0 0 0 0 0 0 0
0.610839 1.22426e-05 5.42488e-06 6.81772e-06 0.556885 0.930133 0 0 0 0 0 0 0 0 0 0 0 0 0 0 0 0 0 0 0 0 0 0 0 0 0 0 0 0 0 0 0 0 0 0 0 0 0 0 0 0 0 0
0.642193 1.22569e-05 5.43525e-06 6.82168e-06 0.556557 0.930196 0 0 0 0 0 0 0 0 0 0 0 0 0 0 0 0 0 0 0 0 0 0 0 0 0 0 0 0 0 0 0 0 0 0 0 0 0 0 0 0 0 0
0.675157 1.22718e-05 5.44585e-06 6.82594e-06 0.55623 0.930233 0 0 0 0 0 0 0 0 0 0 0 0 0 0 0 0 0 0 0 0 0 0 0 0 0 0 0 0 0 0 0 0 0 0 0 0 0 0 0 0 0 0
0.709813 1.22871e-05 5.45673e-06 6.83037e-06 0.555898 0.930245 0 0 0 0 0 0 0 0 0 0 0 0 0 0 0 0 0 0 0 0 0 0 0 0 0 0 0 0 0 0 0 0 0 0 0 0 0 0 0 0 0 0
0.746248 1.23028e-05 5.46803e-06 6.83477e-06 0.555546 0.93025 0 0 0 0 0 0 0 0 0 0 0 0 0 0 0 0 0 0 0 0 0 0 0 0 0 0 0 0 0 0 0 0 0 0 0 0 0 0 0 0 0 0
0.784553 1.23193e-05 5.47981e-06 6.83944e-06 0.555183 0.930254 0 0 0 0 0 0 0 0 0 0 0 0 0 0 0 0 0 0 0 0 0 0 0 0 0 0 0 0 0 0 0 0 0 0 0 0 0 0 0 0 0 0
0.824824 1.23366e-05 5.49188e-06 6.84469e-06 0.554829 0.930233 0 0 0 0 0 0 0 0 0 0 0 0 0 0 0 0 0 0 0 0 0 0 0 0 0 0 0 0 0 0 0 0 0 0 0 0 0 0 0 0 0 0
0.867162 1.2354e-05 5.50433e-06 6.84971e-06 0.554451 0.930187 0 0 0 0 0 0 0 0 0 0 0 0 0 0 0 0 0 0 0 0 0 0 0 0 0 0 0 0 0 0 0 0 0 0 0 0 0 0 0 0 0 0
0.911674 1.23721e-05 5.51725e-06 6.85489e-06 0.554058 0.930134 0 0 0 0 0 0 0 0 0 0 0 0 0 0 0 0 0 0 0 0 0 0 0 0 0 0 0 0 0 0 0 0 0 0 0 0 0 0 0 0 0 0
0.95847 1.23912e-05 5.53063e-06 6.86052e-06 0.553663 0.930067 0 0 0 0 0 0 0 0 0 0 0 0 0 0 0 0 0 0 0 0 0 0 0 0 0 0 0 0 0 0 0 0 0 0 0 0 0 0 0 0 0 0
1.00767 1.24109e-05 5.54452e-06 6.86634e-06 0.553252 0.929995 0 0 0 0 0 0 0 0 0 0 0 0 0 0 0 0 0 0 0 0 0 0 0 0 0 0 0 0 0 0 0 0 0 0 0 0 0 0 0 0 0 0
1.05939 1.24312e-05 5.55896e-06 6.87221e-06 0.552821 0.929917 0 0 0 0 0 0 0 0 0 0 0 0 0 0 0 0 0 0 0 0 0 0 0 0 0 0 0 0 0 0 0 0 0 0 0 0 0 0 0 0 0 0
1.11377 1.24515e-05 5.57393e-06 6.87756e-06 0.552348 0.92982 0 0 0 0 0 0 0 0 0 0 0 0 0 0 0 0 0 0 0 0 0 0 0 0 0 0 0 0 0 0 0 0 0 0 0 0 0 0 0 0 0 0
1.17094 1.24698e-05 5.58946e-06 6.88034e-06 0.551761 0.929692 0 0 0 0 0 0 0 0 0 0 0 0 0 0 0 0 0 0 0 0 0 0 0 0 0 0 0 0 0 0 0 0 0 0 0 0 0 0 0 0 0 0
1.23105 1.24892e-05 5.6055e-06 6.88369e-06 0.551172 0.929555 0 0 0 0 0 0 0 0 0 0 0 0 0 0 0 0 0 0 0 0 0 0 0 0 0 0 0 0 0 0 0 0 0 0 0 0 0 0 0 0 0 0
1.29424 1.2517e-05 5.62214e-06 6.89485e-06 0.550839 0.929489 0 0 0 0 0 0 0 0 0 0 0 0 0 0 0 0 0 0 0 0 0 0 0 0 0 0 0 0 0 0 0 0 0 0 0 0 0 0 0 0 0 0
1.36067 1.25458e-05 5.63899e-06 6.90682e-06 0.550528 0.929374 0 0 0 0 0 0 0 0 0 0 0 0 0 0 0 0 0 0 0 0 0 0 0 0 0 0 0 0 0 0 0 0 0 0 0 0 0 0 0 0 0 0
1.43051 1.25565e-05 5.65658e-06 6.89996e-06 0.549511 0.929077 0 0 0 0 0 0 0 0 0 0 0 0 0 0 0 0 0 0 0 0 0 0 0 0 0 0 0 0 0 0 0 0 0 0 0 0 0 0 0 0 0 0
1.50394 1.25886e-05 5.67436e-06 6.91421e-06 0.549245 0.928945 0 0 0 0 0 0 0 0 0 0 0 0 0 0 0 0 0 0 0 0 0 0 0 0 0 0 0 0 0 0 0 0 0 0 0 0 0 0 0 0 0 0
1.58114 1.26234e-05 5.69259e-06 6.93084e-06 0.549046 0.928818 0 0 0 0 0 0 0 0 0 0 0 0 0 0 0 0 0 0 0 0 0 0 0 0 0 0 0 0 0 0 0 0 0 0 0 0 0 0 0 0 0 0
1.6623 1.26253e-05 5.71123e-06 6.91403e-06 0.547635 0.928313 0 0 0 0 0 0 0 0 0 0 0 0 0 0 0 0 0 0 0 0 0 0 0 0 0 0 0 0 0 0 0 0 0 0 0 0 0 0 0 0 0 0
1.74763 1.269e-05 5.73007e-06 6.95992e-06 0.548458 0.928412 0 0 0 0 0 0 0 0 0 0 0 0 0 0 0 0 0 0 0 0 0 0 0 0 0 0 0 0 0 0 0 0 0 0 0 0 0 0 0 0 0 0
1.83733 1.26754e-05 5.74983e-06 6.9256e-06 0.54638 0.927676 0 0 0 0 0 0 0 0 0 0 0 0 0 0 0 0 0 0 0 0 0 0 0 0 0 0 0 0 0 0 0 0 0 0 0 0 0 0 0 0 0 0
1.93164 1.27548e-05 5.76915e-06 6.98565e-06 0.547688 0.927832 0 0 0 0 0 0 0 0 0 0 0 0 0 0 0 0 0 0 0 0 0 0 0 0 0 0 0 0 0 0 0 0 0 0 0 0 0 0 0 0 0 0
2.03079 1.27233e-05 5.7893e-06 6.93396e-06 0.544983 0.926775 0 0 0 0 0 0 0 0 0 0 0 0 0 0 0 0 0 0 0 0 0 0 0 0 0 0 0 0 0 0 0 0 0 0 0 0 0 0 0 0 0 0
2.13503 1.28306e-05 5.80954e-06 7.02109e-06 0.547213 0.927165 0 0 0 0 0 0 0 0 0 0 0 0 0 0 0 0 0 0 0 0 0 0 0 0 0 0 0 0 0 0 0 0 0 0 0 0 0 0 0 0 0 0
2.24463 1.278e-05 5.83023e-06 6.94974e-06 0.5438 0.925828 0 0 0 0 0 0 0 0 0 0 0 0 0 0 0 0 0 0 0 0 0 0 0 0 0 0 0 0 0 0 0 0 0 0 0 0 0 0 0 0 0 0
2.35984 1.28909e-05 5.85076e-06 7.04016e-06 0.546133 0.926042 0 0 0 0 0 0 0 0 0 0 0 0 0 0 0 0 0 0 0 0 0 0 0 0 0 0 0 0 0 0 0 0 0 0 0 0 0 0 0 0 0 0
2.48097 1.28887e-05 5.87178e-06 7.01694e-06 0.544425 0.925106 0 0 0 0 0 0 0 0 0 0 0 0 0 0 0 0 0 0 0 0 0 0 0 0 0 0 0 0 0 0 0 0 0 0 0 0 0 0 0 0 0 0
2.60832 1.28825e-05 5.89198e-06 6.99052e-06 0.542637 0.924119 0 0 0 0 0 0 0 0 0 0 0 0 0 0 0 0 0 0 0 0 0 0 0 0 0 0 0 0 0 0 0 0 0 0 0 0 0 0 0 0 0 0
2.74221 1.30488e-05 5.91492e-06 7.13393e-06 0.546709 0.924875 0 0 0 0 0 0 0 0 0 0 0 0 0 0 0 0 0 0 0 0 0 0 0 0 0 0 0 0 0 0 0 0 0 0 0 0 0 0 0 0 0 0
2.88297 1.29433e-05 5.93644e-06 7.00682e-06 0.541349 0.922549 0 0 0 0 0 0 0 0 0 0 0 0 0 0 0 0 0 0 0 0 0 0 0 0 0 0 0 0 0 0 0 0 0 0 0 0 0 0 0 0 0 0
3.03095 1.30093e-05 5.95968e-06 7.04962e-06 0.541891 0.92186 0 0 0 0 0 0 0 0 0 0 0 0 0 0 0 0 0 0 0 0 0 0 0 0 0 0 0 0 0 0 0 0 0 0 0 0 0 0 0 0 0 0
3.18653 1.32081e-05 5.98147e-06 7.22663e-06 0.547136 0.922936 0 0 0 0 0 0 0 0 0 0 0 0 0 0 0 0 0 0 0 0 0 0 0 0 0 0 0 0 0 0 0 0 0 0 0 0 0 0 0 0 0 0
3.35009 1.30695e-05 6.00568e-06 7.06385e-06 0.540482 0.920339 0 0 0 0 0 0 0 0 0 0 0 0 0 0 0 0 0 0 0 0 0 0 0 0 0 0 0 0 0 0 0 0 0 0 0 0 0 0 0 0 0 0
3.52205 1.30545e-05 6.02869e-06 7.02583e-06 0.538192 0.918997 0 0 0 0 0 0 0 0 0 0 0 0 0 0 0 0 0 0 0 0 0 0 0 0 0 0 0 0 0 0 0 0 0 0 0 0 0 0 0 0 0 0
3.70284 1.33622e-05 6.05369e-06 7.30848e-06 0.546953 0.920532 0 0 0 0 0 0 0 0 0 0 0 0 0 0 0 0 0 0 0 0 0 0 0 0 0 0 0 0 0 0 0 0 0 0 0 0 0 0 0 0 0 0
3.89291 1.33628e-05 6.07723e-06 7.2856e-06 0.545214 0.918385 0 0 0 0 0 0 0 0 0 0 0 0 0 0 0 0 0 0 0 0 0 0 0 0 0 0 0 0 0 0 0 0 0 0 0 0 0 0 0 0 0 0
4.09273 1.31081e-05 6.0898e-06 7.01827e-06 0.535416 0.913311 0 0 0 0 0 0 0 0 0 0 0 0 0 0 0 0 0 0 0 0 0 0 0 0 0 0 0 0 0 0 0 0 0 0 0 0 0 0 0 0 0 0
4.30281 1.32854e-05 6.11935e-06 7.16604e-06 0.539393 0.914333 0 0 0 0 0 0 0 0 0 0 0 0 0 0 0 0 0 0 0 0 0 0 0 0 0 0 0 0 0 0 0 0 0 0 0 0 0 0 0 0 0 0
4.52368 1.36926e-05 6.13341e-06 7.5592e-06 0.552064 0.917878 0 0 0 0 0 0 0 0 0 0 0 0 0 0 0 0 0 0 0 0 0 0 0 0 0 0 0 0 0 0 0 0 0 0 0 0 0 0 0 0 0 0
4.75588 1.36225e-05 6.17285e-06 7.44969e-06 0.546865 0.916033 0 0 0 0 0 0 0 0 0 0 0 0 0 0 0 0 0 0 0 0 0 0 0 0 0 0 0 0 0 0 0 0 0 0 0 0 0 0 0 0 0 0
5 1.3217e-05 6.20549e-06 7.01153e-06 0.530492 0.908862 0 0 0 0 0 0 0 0 0 0 0 0 0 0 0 0 0 0 0 0 0 0 0 0 0 0 0 0 0 0 0 0 0 0 0 0 0 0 0 0 0 0
5.25665 1.33725e-05 6.22802e-06 7.14444e-06 0.534265 0.907618 0 0 0 0 0 0 0 0 0 0 0 0 0 0 0 0 0 0 0 0 0 0 0 0 0 0 0 0 0 0 0 0 0 0 0 0 0 0 0 0 0 0
5.52648 1.40083e-05 6.2755e-06 7.73285e-06 0.552017 0.912693 0 0 0 0 0 0 0 0 0 0 0 0 0 0 0 0 0 0 0 0 0 0 0 0 0 0 0 0 0 0 0 0 0 0 0 0 0 0 0 0 0 0
5.81015 1.40982e-05 6.33017e-06 7.76803e-06 0.550994 0.913506 0 0 0 0 0 0 0 0 0 0 0 0 0 0 0 0 0 0 0 0 0 0 0 0 0 0 0 0 0 0 0 0 0 0 0 0 0 0 0 0 0 0
6.10839 1.34966e-05 6.39276e-06 7.10382e-06 0.526342 0.909106 0 0 0 0 0 0 0 0 0 0 0 0 0 0 0 0 0 0 0 0 0 0 0 0 0 0 0 0 0 0 0 0 0 0 0 0 0 0 0 0 0 0
6.42193 1.33882e-05 6.46549e-06 6.92274e-06 0.517076 0.912253 0 0 0 0 0 0 0 0 0 0 0 0 0 0 0 0 0 0 0 0 0 0 0 0 0 0 0 0 0 0 0 0 0 0 0 0 0 0 0 0 0 0
6.75157 1.43162e-05 6.56771e-06 7.74846e-06 0.541238 0.924696 0 0 0 0 0 0 0 0 0 0 0 0 0 0 0 0 0 0 0 0 0 0 0 0 0 0 0 0 0 0 0 0 0 0 0 0 0 0 0 0 0 0
7.09813 1.45432e-05 6.67849e-06 7.8647e-06 0.540782 0.921414 0 0 0 0 0 0 0 0 0 0 0 0 0 0 0 0 0 0 0 0 0 0 0 0 0 0 0 0 0 0 0 0 0 0 0 0 0 0 0 0 0 0
7.46248 1.33956e-05 6.89696e-06 6.49868e-06 0.485134 0.907359 0 0 0 0 0 0 0 0 0 0 0 0 0 0 0 0 0 0 0 0 0 0 0 0 0 0 0 0 0 0 0 0 0 0 0 0 0 0 0 0 0 0
7.84553 1.40405e-05 6.97488e-06 7.06565e-06 0.503233 0.95378 0 0 0 0 0 0 0 0 0 0 0 0 0 0 0 0 0 0 0 0 0 0 0 0 0 0 0 0 0 0 0 0 0 0 0 0 0 0 0 0 0 0
8.24824 1.27325e-05 6.73335e-06 5.99919e-06 0.47117 0.947002 0 0 0 0 0 0 0 0 0 0 0 0 0 0 0 0 0 0 0 0 0 0 0 0 0 0 0 0 0 0 0 0 0 0 0 0 0 0 0 0 0 0
8.67162 1.30042e-05 6.5878e-06 6.41641e-06 0.49341 0.921362 0 0 0 0 0 0 0 0 0 0 0 0 0 0 0 0 0 0 0 0 0 0 0 0 0 0 0 0 0 0 0 0 0 0 0 0 0 0 0 0 0 0
9.11674 1.35579e-05 6.42835e-06 7.12955e-06 0.52586 0.88148 0 0 0 0 0 0 0 0 0 0 0 0 0 0 0 0 0 0 0 0 0 0 0 0 0 0 0 0 0 0 0 0 0 0 0 0 0 0 0 0 0 0
9.5847 1.41299e-05 6.46357e-06 7.66633e-06 0.542561 0.850083 0 0 0 0 0 0 0 0 0 0 0 0 0 0 0 0 0 0 0 0 0 0 0 0 0 0 0 0 0 0 0 0 0 0 0 0 0 0 0 0 0 0
10.0767 1.4417e-05 6.55095e-06 7.86602e-06 0.545609 0.836374 0 0 0 0 0 0 0 0 0 0 0 0 0 0 0 0 0 0 0 0 0 0 0 0 0 0 0 0 0 0 0 0 0 0 0 0 0 0 0 0 0 0
10.5939 1.46305e-05 6.59683e-06 8.03366e-06 0.549104 0.822997 0 0 0 0 0 0 0 0 0 0 0 0 0 0 0 0 0 0 0 0 0 0 0 0 0 0 0 0 0 0 0 0 0 0 0 0 0 0 0 0 0 0
11.1377 1.47099e-05 6.69035e-06 8.01953e-06 0.54518 0.819999 0 0 0 0 0 0 0 0 0 0 0 0 0 0 0 0 0 0 0 0 0 0 0 0 0 0 0 0 0 0 0 0 0 0 1.4013e-45 0 2.8026e-45 0 5.60519e-45 0 1.12104e-44 0
11.7094 1.47673e-05 6.78218e-06 7.98511e-06 0.540729 0.81849 0 0 0 0 0 0 0 0 0 0 0 0 0 0 0 0 0 0 0 0 0 0 0 0 1.4013e-45 0 4.2039e-45 0 1.4013e-44 0 3.78351e-44 0 9.3887e-44 0 2.22806e-43 0 5.05869e-43 0 1.0762e-42 0 2.20284e-42 0
12.3105 1.48111e-05 6.89896e-06 7.91209e-06 0.534202 0.819836 0 0 0 0 0 0 0 0 0 0 0 0 0 0 0 0 1.4013e-45 0 4.2039e-45 0 2.10195e-44 0 8.26766e-44 0 2.87266e-43 0 8.9543e-43 0 2.50412e-42 0 6.50763e-42 0 1.57632e-41 0 3.57051e-41 0 7.78239e-41 0 1.59357e-40 0 3.15079e-40 0
12.9424 1.48616e-05 7.05794e-06 7.80363e-06 0.525088 0.824952 0 0 0 0 0 0 0 0 0 0 0 0 2.8026e-45 0 2.10195e-44 0 1.56945e-43 0 8.33773e-43 0 3.66159e-42 0 1.3814e-41 0 4.52241e-41 0 1.33066e-40 0 3.53951e-40 0 8.77831e-40 0 2.03651e-39 0 4.43252e-39 0 9.30062e-39 0 1.83895e-38 0 3.51694e-38 0
13.6067 1.4934e-05 7.27467e-06 7.65936e-06 0.51288 0.834469 0 0 0 0 0 0 0 0 1.4013e-45 0 2.94273e-44 0 4.25995e-43 0 3.84236e-42 0 2.52164e-41 0 1.23868e-40 0 5.06106e-40 0 1.78975e-39 0 5.52961e-39 0 1.54349e-38 0 3.91414e-38 0 9.28633e-38 0 2.06764e-37 0 4.3326e-37 0 8.7679e-37 0 1.67687e-36 0 3.10703e-36 0
14.3051 1.50279e-05 7.53163e-06 7.4963e-06 0.498824 0.847831 0 0 0 0 0 0 2.8026e-45 0 2.03188e-43 0 5.12875e-42 0 6.49726e-41 0 5.26661e-40 0 3.1525e-39 0 1.43281e-38 0 5.46546e-38 0 1.81717e-37 0 5.31347e-37 0 1.41066e-36 0 3.4184e-36 0 7.77519e-36 0 1.66483e-35 0 3.36479e-35 0 6.57896e-35 0 1.21902e-34 0 2.1917e-34 0
15.0394 1.50526e-05 7.68573e-06 7.36686e-06 0.489408 0.85174 0 0 0 0 1.4013e-45 0 4.87652e-43 0 3.13428e-41 0 6.75901e-40 0 7.56469e-39 0 5.53631e-38 0 3.03669e-37 0 1.28183e-36 0 4.58017e-36 0 1.43607e-35 0 3.98481e-35 0 1.00867e-34 0 2.34089e-34 0 5.11498e-34 0 1.05526e-33 0 2.06075e-33 0 3.89949e-33 0 7.01108e-33 0 1.22494e-32 0
15.8114 1.50805e-05 7.73838e-06 7.3421e-06 0.486861 0.847378 0 0 0 0 1.84971e-43 0 7.03662e-41 0 3.68941e-39 0 6.84819e-38 0 6.81195e-37 0 4.52372e-36 0 2.28343e-35 0 8.98422e-35 0 3.01668e-34 0 8.94523e-34 0 2.36148e-33 0 5.71256e-33 0 1.27237e-32 0 2.6761e-32 0 5.32918e-32 0 1.00725e-31 0 1.84755e-31 0 3.228e-31 0 5.48823e-31 0
16.623 1.51421e-05 7.72919e-06 7.4129e-06 0.489556 0.83624 0 0 0 0 2.74402e-41 0 7.80517e-39 0 3.37302e-37 0 5.42874e-36 0 4.82706e-35 0 2.92256e-34 0 1.3631e-33 0 5.0162e-33 0 1.5876e-32 0 4.46431e-32 0 1.12399e-31 0 2.60422e-31 0 5.57802e-31 0 1.13137e-30 0 2.1785e-30 0 3.99149e-30 0 7.10772e-30 0 1.20847e-29 0 2.00208e-29 0
17.4762 1.52852e-05 7.7009e-06 7.58433e-06 0.496187 0.819518 0 0 1.14906e-43 0 3.14027e-39 0 6.7787e-37 0 2.43739e-35 0 3.42523e-34 0 2.73741e-33 0 1.51788e-32 0 6.56671e-32 0 2.26761e-31 0 6.78429e-31 0 1.81383e-30 0 4.36541e-30 0 9.70789e-30 0 2.00343e-29 0 3.92559e-29 0 7.3209e-29 0 1.30227e-28 0 2.25456e-28 0 3.7352e-28 0 6.03747e-28 0
18.3733 1.55044e-05 7.67634e-06 7.82804e-06 0.504892 0.80008 0 0 1.70678e-41 0 2.81753e-37 0 4.67825e-35 0 1.41222e-33 0 1.74433e-32 0 1.25953e-31 0 6.42368e-31 0 2.58725e-30 0 8.4097e-30 0 2.38495e-29 0 6.0774e-29 0 1.40128e-28 0 2.99693e-28 0 5.96987e-28 0 1.13196e-27 0 2.04775e-27 0 3.54161e-27 0 5.9693e-27 0 9.64874e-27 0 1.52345e-26 0
