# 1.4962e-05 1 105 : grain size, compostion index, size index
# Heating and cooling timescale: 0.066173 1.18497e+06
# Ratio of heating to cooling to determine stochastic cutoff: 100
# Equilibrium emission is recorded even for those grains in the stochastic regime.
# Emission spectrum was computed for: 
# Type: IRSF
# Scales: 0.25 0.5 1 1.5 2 2.5 3 3.5 4 4.5 5 5.5 6 6.5 7 7.5 8 8.5 9 9.5 10
# StochasticallyHeated: 0 0 0 0 0 0 0 0 0 0 0 0 0 0 0 0 0 0 0 0 0
# Temperature: -1
# Wavelength  CExt  CAbs  CSca  Albedo G EqEm1 StEm1 EqEm2 StEm2 EqEm3 StEm3 EqEm4 StEm4 EqEm5 StEm5 EqEm6 StEm6 EqEm7 StEm7 EqEm8 StEm8 EqEm9 StEm9 EqEm10 StEm10 EqEm11 StEm11 EqEm12 StEm12 EqEm13 StEm13 EqEm14 StEm14 EqEm15 StEm15 EqEm16 StEm16 EqEm17 StEm17 EqEm18 StEm18 EqEm19 StEm19 EqEm20 StEm20 EqEm21 StEm21
0.05 4.2391e-10 2.02304e-10 2.21606e-10 0.522766 0.210229 0 0 0 0 0 0 0 0 0 0 0 0 0 0 0 0 0 0 0 0 0 0 0 0 0 0 0 0 0 0 0 0 0 0 0 0 0 0 0 0 0 0
0.0525665 4.68546e-10 2.23606e-10 2.4494e-10 0.522766 0.232365 0 0 0 0 0 0 0 0 0 0 0 0 0 0 0 0 0 0 0 0 0 0 0 0 0 0 0 0 0 0 0 0 0 0 0 0 0 0 0 0 0 0
0.0552647 5.17881e-10 2.4715e-10 2.70731e-10 0.522766 0.256832 0 0 0 0 0 0 0 0 0 0 0 0 0 0 0 0 0 0 0 0 0 0 0 0 0 0 0 0 0 0 0 0 0 0 0 0 0 0 0 0 0 0
0.0581015 5.72411e-10 2.73174e-10 2.99237e-10 0.522766 0.283875 0 0 0 0 0 0 0 0 0 0 0 0 0 0 0 0 0 0 0 0 0 0 0 0 0 0 0 0 0 0 0 0 0 0 0 0 0 0 0 0 0 0
0.0610839 6.32684e-10 3.01938e-10 3.30746e-10 0.522766 0.313765 0 0 0 0 0 0 0 0 0 0 0 0 0 0 0 0 0 0 0 0 0 0 0 0 0 0 0 0 0 0 0 0 0 0 0 0 0 0 0 0 0 0
0.0642193 6.99302e-10 3.33731e-10 3.65571e-10 0.522766 0.346803 0 0 0 0 0 0 0 0 0 0 0 0 0 0 0 0 0 0 0 0 0 0 0 0 0 0 0 0 0 0 0 0 0 0 0 0 0 0 0 0 0 0
0.0675157 7.72935e-10 3.68871e-10 4.04064e-10 0.522766 0.38332 0 0 0 0 0 0 0 0 0 0 0 0 0 0 0 0 0 0 0 0 0 0 0 0 0 0 0 0 0 0 0 0 0 0 0 0 0 0 0 0 0 0
0.0709813 8.54321e-10 4.07711e-10 4.4661e-10 0.522766 0.423682 0 0 0 0 0 0 0 0 0 0 0 0 0 0 0 0 0 0 0 0 0 0 0 0 0 0 0 0 0 0 0 0 0 0 0 0 0 0 0 0 0 0
0.0746248 9.44277e-10 4.50641e-10 4.93636e-10 0.522766 0.468293 0 0 0 0 0 0 0 0 0 0 0 0 0 0 0 0 0 0 0 0 0 0 0 0 0 0 0 0 0 0 0 0 0 0 0 0 0 0 0 0 0 0
0.0784553 1.04371e-09 4.98091e-10 5.45614e-10 0.522766 0.517602 0 0 0 0 0 0 0 0 0 0 0 0 0 0 0 0 0 0 0 0 0 0 0 0 0 0 0 0 0 0 0 0 0 0 0 0 0 0 0 0 0 0
0.0824824 1.1536e-09 5.50538e-10 6.03064e-10 0.522766 0.572103 0 0 0 0 0 0 0 0 0 0 0 0 0 0 0 0 0 0 0 0 0 0 0 0 0 0 0 0 0 0 0 0 0 0 0 0 0 0 0 0 0 0
0.0867162 1.27507e-09 6.08507e-10 6.66564e-10 0.522766 0.632343 0 0 0 0 0 0 0 0 0 0 0 0 0 0 0 0 0 0 0 0 0 0 0 0 0 0 0 0 0 0 0 0 0 0 0 0 0 0 0 0 0 0
0.0911674 1.40933e-09 6.7258e-10 7.3675e-10 0.522766 0.698926 0 0 0 0 0 0 0 0 0 0 0 0 0 0 0 0 0 0 0 0 0 0 0 0 0 0 0 0 0 0 0 0 0 0 0 0 0 0 0 0 0 0
0.095847 1.55773e-09 7.434e-10 8.14326e-10 0.522766 0.77252 0 0 0 0 0 0 0 0 0 0 0 0 0 0 0 0 0 0 0 0 0 0 0 0 0 0 0 0 0 0 0 0 0 0 0 0 0 0 0 0 0 0
0.100767 1.69773e-09 8.10877e-10 8.86856e-10 0.522377 0.840663 0 0 0 0 0 0 0 0 0 0 0 0 0 0 0 0 0 0 0 0 0 0 0 0 0 0 0 0 0 0 0 0 0 0 0 0 0 0 0 0 0 0
0.105939 1.71191e-09 8.21821e-10 8.90084e-10 0.519938 0.842173 0 0 0 0 0 0 0 0 0 0 0 0 0 0 0 0 0 0 0 0 0 0 0 0 0 0 0 0 0 0 0 0 0 0 0 0 0 0 0 0 0 0
0.111377 1.7259e-09 8.33174e-10 8.92725e-10 0.517252 0.844667 0 0 0 0 0 0 0 0 0 0 0 0 0 0 0 0 0 0 0 0 0 0 0 0 0 0 0 0 0 0 0 0 0 0 0 0 0 0 0 0 0 0
0.117094 1.73988e-09 8.44442e-10 8.95439e-10 0.514655 0.845455 0 0 0 0 0 0 0 0 0 0 0 0 0 0 0 0 0 0 0 0 0 0 0 0 0 0 0 0 0 0 0 0 0 0 0 0 0 0 0 0 0 0
0.123105 1.75355e-09 8.56662e-10 8.96884e-10 0.511469 0.845023 0 0 0 0 0 0 0 0 0 0 0 0 0 0 0 0 0 0 0 0 0 0 0 0 0 0 0 0 0 0 0 0 0 0 0 0 0 0 0 0 0 0
0.129424 1.76663e-09 8.69772e-10 8.96854e-10 0.507665 0.843527 0 0 0 0 0 0 0 0 0 0 0 0 0 0 0 0 0 0 0 0 0 0 0 0 0 0 0 0 0 0 0 0 0 0 0 0 0 0 0 0 0 0
0.136067 1.78066e-09 8.8223e-10 8.98428e-10 0.504548 0.840712 0 0 0 0 0 0 0 0 0 0 0 0 0 0 0 0 0 0 0 0 0 0 0 0 0 0 0 0 0 0 0 0 0 0 0 0 0 0 0 0 0 0
0.143051 1.79512e-09 8.97709e-10 8.97414e-10 0.499918 0.835736 0 0 0 0 0 0 0 0 0 0 0 0 0 0 0 0 0 0 0 0 0 0 0 0 0 0 0 0 0 0 0 0 0 0 0 0 0 0 0 0 0 0
0.150394 1.8103e-09 9.18029e-10 8.9227e-10 0.492886 0.833365 0 0 0 0 0 0 0 0 0 0 0 0 0 0 0 0 0 0 0 0 0 0 0 0 0 0 0 0 0 0 0 0 0 0 0 0 0 0 0 0 0 0
0.158114 1.83442e-09 9.409e-10 8.93523e-10 0.487087 0.833733 0 0 0 0 0 0 0 0 0 0 0 0 0 0 0 0 0 0 0 0 0 0 0 0 0 0 0 0 0 0 0 0 0 0 0 0 0 0 0 0 0 0
0.16623 1.86604e-09 9.43202e-10 9.22834e-10 0.494543 0.837678 0 0 0 0 0 0 0 0 0 0 0 0 0 0 0 0 0 0 0 0 0 0 0 0 0 0 0 0 0 0 0 0 0 0 0 0 0 0 0 0 0 0
0.174762 1.83128e-09 9.07384e-10 9.23894e-10 0.504508 0.841281 0 0 0 0 0 0 0 0 0 0 0 0 0 0 0 0 0 0 0 0 0 0 0 0 0 0 0 0 0 0 0 0 0 0 0 0 0 0 0 0 0 0
0.183733 1.74746e-09 8.22246e-10 9.2521e-10 0.529461 0.814278 0 0 0 0 0 0 0 0 0 0 0 0 0 0 0 0 0 0 0 0 0 0 0 0 0 0 0 0 0 0 0 0 0 0 0 0 0 0 0 0 0 0
0.193164 1.78638e-09 7.18522e-10 1.06786e-09 0.597778 0.688786 0 0 0 0 0 0 0 0 0 0 0 0 0 0 0 0 0 0 0 0 0 0 0 0 0 0 0 0 0 0 0 0 0 0 0 0 0 0 0 0 0 0
0.203079 1.93141e-09 6.76478e-10 1.25493e-09 0.649748 0.530194 0 0 0 0 0 0 0 0 0 0 0 0 0 0 0 0 0 0 0 0 0 0 0 0 0 0 0 0 0 0 0 0 0 0 0 0 0 0 0 0 0 0
0.213503 2.16318e-09 6.52974e-10 1.5102e-09 0.698141 0.393404 0 0 0 0 0 0 0 0 0 0 0 0 0 0 0 0 0 0 0 0 0 0 0 0 0 0 0 0 0 0 0 0 0 0 0 0 0 0 0 0 0 0
0.224463 2.36272e-09 6.25876e-10 1.73685e-09 0.735104 0.404755 0 0 0 0 0 0 0 0 0 0 0 0 0 0 0 0 0 0 0 0 0 0 0 0 0 0 0 0 0 0 0 0 0 0 0 0 0 0 0 0 0 0
0.235984 2.51836e-09 6.02718e-10 1.91564e-09 0.760671 0.491022 0 0 0 0 0 0 0 0 0 0 0 0 0 0 0 0 0 0 0 0 0 0 0 0 0 0 0 0 0 0 0 0 0 0 0 0 0 0 0 0 0 0
0.248097 2.63174e-09 5.75854e-10 2.05588e-09 0.781189 0.557533 0 0 0 0 0 0 0 0 0 0 0 0 0 0 0 0 0 0 0 0 0 0 0 0 0 0 0 0 0 0 0 0 0 0 0 0 0 0 0 0 0 0
0.260832 2.69066e-09 5.50069e-10 2.14059e-09 0.795563 0.571308 0 0 0 0 0 0 0 0 0 0 0 0 0 0 0 0 0 0 0 0 0 0 0 0 0 0 0 0 0 0 0 0 0 0 0 0 0 0 0 0 0 0
0.274221 2.73114e-09 5.39778e-10 2.19136e-09 0.802362 0.619085 0 0 0 0 0 0 0 0 0 0 0 0 0 0 0 0 0 0 0 0 0 0 0 0 0 0 0 0 0 0 0 0 0 0 0 0 0 0 0 0 0 0
0.288297 2.72705e-09 5.31733e-10 2.19532e-09 0.805015 0.660561 0 0 0 0 0 0 0 0 0 0 0 0 0 0 0 0 0 0 0 0 0 0 0 0 0 0 0 0 0 0 0 0 0 0 0 0 0 0 0 0 0 0
0.303095 2.65432e-09 5.05013e-10 2.14931e-09 0.80974 0.664316 0 0 0 0 0 0 0 0 0 0 0 0 0 0 0 0 0 0 0 0 0 0 0 0 0 0 0 0 0 0 0 0 0 0 0 0 0 0 0 0 0 0
0.318653 2.55434e-09 4.69194e-10 2.08514e-09 0.816315 0.648044 0 0 0 0 0 0 0 0 0 0 0 0 0 0 0 0 0 0 0 0 0 0 0 0 0 0 0 0 0 0 0 0 0 0 0 0 0 0 0 0 0 0
0.335009 2.47243e-09 4.45077e-10 2.02736e-09 0.819984 0.646406 0 0 0 0 0 0 0 0 0 0 0 0 0 0 0 0 0 0 0 0 0 0 0 0 0 0 0 0 0 0 0 0 0 0 0 0 0 0 0 0 0 0
0.352205 2.39273e-09 4.35262e-10 1.95747e-09 0.81809 0.66547 0 0 0 0 0 0 0 0 0 0 0 0 0 0 0 0 0 0 0 0 0 0 0 0 0 0 0 0 0 0 0 0 0 0 0 0 0 0 0 0 0 0
0.370284 2.27559e-09 4.26247e-10 1.84935e-09 0.812688 0.680067 0 0 0 0 0 0 0 0 0 0 0 0 0 0 0 0 0 0 0 0 0 0 0 0 0 0 0 0 0 0 0 0 0 0 0 0 0 0 0 0 0 0
0.389291 2.11091e-09 4.05615e-10 1.7053e-09 0.807849 0.677974 0 0 0 0 0 0 0 0 0 0 0 0 0 0 0 0 0 0 0 0 0 0 0 0 0 0 0 0 0 0 0 0 0 0 0 0 0 0 0 0 0 0
0.409273 1.93761e-09 3.75972e-10 1.56163e-09 0.80596 0.656751 0 0 0 0 0 0 0 0 0 0 0 0 0 0 0 0 0 0 0 0 0 0 0 0 0 0 0 0 0 0 0 0 0 0 0 0 0 0 0 0 0 0
0.430281 1.78945e-09 3.47876e-10 1.44157e-09 0.805596 0.622387 0 0 0 0 0 0 0 0 0 0 0 0 0 0 0 0 0 0 0 0 0 0 0 0 0 0 0 0 0 0 0 0 0 0 0 0 0 0 0 0 0 0
0.452368 1.67034e-09 3.27627e-10 1.34271e-09 0.803856 0.591225 0 0 0 0 0 0 0 0 0 0 0 0 0 0 0 0 0 0 0 0 0 0 0 0 0 0 0 0 0 0 0 0 0 0 0 0 0 0 0 0 0 0
0.475588 1.56302e-09 3.14257e-10 1.24876e-09 0.798942 0.573493 0 0 0 0 0 0 0 0 0 0 0 0 0 0 0 0 0 0 0 0 0 0 0 0 0 0 0 0 0 0 0 0 0 0 0 0 0 0 0 0 0 0
0.5 1.44958e-09 3.03386e-10 1.1462e-09 0.790708 0.570133 0 0 0 0 0 0 0 0 0 0 0 0 0 0 0 0 0 0 0 0 0 0 0 0 0 0 0 0 0 0 0 0 0 0 0 0 0 0 0 0 0 0
0.525665 1.32263e-09 2.90616e-10 1.03201e-09 0.780274 0.57699 0 0 0 0 0 0 0 0 0 0 0 0 0 0 0 0 0 0 0 0 0 0 0 0 0 0 0 0 0 0 0 0 0 0 0 0 0 0 0 0 0 0
0.552648 1.18611e-09 2.73886e-10 9.12226e-10 0.76909 0.586157 0 0 0 0 0 0 0 0 0 0 0 0 0 0 0 0 0 0 0 0 0 0 0 0 0 0 0 0 0 0 0 0 0 0 0 0 0 0 0 0 0 0
0.581015 1.04957e-09 2.53705e-10 7.95866e-10 0.758277 0.587481 0 0 0 0 0 0 0 0 0 0 0 0 0 0 0 0 0 0 0 0 0 0 0 0 0 0 0 0 0 0 0 0 0 0 0 0 0 0 0 0 0 0
0.610839 9.23821e-10 2.32336e-10 6.91485e-10 0.748505 0.573039 0 0 0 0 0 0 0 0 0 0 0 0 0 0 0 0 0 0 0 0 0 0 0 0 0 0 0 0 0 0 0 0 0 0 0 0 0 0 0 0 0 0
0.642193 8.1359e-10 2.11765e-10 6.01824e-10 0.739715 0.540461 0 0 0 0 0 0 0 0 0 0 0 0 0 0 0 0 0 0 0 0 0 0 0 0 0 0 0 0 0 0 0 0 0 0 0 0 0 0 0 0 0 0
0.675157 7.18163e-10 1.93263e-10 5.249e-10 0.730892 0.494412 0 0 0 0 0 0 0 0 0 0 0 0 0 0 0 0 0 0 0 0 0 0 0 0 0 0 0 0 0 0 0 0 0 0 0 0 0 0 0 0 0 0
0.709813 6.34982e-10 1.7712e-10 4.57863e-10 0.721064 0.442969 0 0 0 0 0 0 0 0 0 0 0 0 0 0 0 0 0 0 0 0 0 0 0 0 0 0 0 0 0 0 0 0 0 0 0 0 0 0 0 0 0 0
0.746248 5.61597e-10 1.63119e-10 3.98478e-10 0.709544 0.39242 0 0 0 0 0 0 0 0 0 0 0 0 0 0 0 0 0 0 0 0 0 0 0 0 0 0 0 0 0 0 0 0 0 0 0 0 0 0 0 0 0 0
0.784553 4.95789e-10 1.50805e-10 3.44983e-10 0.695827 0.346217 0 0 0 0 0 0 0 0 0 0 0 0 0 0 0 0 0 0 0 0 0 0 0 0 0 0 0 0 0 0 0 0 0 0 0 0 0 0 0 0 0 0
0.824824 4.36584e-10 1.39817e-10 2.96767e-10 0.679747 0.305691 0 0 0 0 0 0 0 0 0 0 0 0 0 0 0 0 0 0 0 0 0 0 0 0 0 0 0 0 0 0 0 0 0 0 0 0 0 0 0 0 0 0
0.867162 3.83285e-10 1.29822e-10 2.53464e-10 0.661292 0.270625 0 0 0 0 0 0 0 0 0 0 0 0 0 0 0 0 0 0 0 0 0 0 0 0 0 0 0 0 0 0 0 0 0 0 0 0 0 0 0 0 0 0
0.911674 3.35573e-10 1.20729e-10 2.14844e-10 0.64023 0.240362 0 0 0 0 0 0 0 0 0 0 0 0 0 0 0 0 0 0 0 0 0 0 0 0 0 0 0 0 0 0 0 0 0 0 0 0 0 0 0 0 0 0
0.95847 2.93146e-10 1.12379e-10 1.80767e-10 0.616644 0.214198 0 0 0 0 0 0 0 0 0 0 0 0 0 0 0 0 0 0 0 0 0 0 0 0 0 0 0 0 0 0 0 0 0 0 0 0 0 0 0 0 0 0
1.00767 2.55372e-10 1.04584e-10 1.50788e-10 0.590464 0.191506 0 0 0 0 0 0 0 0 0 0 0 0 0 0 0 0 0 0 0 0 0 0 0 0 0 0 0 0 0 0 0 0 0 0 0 0 0 0 0 0 0 0
1.05939 2.24612e-10 9.95002e-11 1.25112e-10 0.557014 0.17169 0 0 0 0 0 0 0 0 0 0 0 0 0 0 0 0 0 0 0 0 0 0 0 0 0 0 0 0 0 0 0 0 0 0 0 0 0 0 0 0 0 0
1.11377 1.98684e-10 9.50961e-11 1.03587e-10 0.521369 0.154256 0 0 0 0 0 0 0 0 0 0 0 0 0 0 0 0 0 0 0 0 0 0 0 0 0 0 0 0 0 0 0 0 0 0 0 0 0 0 0 0 0 0
1.17094 1.77004e-10 9.13177e-11 8.56868e-11 0.484094 0.138836 0 0 0 0 0 0 0 0 0 0 0 0 0 0 0 0 0 0 0 0 0 0 0 0 0 0 0 0 0 0 0 0 0 0 0 0 0 0 0 0 0 0
1.23105 1.58582e-10 8.79068e-11 7.0675e-11 0.445669 0.125144 0 0 0 0 0 0 0 0 0 0 0 0 0 0 0 0 0 0 0 0 0 0 0 0 0 0 0 0 0 0 0 0 0 0 0 0 0 0 0 0 0 0
1.29424 1.4276e-10 8.45462e-11 5.8214e-11 0.407775 0.112941 0 0 0 0 0 0 0 0 0 0 0 0 0 0 0 0 0 0 0 0 0 0 0 0 0 0 0 0 0 0 0 0 0 0 0 0 0 0 0 0 0 0
1.36067 1.29328e-10 8.12204e-11 4.81075e-11 0.371981 0.102029 0 0 0 0 0 0 0 0 0 0 0 0 0 0 0 0 0 0 0 0 0 0 0 0 0 0 0 0 0 0 0 0 0 0 0 0 0 0 0 0 0 0
1.43051 1.17042e-10 7.78158e-11 3.92264e-11 0.335147 0.0922161 0 0 0 0 0 0 0 0 0 0 0 0 0 0 0 0 0 0 0 0 0 0 0 0 0 0 0 0 0 0 0 0 0 0 0 0 0 0 0 0 0 0
1.50394 1.06703e-10 7.45842e-11 3.21188e-11 0.301011 0.0833954 0 0 0 0 0 0 0 0 0 0 0 0 0 0 0 0 0 0 0 0 0 0 0 0 0 0 0 0 0 0 0 0 0 0 0 0 0 0 0 0 0 0
1.58114 9.78995e-11 7.15875e-11 2.6312e-11 0.268765 0.0754596 0 0 0 0 0 0 0 0 0 0 0 0 0 0 0 0 0 0 0 0 0 0 0 0 0 0 0 0 0 0 0 0 0 0 0 0 0 0 0 0 0 0
1.6623 9.04315e-11 6.88906e-11 2.15409e-11 0.238202 0.0682862 0 0 0 0 0 0 0 0 0 0 0 0 0 0 0 0 0 0 0 0 0 0 0 0 0 0 0 0 0 0 0 0 0 0 0 0 0 0 0 0 0 0
1.74763 8.41908e-11 6.65667e-11 1.76241e-11 0.209336 0.0618035 0 0 0 0 0 0 0 0 0 0 0 0 0 0 0 0 0 0 0 0 0 0 0 0 0 0 0 0 0 0 0 0 0 0 0 0 0 0 0 0 0 0
1.83733 7.91017e-11 6.46922e-11 1.44095e-11 0.182164 0.0559376 0 0 0 0 0 0 0 0 0 0 0 0 0 0 0 0 0 0 0 0 0 0 0 0 0 0 0 0 0 0 0 0 0 0 0 0 0 0 0 0 0 0
1.93164 7.50609e-11 6.32884e-11 1.17725e-11 0.15684 0.0506395 0 0 0 0 0 0 0 0 0 0 0 0 0 0 0 0 0 0 0 0 0 0 0 0 0 0 0 0 0 0 0 0 0 0 0 0 0 0 0 0 0 0
2.03079 7.19606e-11 6.23374e-11 9.62318e-12 0.133729 0.0458449 0 0 0 0 0 0 0 0 0 0 0 0 0 0 0 0 0 0 0 0 0 0 0 0 0 0 0 0 0 0 0 0 0 0 0 0 0 0 0 0 0 0
2.13503 6.96079e-11 6.17351e-11 7.87282e-12 0.113102 0.0414973 0 0 0 0 0 0 0 0 0 0 0 0 0 0 0 0 0 0 0 0 0 0 0 0 0 0 0 0 0 0 0 0 0 0 0 0 0 0 0 0 0 0
2.24463 6.77128e-11 6.12662e-11 6.44667e-12 0.095206 0.0375561 0 0 0 0 0 0 0 0 0 0 0 0 0 0 0 0 0 0 0 0 0 0 0 0 0 0 0 0 0 0 0 0 0 0 0 0 0 0 0 0 0 0
2.35984 6.61482e-11 6.08663e-11 5.28193e-12 0.0798499 0.0339921 0 0 0 0 0 0 0 0 0 0 0 0 0 0 0 0 0 0 0 0 0 0 0 0 0 0 0 0 0 0 0 0 0 0 0 0 0 0 0 0 0 0
2.48097 6.49363e-11 6.06071e-11 4.32924e-12 0.0666691 0.0307589 0 0 0 0 0 0 0 0 0 0 0 0 0 0 0 0 0 0 0 0 0 0 0 0 0 0 0 0 0 0 0 0 0 0 0 0 0 0 0 0 0 0
2.60832 6.40451e-11 6.04946e-11 3.55048e-12 0.0554372 0.0278289 0 0 0 0 0 0 0 0 0 0 0 0 0 0 0 0 0 0 0 0 0 0 0 0 0 0 0 0 0 0 0 0 0 0 0 0 0 0 0 0 0 0
2.74221 6.35137e-11 6.05994e-11 2.91431e-12 0.0458847 0.0251746 0 0 0 0 0 0 0 0 0 0 0 0 0 0 0 0 0 0 0 0 0 0 0 0 0 0 0 0 0 0 0 0 0 0 0 0 0 0 0 0 0 0
2.88297 6.33242e-11 6.0928e-11 2.39614e-12 0.0378392 0.0227678 0 0 0 0 0 0 0 0 0 0 0 0 0 0 0 0 0 0 0 0 0 0 0 0 0 0 0 0 0 0 0 0 0 0 0 0 0 0 0 0 0 0
3.03095 6.34404e-11 6.14625e-11 1.9779e-12 0.0311773 0.0205887 0 0 0 0 0 0 0 0 0 0 0 0 0 0 0 0 0 0 0 0 0 0 0 0 0 0 0 0 0 0 0 0 0 0 0 0 0 0 0 0 0 0
3.18653 6.30904e-11 6.14536e-11 1.63679e-12 0.0259436 0.0186136 0 0 0 0 0 0 0 0 0 0 0 0 0 0 0 0 0 0 0 0 0 0 0 0 0 0 0 0 0 0 0 0 0 0 0 0 0 0 0 0 0 0
3.35009 6.40307e-11 6.26935e-11 1.33724e-12 0.0208843 0.0168226 0 0 0 0 0 0 0 0 0 0 0 0 0 0 0 0 0 0 0 0 0 0 0 0 0 0 0 0 0 0 0 0 0 0 0 0 0 0 0 0 0 0
3.52205 6.34647e-11 6.23004e-11 1.16425e-12 0.0183449 0.0151996 0 0 0 0 0 0 0 0 0 0 0 0 0 0 0 0 0 0 0 0 0 0 0 0 0 0 0 0 0 0 0 0 0 0 0 0 0 0 0 0 0 0
3.70284 5.88734e-11 5.79267e-11 9.46698e-13 0.0160802 0.0137302 0 0 0 0 0 0 0 0 0 0 0 0 0 0 0 0 0 0 0 0 0 0 0 0 0 0 0 0 0 0 0 0 0 0 0 0 0 0 0 0 0 0
3.89291 5.73162e-11 5.65409e-11 7.75331e-13 0.0135273 0.0123973 0 0 0 0 0 0 0 0 0 0 0 0 0 0 0 0 0 0 0 0 0 0 0 0 0 0 0 0 0 0 0 0 0 0 0 0 0 0 0 0 0 0
4.09273 5.60687e-11 5.54333e-11 6.35461e-13 0.0113336 0.0111875 0 0 0 0 0 0 0 0 0 0 0 0 0 0 0 0 0 0 0 0 0 0 0 0 0 0 0 0 0 0 0 0 0 0 0 0 0 0 0 0 0 0
4.30281 5.51231e-11 5.4602e-11 5.2105e-13 0.00945249 0.0100903 0 0 0 0 0 0 0 0 0 0 0 0 0 0 0 0 0 0 0 0 0 0 0 0 0 0 0 0 0 0 0 0 0 0 0 0 0 0 0 0 0 0
4.52368 5.44924e-11 5.40647e-11 4.277e-13 0.00784879 0.00909659 0 0 0 0 0 0 0 0 0 0 0 0 0 0 0 0 0 0 0 0 0 0 0 0 0 0 0 0 0 0 0 0 0 0 0 0 0 0 0 0 0 0
4.75588 5.4097e-11 5.37453e-11 3.5168e-13 0.00650092 0.00819449 0 0 0 0 0 0 0 0 0 0 0 0 0 0 0 0 0 0 0 0 0 0 0 0 0 0 0 0 0 0 0 0 0 0 0 0 0 0 0 0 0 0
5 5.37814e-11 5.34917e-11 2.89776e-13 0.00538802 0.0073737 0 0 0 0 0 0 0 0 0 0 0 0 0 0 0 0 0 0 0 0 0 0 0 0 0 0 0 0 0 0 0 0 0 0 0 0 0 0 0 0 0 0
5.25665 5.34117e-11 5.31727e-11 2.39032e-13 0.00447528 0.00662738 0 0 0 0 0 0 0 0 0 0 0 0 0 0 0 0 0 0 0 0 0 0 0 0 0 0 0 0 0 0 0 0 0 0 0 0 0 0 0 0 0 0
5.52648 5.29904e-11 5.27932e-11 1.97177e-13 0.003721 0.00595149 0 0 0 0 0 0 0 0 0 0 0 0 0 0 0 0 0 0 0 0 0 0 0 0 0 0 0 0 0 0 0 0 0 0 0 0 0 0 0 0 0 0
5.81015 5.24775e-11 5.2315e-11 1.62469e-13 0.00309597 0.00533511 0 0 0 0 0 0 0 0 0 0 0 0 0 0 0 0 0 0 0 0 0 0 0 0 0 0 0 0 0 0 0 0 0 0 0 0 0 0 0 0 0 0
6.10839 5.19305e-11 5.17969e-11 1.33593e-13 0.00257252 0.00477462 0 0 0 0 0 0 0 0 0 0 0 0 0 0 0 0 0 0 0 0 0 0 0 0 0 0 0 0 0 0 0 0 1.4013e-45 0 4.2039e-45 0 1.12104e-44 0 2.94273e-44 0 7.00649e-44 0
6.42193 5.13317e-11 5.12223e-11 1.0945e-13 0.0021322 0.00426306 0 0 0 0 0 0 0 0 0 0 0 0 0 0 0 0 0 0 0 0 0 0 0 0 1.4013e-45 0 5.60519e-45 0 2.10195e-44 0 6.72623e-44 0 1.97583e-43 0 5.45105e-43 0 1.3985e-42 0 3.35891e-42 0 7.57682e-42 0
6.75157 5.08811e-11 5.07922e-11 8.89636e-14 0.00174846 0.00379146 0 0 0 0 0 0 0 0 0 0 0 0 0 0 0 0 0 0 1.4013e-45 0 8.40779e-45 0 4.34403e-44 0 1.84971e-43 0 7.1186e-43 0 2.38501e-42 0 7.20408e-42 0 2.02193e-41 0 5.29397e-41 0 1.29757e-40 0 2.98688e-40 0 6.47583e-40 0
7.09813 4.99854e-11 4.99131e-11 7.22706e-14 0.00144583 0.0033473 0 0 0 0 0 0 0 0 0 0 0 0 0 0 2.8026e-45 0 2.38221e-44 0 1.73761e-43 0 9.80909e-43 0 4.72238e-42 0 1.85588e-41 0 6.68083e-41 0 2.11038e-40 0 6.03969e-40 0 1.61189e-39 0 4.0266e-39 0 9.44671e-39 0 2.08779e-38 0 4.35869e-38 0
7.46248 4.92453e-11 4.9188e-11 5.72586e-14 0.00116272 0.00291502 0 0 0 0 0 0 0 0 0 0 1.4013e-45 0 2.24208e-44 0 2.97075e-43 0 2.64145e-42 0 1.72388e-41 0 8.9777e-41 0 4.00012e-40 0 1.47058e-39 0 4.97287e-39 0 1.48506e-38 0 4.03741e-38 0 1.02709e-37 0 2.45357e-37 0 5.52154e-37 0 1.17396e-36 0 2.36436e-36 0
7.84553 4.84771e-11 4.84338e-11 4.33184e-14 0.000893584 0.00250272 0 0 0 0 0 0 0 0 2.8026e-45 0 1.21913e-43 0 2.42845e-42 0 2.84716e-41 0 2.27066e-40 0 1.35214e-39 0 6.49685e-39 0 2.69109e-38 0 9.28407e-38 0 2.95817e-37 0 8.37457e-37 0 2.16827e-36 0 5.27013e-36 0 1.20655e-35 0 2.60981e-35 0 5.34817e-35 0 1.04093e-34 0
8.24824 5.39287e-11 5.38969e-11 3.18458e-14 0.000590517 0.0021521 0 0 0 0 0 0 2.8026e-45 0 3.60134e-43 0 1.35576e-41 0 2.33814e-40 0 2.43107e-39 0 1.75188e-38 0 9.56183e-38 0 4.25541e-37 0 1.64449e-36 0 5.34051e-36 0 1.60803e-35 0 4.32682e-35 0 1.06942e-34 0 2.489e-34 0 5.4725e-34 0 1.13996e-33 0 2.25566e-33 0 4.24979e-33 0
8.67162 6.54097e-11 6.53821e-11 2.76001e-14 0.000421957 0.0018732 0 0 0 0 0 0 4.09179e-43 0 4.12206e-41 0 1.29932e-39 0 1.95002e-38 0 1.8085e-37 0 1.18344e-36 0 5.94565e-36 0 2.46004e-35 0 8.89953e-35 0 2.72862e-34 0 7.78544e-34 0 1.99604e-33 0 4.72021e-33 0 1.05421e-32 0 2.23039e-32 0 4.48254e-32 0 8.579e-32 0 1.56711e-31 0
9.11674 8.97074e-11 8.96745e-11 3.28263e-14 0.000365927 0.00159809 0 0 0 0 7.00649e-44 0 5.24408e-41 0 4.21884e-39 0 1.12363e-37 0 1.47745e-36 0 1.22904e-35 0 7.33776e-35 0 3.40711e-34 0 1.31528e-33 0 4.46867e-33 0 1.29717e-32 0 3.51646e-32 0 8.6105e-32 0 1.95241e-31 0 4.19273e-31 0 8.55189e-31 0 1.66113e-30 0 3.08002e-30 0 5.46313e-30 0
9.5847 1.09446e-10 1.094e-10 4.55844e-14 0.000416503 0.00142891 0 0 0 0 8.72308e-42 0 4.73334e-39 0 3.0737e-37 0 6.9742e-36 0 8.08644e-35 0 6.0658e-34 0 3.31894e-33 0 1.42977e-32 0 5.16719e-32 0 1.65379e-31 0 4.55727e-31 0 1.1767e-30 0 2.75804e-30 0 6.00874e-30 0 1.24309e-29 0 2.44881e-29 0 4.60488e-29 0 8.28467e-29 0 1.42893e-28 0
10.0767 1.061e-10 1.06049e-10 5.02279e-14 0.000473404 0.00135572 0 0 9.80909e-45 0 6.8114e-40 0 2.71797e-37 0 1.43961e-35 0 2.80466e-34 0 2.88524e-33 0 1.96149e-32 0 9.87776e-32 0 3.96239e-31 0 1.34494e-30 0 4.0669e-30 0 1.06658e-29 0 2.6293e-29 0 5.91171e-29 0 1.2399e-28 0 2.47566e-28 0 4.71808e-28 0 8.60278e-28 0 1.50398e-27 0 2.52593e-27 0
10.5939 9.04018e-11 9.03572e-11 4.46186e-14 0.000493558 0.00133233 0 0 8.64601e-43 0 3.72749e-38 0 1.11028e-35 0 4.84463e-34 0 8.16453e-33 0 7.49563e-32 0 4.64056e-31 0 2.15956e-30 0 8.09485e-30 0 2.58846e-29 0 7.41546e-29 0 1.85534e-28 0 4.37664e-28 0 9.45873e-28 0 1.91337e-27 0 3.69354e-27 0 6.82092e-27 0 1.20776e-26 0 2.05465e-26 0 3.36452e-26 0
11.1377 7.55418e-11 7.55043e-11 3.75092e-14 0.000496535 0.00136434 0 0 6.29407e-41 0 1.61281e-36 0 3.63754e-34 0 1.32e-32 0 1.93799e-31 0 1.59668e-30 0 9.04321e-30 0 3.90403e-29 0 1.37195e-28 0 4.145e-28 0 1.12799e-27 0 2.69863e-27 0 6.10468e-27 0 1.27061e-26 0 2.48337e-26 0 4.64236e-26 0 8.32018e-26 0 1.4327e-25 0 2.37491e-25 0 3.79641e-25 0
11.7094 6.06473e-11 6.0618e-11 2.93268e-14 0.000483563 0.00137284 6.30584e-44 0 3.49921e-39 0 5.46225e-35 0 9.45589e-33 0 2.87947e-31 0 3.70788e-30 0 2.75598e-29 0 1.4342e-28 0 5.76486e-28 0 1.90531e-27 0 5.45388e-27 0 1.41338e-26 0 3.24042e-26 0 7.04387e-26 0 1.41455e-25 0 2.6757e-25 0 4.85143e-25 0 8.45068e-25 0 1.41707e-24 0 2.29174e-24 0 3.58052e-24 0
12.3105 4.86842e-11 4.86623e-11 2.18455e-14 0.000448718 0.00136607 4.77142e-42 0 1.56245e-37 0 1.52219e-33 0 2.04888e-31 0 5.28069e-30 0 6.0023e-29 0 4.04514e-28 0 1.9422e-27 0 7.29415e-27 0 2.27407e-26 0 6.18363e-26 0 1.52969e-25 0 3.36786e-25 0 7.04855e-25 0 1.36812e-24 0 2.50858e-24 0 4.41816e-24 0 7.49024e-24 0 1.22471e-23 0 1.93471e-23 0 2.95757e-23 0
12.9424 4.42187e-11 4.42028e-11 1.58785e-14 0.000359091 0.00130719 3.25181e-40 0 6.40904e-36 0 3.98761e-32 0 4.22484e-30 0 9.29151e-29 0 9.37937e-28 0 5.75882e-27 0 2.56111e-26 0 9.01673e-26 0 2.6593e-25 0 6.88646e-25 0 1.62986e-24 0 3.45276e-24 0 6.97032e-24 0 1.30983e-23 0 2.33164e-23 0 3.99461e-23 0 6.59987e-23 0 1.05353e-22 0 1.62755e-22 0 2.43699e-22 0
