# 0.0023131 1 106 : grain size, compostion index, size index
# Heating and cooling timescale: 4.7508e-07 inf
# Ratio of heating to cooling to determine stochastic cutoff: 100
# Equilibrium emission is recorded even for those grains in the stochastic regime.
# Emission spectrum was computed for: 
# Type: ISRF
# Scales: 0.25 0.5 1 1.5 2 2.5 3 3.5 4 4.5 5 5.5 6 6.5 7 7.5 8 8.5 9 9.5 10
# StochasticallyHeated: 0 0 0 0 0 0 0 0 0 0 0 0 0 0 0 0 0 0 0 0 0
# Temperature: -1
# Wavelength  CExt  CAbs  CSca  Albedo G EqEm1 StEm1 EqEm2 StEm2 EqEm3 StEm3 EqEm4 StEm4 EqEm5 StEm5 EqEm6 StEm6 EqEm7 StEm7 EqEm8 StEm8 EqEm9 StEm9 EqEm10 StEm10 EqEm11 StEm11 EqEm12 StEm12 EqEm13 StEm13 EqEm14 StEm14 EqEm15 StEm15 EqEm16 StEm16 EqEm17 StEm17 EqEm18 StEm18 EqEm19 StEm19 EqEm20 StEm20 EqEm21 StEm21
0.05 3.37673e-05 1.42812e-05 1.94862e-05 0.577072 0.931757 0 0 0 0 0 0 0 0 0 0 0 0 0 0 0 0 0 0 0 0 0 0 0 0 0 0 0 0 0 0 0 0 0 0 0 0 0 0 0 0 0 0
0.0525665 3.37733e-05 1.4157e-05 1.96162e-05 0.580821 0.925949 0 0 0 0 0 0 0 0 0 0 0 0 0 0 0 0 0 0 0 0 0 0 0 0 0 0 0 0 0 0 0 0 0 0 0 0 0 0 0 0 0 0
0.0552647 3.37797e-05 1.39507e-05 1.9829e-05 0.58701 0.917063 0 0 0 0 0 0 0 0 0 0 0 0 0 0 0 0 0 0 0 0 0 0 0 0 0 0 0 0 0 0 0 0 0 0 0 0 0 0 0 0 0 0
0.0581015 3.3787e-05 1.36377e-05 2.01494e-05 0.596364 0.903243 0 0 0 0 0 0 0 0 0 0 0 0 0 0 0 0 0 0 0 0 0 0 0 0 0 0 0 0 0 0 0 0 0 0 0 0 0 0 0 0 0 0
0.0610839 3.37953e-05 1.33221e-05 2.04731e-05 0.605798 0.887748 0 0 0 0 0 0 0 0 0 0 0 0 0 0 0 0 0 0 0 0 0 0 0 0 0 0 0 0 0 0 0 0 0 0 0 0 0 0 0 0 0 0
0.0642193 3.38041e-05 1.31017e-05 2.07024e-05 0.612424 0.875145 0 0 0 0 0 0 0 0 0 0 0 0 0 0 0 0 0 0 0 0 0 0 0 0 0 0 0 0 0 0 0 0 0 0 0 0 0 0 0 0 0 0
0.0675157 3.3813e-05 1.29772e-05 2.08359e-05 0.616208 0.866253 0 0 0 0 0 0 0 0 0 0 0 0 0 0 0 0 0 0 0 0 0 0 0 0 0 0 0 0 0 0 0 0 0 0 0 0 0 0 0 0 0 0
0.0709813 3.38223e-05 1.29309e-05 2.08914e-05 0.61768 0.860645 0 0 0 0 0 0 0 0 0 0 0 0 0 0 0 0 0 0 0 0 0 0 0 0 0 0 0 0 0 0 0 0 0 0 0 0 0 0 0 0 0 0
0.0746248 3.38317e-05 1.29499e-05 2.08818e-05 0.617227 0.857911 0 0 0 0 0 0 0 0 0 0 0 0 0 0 0 0 0 0 0 0 0 0 0 0 0 0 0 0 0 0 0 0 0 0 0 0 0 0 0 0 0 0
0.0784553 3.38408e-05 1.30425e-05 2.07983e-05 0.614592 0.858553 0 0 0 0 0 0 0 0 0 0 0 0 0 0 0 0 0 0 0 0 0 0 0 0 0 0 0 0 0 0 0 0 0 0 0 0 0 0 0 0 0 0
0.0824824 3.38496e-05 1.32397e-05 2.061e-05 0.608868 0.864107 0 0 0 0 0 0 0 0 0 0 0 0 0 0 0 0 0 0 0 0 0 0 0 0 0 0 0 0 0 0 0 0 0 0 0 0 0 0 0 0 0 0
0.0867162 3.38574e-05 1.33224e-05 2.0535e-05 0.606515 0.867088 0 0 0 0 0 0 0 0 0 0 0 0 0 0 0 0 0 0 0 0 0 0 0 0 0 0 0 0 0 0 0 0 0 0 0 0 0 0 0 0 0 0
0.0911674 3.38673e-05 1.32034e-05 2.06638e-05 0.610142 0.860557 0 0 0 0 0 0 0 0 0 0 0 0 0 0 0 0 0 0 0 0 0 0 0 0 0 0 0 0 0 0 0 0 0 0 0 0 0 0 0 0 0 0
0.095847 3.38778e-05 1.31874e-05 2.06903e-05 0.610735 0.857254 0 0 0 0 0 0 0 0 0 0 0 0 0 0 0 0 0 0 0 0 0 0 0 0 0 0 0 0 0 0 0 0 0 0 0 0 0 0 0 0 0 0
0.100767 3.38878e-05 1.32277e-05 2.06601e-05 0.609661 0.856784 0 0 0 0 0 0 0 0 0 0 0 0 0 0 0 0 0 0 0 0 0 0 0 0 0 0 0 0 0 0 0 0 0 0 0 0 0 0 0 0 0 0
0.105939 3.38969e-05 1.33622e-05 2.05347e-05 0.605798 0.860713 0 0 0 0 0 0 0 0 0 0 0 0 0 0 0 0 0 0 0 0 0 0 0 0 0 0 0 0 0 0 0 0 0 0 0 0 0 0 0 0 0 0
0.111377 3.39058e-05 1.35011e-05 2.04047e-05 0.601806 0.865796 0 0 0 0 0 0 0 0 0 0 0 0 0 0 0 0 0 0 0 0 0 0 0 0 0 0 0 0 0 0 0 0 0 0 0 0 0 0 0 0 0 0
0.117094 3.39149e-05 1.3592e-05 2.03229e-05 0.599232 0.868982 0 0 0 0 0 0 0 0 0 0 0 0 0 0 0 0 0 0 0 0 0 0 0 0 0 0 0 0 0 0 0 0 0 0 0 0 0 0 0 0 0 0
0.123105 3.39246e-05 1.36544e-05 2.02702e-05 0.597509 0.870989 0 0 0 0 0 0 0 0 0 0 0 0 0 0 0 0 0 0 0 0 0 0 0 0 0 0 0 0 0 0 0 0 0 0 0 0 0 0 0 0 0 0
0.129424 3.39345e-05 1.36932e-05 2.02414e-05 0.596483 0.871966 0 0 0 0 0 0 0 0 0 0 0 0 0 0 0 0 0 0 0 0 0 0 0 0 0 0 0 0 0 0 0 0 0 0 0 0 0 0 0 0 0 0
0.136067 3.3945e-05 1.37058e-05 2.02392e-05 0.596234 0.871723 0 0 0 0 0 0 0 0 0 0 0 0 0 0 0 0 0 0 0 0 0 0 0 0 0 0 0 0 0 0 0 0 0 0 0 0 0 0 0 0 0 0
0.143051 3.39558e-05 1.36773e-05 2.02785e-05 0.597203 0.869388 0 0 0 0 0 0 0 0 0 0 0 0 0 0 0 0 0 0 0 0 0 0 0 0 0 0 0 0 0 0 0 0 0 0 0 0 0 0 0 0 0 0
0.150394 3.39653e-05 1.37261e-05 2.02392e-05 0.595879 0.870626 0 0 0 0 0 0 0 0 0 0 0 0 0 0 0 0 0 0 0 0 0 0 0 0 0 0 0 0 0 0 0 0 0 0 0 0 0 0 0 0 0 0
0.158114 3.39745e-05 1.38733e-05 2.01012e-05 0.591655 0.877097 0 0 0 0 0 0 0 0 0 0 0 0 0 0 0 0 0 0 0 0 0 0 0 0 0 0 0 0 0 0 0 0 0 0 0 0 0 0 0 0 0 0
0.16623 3.39845e-05 1.40406e-05 1.99439e-05 0.586853 0.88496 0 0 0 0 0 0 0 0 0 0 0 0 0 0 0 0 0 0 0 0 0 0 0 0 0 0 0 0 0 0 0 0 0 0 0 0 0 0 0 0 0 0
0.174762 3.39958e-05 1.41894e-05 1.98064e-05 0.582613 0.892097 0 0 0 0 0 0 0 0 0 0 0 0 0 0 0 0 0 0 0 0 0 0 0 0 0 0 0 0 0 0 0 0 0 0 0 0 0 0 0 0 0 0
0.183733 3.40079e-05 1.43219e-05 1.96859e-05 0.578864 0.89848 0 0 0 0 0 0 0 0 0 0 0 0 0 0 0 0 0 0 0 0 0 0 0 0 0 0 0 0 0 0 0 0 0 0 0 0 0 0 0 0 0 0
0.193164 3.40207e-05 1.44349e-05 1.95858e-05 0.575702 0.903899 0 0 0 0 0 0 0 0 0 0 0 0 0 0 0 0 0 0 0 0 0 0 0 0 0 0 0 0 0 0 0 0 0 0 0 0 0 0 0 0 0 0
0.203079 3.40341e-05 1.4532e-05 1.95021e-05 0.573018 0.908506 0 0 0 0 0 0 0 0 0 0 0 0 0 0 0 0 0 0 0 0 0 0 0 0 0 0 0 0 0 0 0 0 0 0 0 0 0 0 0 0 0 0
0.213503 3.4048e-05 1.46183e-05 1.94297e-05 0.570655 0.912558 0 0 0 0 0 0 0 0 0 0 0 0 0 0 0 0 0 0 0 0 0 0 0 0 0 0 0 0 0 0 0 0 0 0 0 0 0 0 0 0 0 0
0.224463 3.40626e-05 1.46914e-05 1.93712e-05 0.568694 0.915914 0 0 0 0 0 0 0 0 0 0 0 0 0 0 0 0 0 0 0 0 0 0 0 0 0 0 0 0 0 0 0 0 0 0 0 0 0 0 0 0 0 0
0.235984 3.40776e-05 1.47502e-05 1.93273e-05 0.567156 0.918527 0 0 0 0 0 0 0 0 0 0 0 0 0 0 0 0 0 0 0 0 0 0 0 0 0 0 0 0 0 0 0 0 0 0 0 0 0 0 0 0 0 0
0.248097 3.4093e-05 1.47967e-05 1.92963e-05 0.565989 0.920494 0 0 0 0 0 0 0 0 0 0 0 0 0 0 0 0 0 0 0 0 0 0 0 0 0 0 0 0 0 0 0 0 0 0 0 0 0 0 0 0 0 0
0.260832 3.41092e-05 1.48359e-05 1.92733e-05 0.565048 0.922069 0 0 0 0 0 0 0 0 0 0 0 0 0 0 0 0 0 0 0 0 0 0 0 0 0 0 0 0 0 0 0 0 0 0 0 0 0 0 0 0 0 0
0.274221 3.41256e-05 1.48703e-05 1.92553e-05 0.564247 0.923387 0 0 0 0 0 0 0 0 0 0 0 0 0 0 0 0 0 0 0 0 0 0 0 0 0 0 0 0 0 0 0 0 0 0 0 0 0 0 0 0 0 0
0.288297 3.41428e-05 1.49008e-05 1.9242e-05 0.563573 0.924481 0 0 0 0 0 0 0 0 0 0 0 0 0 0 0 0 0 0 0 0 0 0 0 0 0 0 0 0 0 0 0 0 0 0 0 0 0 0 0 0 0 0
0.303095 3.41605e-05 1.49281e-05 1.92324e-05 0.563001 0.925394 0 0 0 0 0 0 0 0 0 0 0 0 0 0 0 0 0 0 0 0 0 0 0 0 0 0 0 0 0 0 0 0 0 0 0 0 0 0 0 0 0 0
0.318653 3.41788e-05 1.49534e-05 1.92254e-05 0.562496 0.926182 0 0 0 0 0 0 0 0 0 0 0 0 0 0 0 0 0 0 0 0 0 0 0 0 0 0 0 0 0 0 0 0 0 0 0 0 0 0 0 0 0 0
0.335009 3.41977e-05 1.49767e-05 1.92211e-05 0.562057 0.926849 0 0 0 0 0 0 0 0 0 0 0 0 0 0 0 0 0 0 0 0 0 0 0 0 0 0 0 0 0 0 0 0 0 0 0 0 0 0 0 0 0 0
0.352205 3.42172e-05 1.49988e-05 1.92184e-05 0.561659 0.927434 0 0 0 0 0 0 0 0 0 0 0 0 0 0 0 0 0 0 0 0 0 0 0 0 0 0 0 0 0 0 0 0 0 0 0 0 0 0 0 0 0 0
0.370284 3.42374e-05 1.502e-05 1.92174e-05 0.561298 0.927945 0 0 0 0 0 0 0 0 0 0 0 0 0 0 0 0 0 0 0 0 0 0 0 0 0 0 0 0 0 0 0 0 0 0 0 0 0 0 0 0 0 0
0.389291 3.42583e-05 1.50399e-05 1.92185e-05 0.560986 0.928365 0 0 0 0 0 0 0 0 0 0 0 0 0 0 0 0 0 0 0 0 0 0 0 0 0 0 0 0 0 0 0 0 0 0 0 0 0 0 0 0 0 0
0.409273 3.42798e-05 1.5059e-05 1.92208e-05 0.560703 0.928721 0 0 0 0 0 0 0 0 0 0 0 0 0 0 0 0 0 0 0 0 0 0 0 0 0 0 0 0 0 0 0 0 0 0 0 0 0 0 0 0 0 0
0.430281 3.43021e-05 1.50782e-05 1.92239e-05 0.560429 0.929054 0 0 0 0 0 0 0 0 0 0 0 0 0 0 0 0 0 0 0 0 0 0 0 0 0 0 0 0 0 0 0 0 0 0 0 0 0 0 0 0 0 0
0.452368 3.43252e-05 1.50964e-05 1.92289e-05 0.560196 0.929305 0 0 0 0 0 0 0 0 0 0 0 0 0 0 0 0 0 0 0 0 0 0 0 0 0 0 0 0 0 0 0 0 0 0 0 0 0 0 0 0 0 0
0.475588 3.43489e-05 1.51146e-05 1.92343e-05 0.559969 0.929529 0 0 0 0 0 0 0 0 0 0 0 0 0 0 0 0 0 0 0 0 0 0 0 0 0 0 0 0 0 0 0 0 0 0 0 0 0 0 0 0 0 0
0.5 3.43735e-05 1.51328e-05 1.92407e-05 0.559753 0.929725 0 0 0 0 0 0 0 0 0 0 0 0 0 0 0 0 0 0 0 0 0 0 0 0 0 0 0 0 0 0 0 0 0 0 0 0 0 0 0 0 0 0
0.525665 3.43989e-05 1.51513e-05 1.92477e-05 0.559542 0.929897 0 0 0 0 0 0 0 0 0 0 0 0 0 0 0 0 0 0 0 0 0 0 0 0 0 0 0 0 0 0 0 0 0 0 0 0 0 0 0 0 0 0
0.552648 3.44253e-05 1.51704e-05 1.92549e-05 0.559324 0.930068 0 0 0 0 0 0 0 0 0 0 0 0 0 0 0 0 0 0 0 0 0 0 0 0 0 0 0 0 0 0 0 0 0 0 0 0 0 0 0 0 0 0
0.581015 3.44524e-05 1.51884e-05 1.9264e-05 0.559148 0.930151 0 0 0 0 0 0 0 0 0 0 0 0 0 0 0 0 0 0 0 0 0 0 0 0 0 0 0 0 0 0 0 0 0 0 0 0 0 0 0 0 0 0
0.610839 3.44804e-05 1.52072e-05 1.92732e-05 0.55896 0.930236 0 0 0 0 0 0 0 0 0 0 0 0 0 0 0 0 0 0 0 0 0 0 0 0 0 0 0 0 0 0 0 0 0 0 0 0 0 0 0 0 0 0
0.642193 3.45094e-05 1.52269e-05 1.92825e-05 0.558761 0.930324 0 0 0 0 0 0 0 0 0 0 0 0 0 0 0 0 0 0 0 0 0 0 0 0 0 0 0 0 0 0 0 0 0 0 0 0 0 0 0 0 0 0
0.675157 3.45393e-05 1.52468e-05 1.92925e-05 0.558566 0.930386 0 0 0 0 0 0 0 0 0 0 0 0 0 0 0 0 0 0 0 0 0 0 0 0 0 0 0 0 0 0 0 0 0 0 0 0 0 0 0 0 0 0
0.709813 3.45703e-05 1.52671e-05 1.93032e-05 0.558374 0.930427 0 0 0 0 0 0 0 0 0 0 0 0 0 0 0 0 0 0 0 0 0 0 0 0 0 0 0 0 0 0 0 0 0 0 0 0 0 0 0 0 0 0
0.746248 3.46023e-05 1.52882e-05 1.9314e-05 0.558173 0.930463 0 0 0 0 0 0 0 0 0 0 0 0 0 0 0 0 0 0 0 0 0 0 0 0 0 0 0 0 0 0 0 0 0 0 0 0 0 0 0 0 0 0
0.784553 3.46353e-05 1.53103e-05 1.9325e-05 0.557957 0.930499 0 0 0 0 0 0 0 0 0 0 0 0 0 0 0 0 0 0 0 0 0 0 0 0 0 0 0 0 0 0 0 0 0 0 0 0 0 0 0 0 0 0
0.824824 3.46695e-05 1.53327e-05 1.93368e-05 0.557746 0.930509 0 0 0 0 0 0 0 0 0 0 0 0 0 0 0 0 0 0 0 0 0 0 0 0 0 0 0 0 0 0 0 0 0 0 0 0 0 0 0 0 0 0
0.867162 3.47048e-05 1.53558e-05 1.9349e-05 0.557532 0.930501 0 0 0 0 0 0 0 0 0 0 0 0 0 0 0 0 0 0 0 0 0 0 0 0 0 0 0 0 0 0 0 0 0 0 0 0 0 0 0 0 0 0
0.911674 3.47412e-05 1.53797e-05 1.93615e-05 0.557306 0.930489 0 0 0 0 0 0 0 0 0 0 0 0 0 0 0 0 0 0 0 0 0 0 0 0 0 0 0 0 0 0 0 0 0 0 0 0 0 0 0 0 0 0
0.95847 3.47788e-05 1.54046e-05 1.93742e-05 0.55707 0.930465 0 0 0 0 0 0 0 0 0 0 0 0 0 0 0 0 0 0 0 0 0 0 0 0 0 0 0 0 0 0 0 0 0 0 0 0 0 0 0 0 0 0
1.00767 3.48178e-05 1.54305e-05 1.93873e-05 0.556822 0.93044 0 0 0 0 0 0 0 0 0 0 0 0 0 0 0 0 0 0 0 0 0 0 0 0 0 0 0 0 0 0 0 0 0 0 0 0 0 0 0 0 0 0
1.05939 3.4858e-05 1.54576e-05 1.94004e-05 0.556555 0.930416 0 0 0 0 0 0 0 0 0 0 0 0 0 0 0 0 0 0 0 0 0 0 0 0 0 0 0 0 0 0 0 0 0 0 0 0 0 0 0 0 0 0
1.11377 3.48996e-05 1.54859e-05 1.94137e-05 0.556273 0.930388 0 0 0 0 0 0 0 0 0 0 0 0 0 0 0 0 0 0 0 0 0 0 0 0 0 0 0 0 0 0 0 0 0 0 0 0 0 0 0 0 0 0
1.17094 3.49424e-05 1.55155e-05 1.94268e-05 0.555968 0.930367 0 0 0 0 0 0 0 0 0 0 0 0 0 0 0 0 0 0 0 0 0 0 0 0 0 0 0 0 0 0 0 0 0 0 0 0 0 0 0 0 0 0
1.23105 3.49872e-05 1.55465e-05 1.94407e-05 0.555652 0.930346 0 0 0 0 0 0 0 0 0 0 0 0 0 0 0 0 0 0 0 0 0 0 0 0 0 0 0 0 0 0 0 0 0 0 0 0 0 0 0 0 0 0
1.29424 3.50327e-05 1.5579e-05 1.94537e-05 0.555301 0.930331 0 0 0 0 0 0 0 0 0 0 0 0 0 0 0 0 0 0 0 0 0 0 0 0 0 0 0 0 0 0 0 0 0 0 0 0 0 0 0 0 0 0
1.36067 3.50797e-05 1.56121e-05 1.94676e-05 0.554953 0.930276 0 0 0 0 0 0 0 0 0 0 0 0 0 0 0 0 0 0 0 0 0 0 0 0 0 0 0 0 0 0 0 0 0 0 0 0 0 0 0 0 0 0
1.43051 3.51282e-05 1.56474e-05 1.94808e-05 0.554563 0.930253 0 0 0 0 0 0 0 0 0 0 0 0 0 0 0 0 0 0 0 0 0 0 0 0 0 0 0 0 0 0 0 0 0 0 0 0 0 0 0 0 0 0
1.50394 3.51793e-05 1.56839e-05 1.94954e-05 0.554173 0.930217 0 0 0 0 0 0 0 0 0 0 0 0 0 0 0 0 0 0 0 0 0 0 0 0 0 0 0 0 0 0 0 0 0 0 0 0 0 0 0 0 0 0
1.58114 3.52315e-05 1.57219e-05 1.95096e-05 0.553755 0.930175 0 0 0 0 0 0 0 0 0 0 0 0 0 0 0 0 0 0 0 0 0 0 0 0 0 0 0 0 0 0 0 0 0 0 0 0 0 0 0 0 0 0
1.6623 3.5285e-05 1.5762e-05 1.9523e-05 0.553294 0.930152 0 0 0 0 0 0 0 0 0 0 0 0 0 0 0 0 0 0 0 0 0 0 0 0 0 0 0 0 0 0 0 0 0 0 0 0 0 0 0 0 0 0
1.74763 3.53397e-05 1.58037e-05 1.9536e-05 0.552805 0.930122 0 0 0 0 0 0 0 0 0 0 0 0 0 0 0 0 0 0 0 0 0 0 0 0 0 0 0 0 0 0 0 0 0 0 0 0 0 0 0 0 0 0
1.83733 3.53958e-05 1.58475e-05 1.95483e-05 0.552277 0.930103 0 0 0 0 0 0 0 0 0 0 0 0 0 0 0 0 0 0 0 0 0 0 0 0 0 0 0 0 0 0 0 0 0 0 0 0 0 0 0 0 0 0
1.93164 3.54552e-05 1.58931e-05 1.95621e-05 0.551741 0.930086 0 0 0 0 0 0 0 0 0 0 0 0 0 0 0 0 0 0 0 0 0 0 0 0 0 0 0 0 0 0 0 0 0 0 0 0 0 0 0 0 0 0
2.03079 3.55234e-05 1.59403e-05 1.95832e-05 0.551275 0.930079 0 0 0 0 0 0 0 0 0 0 0 0 0 0 0 0 0 0 0 0 0 0 0 0 0 0 0 0 0 0 0 0 0 0 0 0 0 0 0 0 0 0
2.13503 3.55937e-05 1.59898e-05 1.9604e-05 0.55077 0.930088 0 0 0 0 0 0 0 0 0 0 0 0 0 0 0 0 0 0 0 0 0 0 0 0 0 0 0 0 0 0 0 0 0 0 0 0 0 0 0 0 0 0
2.24463 3.56487e-05 1.60415e-05 1.96072e-05 0.550011 0.930044 0 0 0 0 0 0 0 0 0 0 0 0 0 0 0 0 0 0 0 0 0 0 0 0 0 0 0 0 0 0 0 0 0 0 0 0 0 0 0 0 0 0
2.35984 3.57051e-05 1.60953e-05 1.96097e-05 0.549214 0.929995 0 0 0 0 0 0 0 0 0 0 0 0 0 0 0 0 0 0 0 0 0 0 0 0 0 0 0 0 0 0 0 0 0 0 0 0 0 0 0 0 0 0
2.48097 3.58038e-05 1.61518e-05 1.96519e-05 0.548879 0.930115 0 0 0 0 0 0 0 0 0 0 0 0 0 0 0 0 0 0 0 0 0 0 0 0 0 0 0 0 0 0 0 0 0 0 0 0 0 0 0 0 0 0
2.60832 3.58635e-05 1.62106e-05 1.96529e-05 0.547992 0.930084 0 0 0 0 0 0 0 0 0 0 0 0 0 0 0 0 0 0 0 0 0 0 0 0 0 0 0 0 0 0 0 0 0 0 0 0 0 0 0 0 0 0
2.74221 3.59182e-05 1.62713e-05 1.9647e-05 0.546991 0.930011 0 0 0 0 0 0 0 0 0 0 0 0 0 0 0 0 0 0 0 0 0 0 0 0 0 0 0 0 0 0 0 0 0 0 0 0 0 0 0 0 0 0
2.88297 3.60484e-05 1.63354e-05 1.9713e-05 0.546849 0.930248 0 0 0 0 0 0 0 0 0 0 0 0 0 0 0 0 0 0 0 0 0 0 0 0 0 0 0 0 0 0 0 0 0 0 0 0 0 0 0 0 0 0
3.03095 3.60556e-05 1.64022e-05 1.96534e-05 0.545086 0.930048 0 0 0 0 0 0 0 0 0 0 0 0 0 0 0 0 0 0 0 0 0 0 0 0 0 0 0 0 0 0 0 0 0 0 0 0 0 0 0 0 0 0
3.18653 3.62187e-05 1.64714e-05 1.97473e-05 0.545224 0.930372 0 0 0 0 0 0 0 0 0 0 0 0 0 0 0 0 0 0 0 0 0 0 0 0 0 0 0 0 0 0 0 0 0 0 0 0 0 0 0 0 0 0
3.35009 3.62188e-05 1.65442e-05 1.96747e-05 0.543217 0.930147 0 0 0 0 0 0 0 0 0 0 0 0 0 0 0 0 0 0 0 0 0 0 0 0 0 0 0 0 0 0 0 0 0 0 0 0 0 0 0 0 0 0
3.52205 3.64117e-05 1.662e-05 1.97917e-05 0.543553 0.930642 0 0 0 0 0 0 0 0 0 0 0 0 0 0 0 0 0 0 0 0 0 0 0 0 0 0 0 0 0 0 0 0 0 0 0 0 0 0 0 0 0 0
3.70284 3.63755e-05 1.66981e-05 1.96774e-05 0.540951 0.930278 0 0 0 0 0 0 0 0 0 0 0 0 0 0 0 0 0 0 0 0 0 0 0 0 0 0 0 0 0 0 0 0 0 0 0 0 0 0 0 0 0 0
3.89291 3.66295e-05 1.6779e-05 1.98505e-05 0.541927 0.93096 0 0 0 0 0 0 0 0 0 0 0 0 0 0 0 0 0 0 0 0 0 0 0 0 0 0 0 0 0 0 0 0 0 0 0 0 0 0 0 0 0 0
4.09273 3.65325e-05 1.68648e-05 1.96678e-05 0.538363 0.930518 0 0 0 0 0 0 0 0 0 0 0 0 0 0 0 0 0 0 0 0 0 0 0 0 0 0 0 0 0 0 0 0 0 0 0 0 0 0 0 0 0 0
4.30281 3.68534e-05 1.6955e-05 1.98984e-05 0.539933 0.931542 0 0 0 0 0 0 0 0 0 0 0 0 0 0 0 0 0 0 0 0 0 0 0 0 0 0 0 0 0 0 0 0 0 0 0 0 0 0 0 0 0 0
4.52368 3.67816e-05 1.70482e-05 1.97333e-05 0.5365 0.931149 0 0 0 0 0 0 0 0 0 0 0 0 0 0 0 0 0 0 0 0 0 0 0 0 0 0 0 0 0 0 0 0 0 0 0 0 0 0 0 0 0 0
4.75588 3.69413e-05 1.71432e-05 1.97981e-05 0.535934 0.931692 0 0 0 0 0 0 0 0 0 0 0 0 0 0 0 0 0 0 0 0 0 0 0 0 0 0 0 0 0 0 0 0 0 0 0 0 0 0 0 0 0 0
5 3.72152e-05 1.72534e-05 1.99618e-05 0.536388 0.933011 0 0 0 0 0 0 0 0 0 0 0 0 0 0 0 0 0 0 0 0 0 0 0 0 0 0 0 0 0 0 0 0 0 0 0 0 0 0 0 0 0 0
5.25665 3.69636e-05 1.73787e-05 1.95849e-05 0.529843 0.932723 0 0 0 0 0 0 0 0 0 0 0 0 0 0 0 0 0 0 0 0 0 0 0 0 0 0 0 0 0 0 0 0 0 0 0 0 0 0 0 0 0 0
5.52648 3.7547e-05 1.75152e-05 2.00318e-05 0.533513 0.935104 0 0 0 0 0 0 0 0 0 0 0 0 0 0 0 0 0 0 0 0 0 0 0 0 0 0 0 0 0 0 0 0 0 0 0 0 0 0 0 0 0 0
5.81015 3.73355e-05 1.76645e-05 1.9671e-05 0.52687 0.935507 0 0 0 0 0 0 0 0 0 0 0 0 0 0 0 0 0 0 0 0 0 0 0 0 0 0 0 0 0 0 0 0 0 0 0 0 0 0 0 0 0 0
6.10839 3.74926e-05 1.78452e-05 1.96473e-05 0.524032 0.9381 0 0 0 0 0 0 0 0 0 0 0 0 0 0 0 0 0 0 0 0 0 0 0 0 0 0 0 0 0 0 0 0 0 0 0 0 0 0 0 0 0 0
6.42193 3.79865e-05 1.80563e-05 1.99302e-05 0.524665 0.941866 0 0 0 0 0 0 0 0 0 0 0 0 0 0 0 0 0 0 0 0 0 0 0 0 0 0 0 0 0 0 0 0 0 0 0 0 0 0 0 0 0 0
6.75157 3.74924e-05 1.8259e-05 1.92334e-05 0.512995 0.942 0 0 0 0 0 0 0 0 0 0 0 0 0 0 0 0 0 0 0 0 0 0 0 0 0 0 0 0 0 0 0 0 0 0 0 0 0 0 0 0 0 0
7.09813 3.8482e-05 1.84756e-05 2.00064e-05 0.519889 0.948993 0 0 0 0 0 0 0 0 0 0 0 0 0 0 0 0 0 0 0 0 0 0 0 0 0 0 0 0 0 0 0 0 0 0 0 0 0 0 0 0 0 0
7.46248 3.79871e-05 1.90773e-05 1.89099e-05 0.497796 0.959264 0 0 0 0 0 0 0 0 0 0 0 0 0 0 0 0 0 0 0 0 0 0 0 0 0 0 0 0 0 0 0 0 0 0 0 0 0 0 0 0 0 0
7.84553 3.74359e-05 1.91702e-05 1.82657e-05 0.48792 0.967527 0 0 0 0 0 0 0 0 0 0 0 0 0 0 0 0 0 0 0 0 0 0 0 0 0 0 0 0 0 0 0 0 0 0 0 0 0 0 0 0 0 0
8.24824 3.61843e-05 1.82153e-05 1.79691e-05 0.496598 0.958157 0 0 0 0 0 0 0 0 0 0 0 0 0 0 0 0 0 0 0 0 0 0 0 0 0 0 0 0 0 0 0 0 0 0 0 0 0 0 0 0 0 0
8.67162 3.66394e-05 1.75749e-05 1.90645e-05 0.520329 0.933331 0 0 0 0 0 0 0 0 0 0 0 0 0 0 0 0 0 0 0 0 0 0 0 0 0 0 0 0 0 0 0 0 0 0 0 0 0 0 0 0 0 0
9.11674 3.75813e-05 1.68637e-05 2.07176e-05 0.551275 0.893824 0 0 0 0 0 0 0 0 0 0 0 0 0 0 0 0 0 0 0 0 0 0 0 0 0 0 0 0 0 0 0 0 0 0 0 0 0 0 0 0 0 0
9.5847 3.85882e-05 1.66907e-05 2.18975e-05 0.567465 0.862398 0 0 0 0 0 0 0 0 0 0 0 0 0 0 0 0 0 0 0 0 0 0 0 0 0 0 0 0 0 0 0 0 0 0 0 0 0 0 0 0 0 0
10.0767 3.91279e-05 1.68085e-05 2.23193e-05 0.57042 0.849259 0 0 0 0 0 0 0 0 0 0 0 0 0 0 0 0 0 0 0 0 0 0 0 0 0 0 0 0 0 0 0 0 0 0 0 0 0 0 0 0 0 0
10.5939 3.95449e-05 1.68633e-05 2.26817e-05 0.573567 0.836691 0 0 0 0 0 0 0 0 0 0 0 0 0 0 0 0 0 0 0 0 0 0 0 0 0 0 0 0 0 0 0 0 0 0 0 0 0 0 0 0 0 0
11.1377 3.97052e-05 1.7088e-05 2.26172e-05 0.569627 0.834971 0 0 0 0 0 0 0 0 0 0 0 0 0 0 0 0 0 0 0 0 0 0 0 0 0 0 0 0 0 0 0 0 0 0 0 0 0 0 0 0 0 0
11.7094 3.98157e-05 1.73014e-05 2.25143e-05 0.565464 0.834787 0 0 0 0 0 0 0 0 0 0 0 0 0 0 0 0 0 0 0 0 0 0 0 0 0 0 0 0 0 0 0 0 0 0 0 0 0 0 0 0 0 0
12.3105 3.98893e-05 1.75718e-05 2.23175e-05 0.559487 0.837587 0 0 0 0 0 0 0 0 0 0 0 0 0 0 0 0 0 0 0 0 0 0 0 0 0 0 0 0 0 0 0 0 0 0 0 0 0 0 0 0 0 0
12.9424 3.99669e-05 1.79353e-05 2.20317e-05 0.551247 0.844149 0 0 0 0 0 0 0 0 0 0 0 0 0 0 0 0 0 0 0 0 0 0 0 0 0 0 0 0 0 0 0 0 0 0 0 0 0 0 0 0 0 0
13.6067 4.00803e-05 1.84264e-05 2.16539e-05 0.540263 0.855107 0 0 0 0 0 0 0 0 0 0 0 0 0 0 0 0 0 0 0 0 0 0 0 0 0 0 0 0 0 0 0 0 0 0 0 0 0 0 1.4013e-45 0 2.8026e-45 0
14.3051 4.02293e-05 1.90147e-05 2.12146e-05 0.527343 0.869287 0 0 0 0 0 0 0 0 0 0 0 0 0 0 0 0 0 0 0 0 0 0 0 0 0 0 1.4013e-45 0 2.8026e-45 0 8.40779e-45 0 1.96182e-44 0 4.62428e-44 0 1.02295e-43 0 2.158e-43 0 4.41409e-43 0
15.0394 4.03624e-05 1.93816e-05 2.09808e-05 0.519811 0.875749 0 0 0 0 0 0 0 0 0 0 0 0 0 0 0 0 0 0 1.4013e-45 0 5.60519e-45 0 2.24208e-44 0 7.42688e-44 0 2.25609e-43 0 6.08164e-43 0 1.53442e-42 0 3.62376e-42 0 8.03364e-42 0 1.7037e-41 0 3.46177e-41 0 6.85809e-41 0
15.8114 4.04953e-05 1.95185e-05 2.09768e-05 0.518006 0.873926 0 0 0 0 0 0 0 0 0 0 0 0 1.4013e-45 0 9.80909e-45 0 5.88545e-44 0 2.85865e-43 0 1.14906e-42 0 4.02733e-42 0 1.23735e-41 0 3.53029e-41 0 9.08714e-41 0 2.19054e-40 0 4.95967e-40 0 1.05753e-39 0 2.16182e-39 0 4.24335e-39 0 8.13052e-39 0
16.623 4.07086e-05 1.94871e-05 2.12215e-05 0.521303 0.864883 0 0 0 0 0 0 0 0 1.4013e-45 0 1.96182e-44 0 2.32616e-43 0 1.7292e-42 0 9.61571e-42 0 4.32889e-41 0 1.6301e-40 0 5.37237e-40 0 1.56237e-39 0 4.23538e-39 0 1.04101e-38 0 2.40395e-38 0 5.22997e-38 0 1.07469e-37 0 2.12153e-37 0 4.02938e-37 0 7.47927e-37 0
17.4762 4.10737e-05 1.93615e-05 2.17123e-05 0.528617 0.850093 0 0 0 0 0 0 4.2039e-45 0 1.9478e-43 0 3.43879e-42 0 3.51137e-41 0 2.36229e-40 0 1.20832e-39 0 5.05452e-39 0 1.78404e-38 0 5.5471e-38 0 1.53126e-37 0 3.95377e-37 0 9.30048e-37 0 2.06172e-36 0 4.31839e-36 0 8.56713e-36 0 1.63598e-35 0 3.01139e-35 0 5.42341e-35 0
18.3733 4.15551e-05 1.92116e-05 2.23435e-05 0.537685 0.832546 0 0 0 0 2.8026e-45 0 7.44089e-43 0 2.91148e-41 0 4.48131e-40 0 4.08522e-39 0 2.50413e-38 0 1.18276e-37 0 4.6137e-37 0 1.5312e-36 0 4.50443e-36 0 1.18329e-35 0 2.91703e-35 0 6.58107e-35 0 1.40327e-34 0 2.83502e-34 0 5.43931e-34 0 1.0064e-33 0 1.79813e-33 0 3.14667e-33 0
19.3164 4.20305e-05 1.90907e-05 2.29397e-05 0.545788 0.815961 0 0 0 0 6.22177e-43 0 1.03407e-40 0 3.38052e-39 0 4.55308e-38 0 3.72609e-37 0 2.09049e-36 0 9.15309e-36 0 3.34087e-35 0 1.0457e-34 0 2.91833e-34 0 7.31319e-34 0 1.72514e-33 0 3.74048e-33 0 7.68628e-33 0 1.50045e-32 0 2.78863e-32 0 5.00692e-32 0 8.69591e-32 0 1.48074e-31 0
20.3079 4.23858e-05 1.90674e-05 2.33184e-05 0.550147 0.803893 0 0 1.12104e-44 0 8.64419e-41 0 1.12025e-38 0 3.08889e-37 0 3.66425e-36 0 2.7062e-35 0 1.39568e-34 0 5.68583e-34 0 1.94819e-33 0 5.76745e-33 0 1.53091e-32 0 3.66812e-32 0 8.29779e-32 0 1.73243e-31 0 3.43695e-31 0 6.49373e-31 0 1.17091e-30 0 2.04311e-30 0 3.45407e-30 0 5.73073e-30 0
