# 2e-05 2 10 : grain size, compostion index, size index
# Heating and cooling timescale: 0.0192296 5.02299e+06
# Ratio of heating to cooling to determine stochastic cutoff: 100
# Equilibrium emission is recorded even for those grains in the stochastic regime.
# Emission spectrum was computed for: 
# Type: ISRF
# Scales: 0.25 0.5 1 1.5 2 2.5 3 3.5 4 4.5 5 5.5 6 6.5 7 7.5 8 8.5 9 9.5 10
# StochasticallyHeated: 0 0 0 0 0 0 0 0 0 0 0 0 0 0 0 0 0 0 0 0 0
# Temperature: -1
# Wavelength  CExt  CAbs  CSca  Albedo G EqEm1 StEm1 EqEm2 StEm2 EqEm3 StEm3 EqEm4 StEm4 EqEm5 StEm5 EqEm6 StEm6 EqEm7 StEm7 EqEm8 StEm8 EqEm9 StEm9 EqEm10 StEm10 EqEm11 StEm11 EqEm12 StEm12 EqEm13 StEm13 EqEm14 StEm14 EqEm15 StEm15 EqEm16 StEm16 EqEm17 StEm17 EqEm18 StEm18 EqEm19 StEm19 EqEm20 StEm20 EqEm21 StEm21
0.05 2.7619e-09 1.16931e-09 1.5926e-09 0.57663 0.873591 0 0 0 0 0 0 0 0 0 0 0 0 0 0 0 0 0 0 0 0 0 0 0 0 0 0 0 0 0 0 0 0 0 0 0 0 0 0 0 0 0 0
0.0525665 2.77054e-09 1.17614e-09 1.5944e-09 0.575484 0.873376 0 0 0 0 0 0 0 0 0 0 0 0 0 0 0 0 0 0 0 0 0 0 0 0 0 0 0 0 0 0 0 0 0 0 0 0 0 0 0 0 0 0
0.0552647 2.77965e-09 1.18332e-09 1.59633e-09 0.574292 0.873151 0 0 0 0 0 0 0 0 0 0 0 0 0 0 0 0 0 0 0 0 0 0 0 0 0 0 0 0 0 0 0 0 0 0 0 0 0 0 0 0 0 0
0.0581015 2.78913e-09 1.19087e-09 1.59826e-09 0.573032 0.872907 0 0 0 0 0 0 0 0 0 0 0 0 0 0 0 0 0 0 0 0 0 0 0 0 0 0 0 0 0 0 0 0 0 0 0 0 0 0 0 0 0 0
0.0610839 2.79925e-09 1.19881e-09 1.60044e-09 0.57174 0.872661 0 0 0 0 0 0 0 0 0 0 0 0 0 0 0 0 0 0 0 0 0 0 0 0 0 0 0 0 0 0 0 0 0 0 0 0 0 0 0 0 0 0
0.0642193 2.80978e-09 1.20715e-09 1.60263e-09 0.570376 0.872405 0 0 0 0 0 0 0 0 0 0 0 0 0 0 0 0 0 0 0 0 0 0 0 0 0 0 0 0 0 0 0 0 0 0 0 0 0 0 0 0 0 0
0.0675157 2.82088e-09 1.21593e-09 1.60495e-09 0.568954 0.872127 0 0 0 0 0 0 0 0 0 0 0 0 0 0 0 0 0 0 0 0 0 0 0 0 0 0 0 0 0 0 0 0 0 0 0 0 0 0 0 0 0 0
0.0709813 2.83257e-09 1.22515e-09 1.60742e-09 0.567476 0.871832 0 0 0 0 0 0 0 0 0 0 0 0 0 0 0 0 0 0 0 0 0 0 0 0 0 0 0 0 0 0 0 0 0 0 0 0 0 0 0 0 0 0
0.0746248 2.84484e-09 1.23485e-09 1.60999e-09 0.565935 0.871533 0 0 0 0 0 0 0 0 0 0 0 0 0 0 0 0 0 0 0 0 0 0 0 0 0 0 0 0 0 0 0 0 0 0 0 0 0 0 0 0 0 0
0.0784553 2.85773e-09 1.24504e-09 1.6127e-09 0.564327 0.871212 0 0 0 0 0 0 0 0 0 0 0 0 0 0 0 0 0 0 0 0 0 0 0 0 0 0 0 0 0 0 0 0 0 0 0 0 0 0 0 0 0 0
0.0824824 2.87135e-09 1.25578e-09 1.61558e-09 0.562653 0.870874 0 0 0 0 0 0 0 0 0 0 0 0 0 0 0 0 0 0 0 0 0 0 0 0 0 0 0 0 0 0 0 0 0 0 0 0 0 0 0 0 0 0
0.0867162 2.88557e-09 1.26703e-09 1.61854e-09 0.560908 0.870521 0 0 0 0 0 0 0 0 0 0 0 0 0 0 0 0 0 0 0 0 0 0 0 0 0 0 0 0 0 0 0 0 0 0 0 0 0 0 0 0 0 0
0.0911674 2.90063e-09 1.27888e-09 1.62175e-09 0.559103 0.870147 0 0 0 0 0 0 0 0 0 0 0 0 0 0 0 0 0 0 0 0 0 0 0 0 0 0 0 0 0 0 0 0 0 0 0 0 0 0 0 0 0 0
0.095847 2.91636e-09 1.29131e-09 1.62505e-09 0.557217 0.869757 0 0 0 0 0 0 0 0 0 0 0 0 0 0 0 0 0 0 0 0 0 0 0 0 0 0 0 0 0 0 0 0 0 0 0 0 0 0 0 0 0 0
0.100767 2.93291e-09 1.30439e-09 1.62852e-09 0.555258 0.869348 0 0 0 0 0 0 0 0 0 0 0 0 0 0 0 0 0 0 0 0 0 0 0 0 0 0 0 0 0 0 0 0 0 0 0 0 0 0 0 0 0 0
0.105939 2.95041e-09 1.31819e-09 1.63222e-09 0.553218 0.868913 0 0 0 0 0 0 0 0 0 0 0 0 0 0 0 0 0 0 0 0 0 0 0 0 0 0 0 0 0 0 0 0 0 0 0 0 0 0 0 0 0 0
0.111377 2.96877e-09 1.3327e-09 1.63607e-09 0.551093 0.868462 0 0 0 0 0 0 0 0 0 0 0 0 0 0 0 0 0 0 0 0 0 0 0 0 0 0 0 0 0 0 0 0 0 0 0 0 0 0 0 0 0 0
0.117094 2.98795e-09 1.34788e-09 1.64006e-09 0.548893 0.867981 0 0 0 0 0 0 0 0 0 0 0 0 0 0 0 0 0 0 0 0 0 0 0 0 0 0 0 0 0 0 0 0 0 0 0 0 0 0 0 0 0 0
0.123105 3.00812e-09 1.36381e-09 1.64431e-09 0.546623 0.86748 0 0 0 0 0 0 0 0 0 0 0 0 0 0 0 0 0 0 0 0 0 0 0 0 0 0 0 0 0 0 0 0 0 0 0 0 0 0 0 0 0 0
0.129424 3.02951e-09 1.3807e-09 1.64882e-09 0.544251 0.866948 0 0 0 0 0 0 0 0 0 0 0 0 0 0 0 0 0 0 0 0 0 0 0 0 0 0 0 0 0 0 0 0 0 0 0 0 0 0 0 0 0 0
0.136067 3.05192e-09 1.39835e-09 1.65357e-09 0.541814 0.866394 0 0 0 0 0 0 0 0 0 0 0 0 0 0 0 0 0 0 0 0 0 0 0 0 0 0 0 0 0 0 0 0 0 0 0 0 0 0 0 0 0 0
0.143051 3.07543e-09 1.41695e-09 1.65848e-09 0.539268 0.865809 0 0 0 0 0 0 0 0 0 0 0 0 0 0 0 0 0 0 0 0 0 0 0 0 0 0 0 0 0 0 0 0 0 0 0 0 0 0 0 0 0 0
0.150394 3.10011e-09 1.43645e-09 1.66366e-09 0.536646 0.8652 0 0 0 0 0 0 0 0 0 0 0 0 0 0 0 0 0 0 0 0 0 0 0 0 0 0 0 0 0 0 0 0 0 0 0 0 0 0 0 0 0 0
0.158114 3.12614e-09 1.45703e-09 1.66911e-09 0.53392 0.864551 0 0 0 0 0 0 0 0 0 0 0 0 0 0 0 0 0 0 0 0 0 0 0 0 0 0 0 0 0 0 0 0 0 0 0 0 0 0 0 0 0 0
0.16623 3.15354e-09 1.47864e-09 1.67491e-09 0.531119 0.863875 0 0 0 0 0 0 0 0 0 0 0 0 0 0 0 0 0 0 0 0 0 0 0 0 0 0 0 0 0 0 0 0 0 0 0 0 0 0 0 0 0 0
0.174762 3.18221e-09 1.50132e-09 1.68088e-09 0.528213 0.863159 0 0 0 0 0 0 0 0 0 0 0 0 0 0 0 0 0 0 0 0 0 0 0 0 0 0 0 0 0 0 0 0 0 0 0 0 0 0 0 0 0 0
0.183733 3.21248e-09 1.52522e-09 1.68726e-09 0.525221 0.862416 0 0 0 0 0 0 0 0 0 0 0 0 0 0 0 0 0 0 0 0 0 0 0 0 0 0 0 0 0 0 0 0 0 0 0 0 0 0 0 0 0 0
0.193164 3.24423e-09 1.55028e-09 1.69395e-09 0.522142 0.861622 0 0 0 0 0 0 0 0 0 0 0 0 0 0 0 0 0 0 0 0 0 0 0 0 0 0 0 0 0 0 0 0 0 0 0 0 0 0 0 0 0 0
0.203079 3.27539e-09 1.57377e-09 1.70162e-09 0.519516 0.859209 0 0 0 0 0 0 0 0 0 0 0 0 0 0 0 0 0 0 0 0 0 0 0 0 0 0 0 0 0 0 0 0 0 0 0 0 0 0 0 0 0 0
0.213503 3.29754e-09 1.58525e-09 1.71229e-09 0.519264 0.849473 0 0 0 0 0 0 0 0 0 0 0 0 0 0 0 0 0 0 0 0 0 0 0 0 0 0 0 0 0 0 0 0 0 0 0 0 0 0 0 0 0 0
0.224463 3.32052e-09 1.59692e-09 1.7236e-09 0.519076 0.839045 0 0 0 0 0 0 0 0 0 0 0 0 0 0 0 0 0 0 0 0 0 0 0 0 0 0 0 0 0 0 0 0 0 0 0 0 0 0 0 0 0 0
0.235984 3.34455e-09 1.60913e-09 1.73543e-09 0.518881 0.828075 0 0 0 0 0 0 0 0 0 0 0 0 0 0 0 0 0 0 0 0 0 0 0 0 0 0 0 0 0 0 0 0 0 0 0 0 0 0 0 0 0 0
0.248097 3.3699e-09 1.62199e-09 1.7479e-09 0.518682 0.816545 0 0 0 0 0 0 0 0 0 0 0 0 0 0 0 0 0 0 0 0 0 0 0 0 0 0 0 0 0 0 0 0 0 0 0 0 0 0 0 0 0 0
0.260832 3.39658e-09 1.63553e-09 1.76105e-09 0.518477 0.804425 0 0 0 0 0 0 0 0 0 0 0 0 0 0 0 0 0 0 0 0 0 0 0 0 0 0 0 0 0 0 0 0 0 0 0 0 0 0 0 0 0 0
0.274221 3.42467e-09 1.64983e-09 1.77484e-09 0.518252 0.791682 0 0 0 0 0 0 0 0 0 0 0 0 0 0 0 0 0 0 0 0 0 0 0 0 0 0 0 0 0 0 0 0 0 0 0 0 0 0 0 0 0 0
0.288297 3.45412e-09 1.66481e-09 1.78931e-09 0.518023 0.778276 0 0 0 0 0 0 0 0 0 0 0 0 0 0 0 0 0 0 0 0 0 0 0 0 0 0 0 0 0 0 0 0 0 0 0 0 0 0 0 0 0 0
0.303095 3.49104e-09 1.67813e-09 1.81292e-09 0.519305 0.764856 0 0 0 0 0 0 0 0 0 0 0 0 0 0 0 0 0 0 0 0 0 0 0 0 0 0 0 0 0 0 0 0 0 0 0 0 0 0 0 0 0 0
0.318653 3.60323e-09 1.66188e-09 1.94136e-09 0.538782 0.758925 0 0 0 0 0 0 0 0 0 0 0 0 0 0 0 0 0 0 0 0 0 0 0 0 0 0 0 0 0 0 0 0 0 0 0 0 0 0 0 0 0 0
0.335009 3.72645e-09 1.64259e-09 2.08385e-09 0.559206 0.753291 0 0 0 0 0 0 0 0 0 0 0 0 0 0 0 0 0 0 0 0 0 0 0 0 0 0 0 0 0 0 0 0 0 0 0 0 0 0 0 0 0 0
0.352205 3.85608e-09 1.62233e-09 2.23375e-09 0.57928 0.747367 0 0 0 0 0 0 0 0 0 0 0 0 0 0 0 0 0 0 0 0 0 0 0 0 0 0 0 0 0 0 0 0 0 0 0 0 0 0 0 0 0 0
0.370284 3.99235e-09 1.60109e-09 2.39127e-09 0.598962 0.741141 0 0 0 0 0 0 0 0 0 0 0 0 0 0 0 0 0 0 0 0 0 0 0 0 0 0 0 0 0 0 0 0 0 0 0 0 0 0 0 0 0 0
0.389291 4.13564e-09 1.57871e-09 2.55693e-09 0.618267 0.734588 0 0 0 0 0 0 0 0 0 0 0 0 0 0 0 0 0 0 0 0 0 0 0 0 0 0 0 0 0 0 0 0 0 0 0 0 0 0 0 0 0 0
0.409273 4.28348e-09 1.55598e-09 2.7275e-09 0.636748 0.728345 0 0 0 0 0 0 0 0 0 0 0 0 0 0 0 0 0 0 0 0 0 0 0 0 0 0 0 0 0 0 0 0 0 0 0 0 0 0 0 0 0 0
0.430281 4.43026e-09 1.53484e-09 2.89543e-09 0.653557 0.723886 0 0 0 0 0 0 0 0 0 0 0 0 0 0 0 0 0 0 0 0 0 0 0 0 0 0 0 0 0 0 0 0 0 0 0 0 0 0 0 0 0 0
0.452368 4.58435e-09 1.5125e-09 3.07184e-09 0.670072 0.719207 0 0 0 0 0 0 0 0 0 0 0 0 0 0 0 0 0 0 0 0 0 0 0 0 0 0 0 0 0 0 0 0 0 0 0 0 0 0 0 0 0 0
0.475588 4.74649e-09 1.48911e-09 3.25738e-09 0.68627 0.714279 0 0 0 0 0 0 0 0 0 0 0 0 0 0 0 0 0 0 0 0 0 0 0 0 0 0 0 0 0 0 0 0 0 0 0 0 0 0 0 0 0 0
0.5 4.9166e-09 1.46449e-09 3.45212e-09 0.702135 0.709079 0 0 0 0 0 0 0 0 0 0 0 0 0 0 0 0 0 0 0 0 0 0 0 0 0 0 0 0 0 0 0 0 0 0 0 0 0 0 0 0 0 0
0.525665 4.95072e-09 1.42027e-09 3.53045e-09 0.713119 0.696407 0 0 0 0 0 0 0 0 0 0 0 0 0 0 0 0 0 0 0 0 0 0 0 0 0 0 0 0 0 0 0 0 0 0 0 0 0 0 0 0 0 0
0.552648 4.94078e-09 1.36802e-09 3.57275e-09 0.723115 0.680797 0 0 0 0 0 0 0 0 0 0 0 0 0 0 0 0 0 0 0 0 0 0 0 0 0 0 0 0 0 0 0 0 0 0 0 0 0 0 0 0 0 0
0.581015 4.93035e-09 1.31305e-09 3.6173e-09 0.73368 0.664388 0 0 0 0 0 0 0 0 0 0 0 0 0 0 0 0 0 0 0 0 0 0 0 0 0 0 0 0 0 0 0 0 0 0 0 0 0 0 0 0 0 0
0.610839 4.90384e-09 1.25641e-09 3.64743e-09 0.743791 0.648351 0 0 0 0 0 0 0 0 0 0 0 0 0 0 0 0 0 0 0 0 0 0 0 0 0 0 0 0 0 0 0 0 0 0 0 0 0 0 0 0 0 0
0.642193 4.75288e-09 1.20599e-09 3.54689e-09 0.746261 0.641133 0 0 0 0 0 0 0 0 0 0 0 0 0 0 0 0 0 0 0 0 0 0 0 0 0 0 0 0 0 0 0 0 0 0 0 0 0 0 0 0 0 0
0.675157 4.59415e-09 1.15297e-09 3.44118e-09 0.749035 0.633544 0 0 0 0 0 0 0 0 0 0 0 0 0 0 0 0 0 0 0 0 0 0 0 0 0 0 0 0 0 0 0 0 0 0 0 0 0 0 0 0 0 0
0.709813 4.41721e-09 1.09628e-09 3.32094e-09 0.751817 0.625121 0 0 0 0 0 0 0 0 0 0 0 0 0 0 0 0 0 0 0 0 0 0 0 0 0 0 0 0 0 0 0 0 0 0 0 0 0 0 0 0 0 0
0.746248 4.14093e-09 1.02818e-09 3.11275e-09 0.751703 0.612251 0 0 0 0 0 0 0 0 0 0 0 0 0 0 0 0 0 0 0 0 0 0 0 0 0 0 0 0 0 0 0 0 0 0 0 0 0 0 0 0 0 0
0.784553 3.84297e-09 9.55887e-10 2.88708e-09 0.751263 0.598391 0 0 0 0 0 0 0 0 0 0 0 0 0 0 0 0 0 0 0 0 0 0 0 0 0 0 0 0 0 0 0 0 0 0 0 0 0 0 0 0 0 0
0.824824 3.50412e-09 8.76281e-10 2.62784e-09 0.749928 0.581439 0 0 0 0 0 0 0 0 0 0 0 0 0 0 0 0 0 0 0 0 0 0 0 0 0 0 0 0 0 0 0 0 0 0 0 0 0 0 0 0 0 0
0.867162 3.10029e-09 7.85891e-10 2.3144e-09 0.746511 0.559204 0 0 0 0 0 0 0 0 0 0 0 0 0 0 0 0 0 0 0 0 0 0 0 0 0 0 0 0 0 0 0 0 0 0 0 0 0 0 0 0 0 0
0.911674 2.67853e-09 6.91271e-10 1.98726e-09 0.741922 0.535413 0 0 0 0 0 0 0 0 0 0 0 0 0 0 0 0 0 0 0 0 0 0 0 0 0 0 0 0 0 0 0 0 0 0 0 0 0 0 0 0 0 0
0.95847 2.33007e-09 6.05229e-10 1.72484e-09 0.740252 0.496692 0 0 0 0 0 0 0 0 0 0 0 0 0 0 0 0 0 0 0 0 0 0 0 0 0 0 0 0 0 0 0 0 0 0 0 0 0 0 0 0 0 0
1.00767 1.96793e-09 5.15505e-10 1.45242e-09 0.738046 0.455514 0 0 0 0 0 0 0 0 0 0 0 0 0 0 0 0 0 0 0 0 0 0 0 0 0 0 0 0 0 0 0 0 0 0 0 0 0 0 0 0 0 0
1.05939 1.70612e-09 4.51134e-10 1.25498e-09 0.735579 0.412696 0 0 0 0 0 0 0 0 0 0 0 0 0 0 0 0 0 0 0 0 0 0 0 0 0 0 0 0 0 0 0 0 0 0 0 0 0 0 0 0 0 0
1.11377 1.45093e-09 3.88672e-10 1.06226e-09 0.732122 0.368215 0 0 0 0 0 0 0 0 0 0 0 0 0 0 0 0 0 0 0 0 0 0 0 0 0 0 0 0 0 0 0 0 0 0 0 0 0 0 0 0 0 0
1.17094 1.25836e-09 3.44055e-10 9.14303e-10 0.726584 0.330792 0 0 0 0 0 0 0 0 0 0 0 0 0 0 0 0 0 0 0 0 0 0 0 0 0 0 0 0 0 0 0 0 0 0 0 0 0 0 0 0 0 0
1.23105 1.07426e-09 3.01968e-10 7.72295e-10 0.718907 0.294583 0 0 0 0 0 0 0 0 0 0 0 0 0 0 0 0 0 0 0 0 0 0 0 0 0 0 0 0 0 0 0 0 0 0 0 0 0 0 0 0 0 0
1.29424 9.22249e-10 2.68326e-10 6.53923e-10 0.709053 0.264423 0 0 0 0 0 0 0 0 0 0 0 0 0 0 0 0 0 0 0 0 0 0 0 0 0 0 0 0 0 0 0 0 0 0 0 0 0 0 0 0 0 0
1.36067 7.88277e-10 2.38426e-10 5.49851e-10 0.697535 0.237836 0 0 0 0 0 0 0 0 0 0 0 0 0 0 0 0 0 0 0 0 0 0 0 0 0 0 0 0 0 0 0 0 0 0 0 0 0 0 0 0 0 0
1.43051 6.6737e-10 2.11048e-10 4.56322e-10 0.683762 0.213784 0 0 0 0 0 0 0 0 0 0 0 0 0 0 0 0 0 0 0 0 0 0 0 0 0 0 0 0 0 0 0 0 0 0 0 0 0 0 0 0 0 0
1.50394 5.6633e-10 1.86979e-10 3.79351e-10 0.669841 0.193408 0 0 0 0 0 0 0 0 0 0 0 0 0 0 0 0 0 0 0 0 0 0 0 0 0 0 0 0 0 0 0 0 0 0 0 0 0 0 0 0 0 0
1.58114 4.79138e-10 1.646e-10 3.14538e-10 0.656467 0.175368 0 0 0 0 0 0 0 0 0 0 0 0 0 0 0 0 0 0 0 0 0 0 0 0 0 0 0 0 0 0 0 0 0 0 0 0 0 0 0 0 0 0
1.6623 4.02276e-10 1.43638e-10 2.58638e-10 0.642937 0.15898 0 0 0 0 0 0 0 0 0 0 0 0 0 0 0 0 0 0 0 0 0 0 0 0 0 0 0 0 0 0 0 0 0 0 0 0 0 0 0 0 0 0
1.74763 3.36083e-10 1.24601e-10 2.11481e-10 0.629254 0.144203 0 0 0 0 0 0 0 0 0 0 0 0 0 0 0 0 0 0 0 0 0 0 0 0 0 0 0 0 0 0 0 0 0 0 0 0 0 0 0 0 0 0
1.83733 2.80704e-10 1.08187e-10 1.72517e-10 0.614587 0.130965 0 0 0 0 0 0 0 0 0 0 0 0 0 0 0 0 0 0 0 0 0 0 0 0 0 0 0 0 0 0 0 0 0 0 0 0 0 0 0 0 0 0
1.93164 2.34779e-10 9.45345e-11 1.40245e-10 0.597347 0.119032 0 0 0 0 0 0 0 0 0 0 0 0 0 0 0 0 0 0 0 0 0 0 0 0 0 0 0 0 0 0 0 0 0 0 0 0 0 0 0 0 0 0
2.03079 1.97641e-10 8.36305e-11 1.1401e-10 0.576856 0.1082 0 0 0 0 0 0 0 0 0 0 0 0 0 0 0 0 0 0 0 0 0 0 0 0 0 0 0 0 0 0 0 0 0 0 0 0 0 0 0 0 0 0
2.13503 1.6662e-10 7.38416e-11 9.27784e-11 0.556826 0.0983989 0 0 0 0 0 0 0 0 0 0 0 0 0 0 0 0 0 0 0 0 0 0 0 0 0 0 0 0 0 0 0 0 0 0 0 0 0 0 0 0 0 0
2.24463 1.42702e-10 6.73058e-11 7.53967e-11 0.528349 0.0894867 0 0 0 0 0 0 0 0 0 0 0 0 0 0 0 0 0 0 0 0 0 0 0 0 0 0 0 0 0 0 0 0 0 0 0 0 0 0 0 0 0 0
2.35984 1.23708e-10 6.23032e-11 6.14046e-11 0.496368 0.0813921 0 0 0 0 0 0 0 0 0 0 0 0 0 0 0 0 0 0 0 0 0 0 0 0 0 0 0 0 0 0 0 0 0 0 0 0 0 0 0 0 0 0
2.48097 1.07285e-10 5.72412e-11 5.00434e-11 0.466455 0.0740074 0 0 0 0 0 0 0 0 0 0 0 0 0 0 0 0 0 0 0 0 0 0 0 0 0 0 0 0 0 0 0 0 0 0 0 0 0 0 0 0 0 0
2.60832 9.33178e-11 5.25972e-11 4.07206e-11 0.436365 0.0672471 0 0 0 0 0 0 0 0 0 0 0 0 0 0 0 0 0 0 0 0 0 0 0 0 0 0 0 0 0 0 0 0 0 0 0 0 0 0 0 0 0 0
2.74221 8.16289e-11 4.84631e-11 3.31658e-11 0.406299 0.0611107 0 0 0 0 0 0 0 0 0 0 0 0 0 0 0 0 0 0 0 0 0 0 0 0 0 0 0 0 0 0 0 0 0 0 0 0 0 0 0 0 0 0
2.88297 7.15593e-11 4.45414e-11 2.7018e-11 0.377561 0.0555644 0 0 0 0 0 0 0 0 0 0 0 0 0 0 0 0 0 0 0 0 0 0 0 0 0 0 0 0 0 0 0 0 0 0 0 0 0 0 0 0 0 0
3.03095 6.28811e-11 4.09132e-11 2.19679e-11 0.349356 0.050437 0 0 0 0 0 0 0 0 0 0 0 0 0 0 0 0 0 0 0 0 0 0 0 0 0 0 0 0 0 0 0 0 0 0 0 0 0 0 0 0 0 0
3.18653 5.55354e-11 3.76213e-11 1.79141e-11 0.322571 0.0458067 0 0 0 0 0 0 0 0 0 0 0 0 0 0 0 0 0 0 0 0 0 0 0 0 0 0 0 0 0 0 0 0 0 0 0 0 0 0 0 0 0 0
3.35009 4.9082e-11 3.45195e-11 1.45625e-11 0.296697 0.041555 0 0 0 0 0 0 0 0 0 0 0 0 0 0 0 0 0 0 0 0 0 0 0 0 0 0 0 0 0 0 0 0 0 0 0 0 0 0 0 0 0 0
3.52205 4.3493e-11 3.16222e-11 1.18708e-11 0.272935 0.0377188 0 0 0 0 0 0 0 0 0 0 0 0 0 0 0 0 0 0 0 0 0 0 0 0 0 0 0 0 0 0 0 0 0 0 0 0 0 0 0 0 0 0
3.70284 3.86105e-11 2.89533e-11 9.65712e-12 0.250117 0.0342162 0 0 0 0 0 0 0 0 0 0 0 0 0 0 0 0 0 0 0 0 0 0 0 0 0 0 0 0 0 0 0 0 0 0 0 0 0 0 0 0 0 0
3.89291 3.44384e-11 2.65904e-11 7.84797e-12 0.227884 0.0310264 0 0 0 0 0 0 0 0 0 0 0 0 0 0 0 0 0 0 0 0 0 0 0 0 0 0 0 0 0 0 0 0 0 0 0 0 0 0 0 0 0 0
4.09273 3.08566e-11 2.44831e-11 6.37343e-12 0.20655 0.0281248 0 0 0 0 0 0 0 0 0 0 0 0 0 0 0 0 0 0 0 0 0 0 0 0 0 0 0 0 0 0 0 0 0 0 0 0 0 0 0 0 0 0
4.30281 2.77853e-11 2.26134e-11 5.17192e-12 0.186139 0.0254894 0 0 0 0 0 0 0 0 0 0 0 0 0 0 0 0 0 0 0 0 0 0 0 0 0 0 0 0 0 0 0 0 0 0 0 0 0 0 0 0 0 0
4.52368 2.51861e-11 2.09943e-11 4.19179e-12 0.166432 0.0230928 0 0 0 0 0 0 0 0 0 0 0 0 0 0 0 0 0 0 0 0 0 0 0 0 0 0 0 0 0 0 0 0 0 0 0 0 0 0 0 0 0 0
4.75588 2.29951e-11 1.96061e-11 3.38898e-12 0.147379 0.0209102 0 0 0 0 0 0 0 0 0 0 0 0 0 0 0 0 0 0 0 0 0 0 0 0 0 0 0 0 0 0 0 0 0 0 0 0 0 0 0 0 0 0
5 2.11974e-11 1.84659e-11 2.73151e-12 0.128861 0.0189279 0 0 0 0 0 0 0 0 0 0 0 0 0 0 0 0 0 0 0 0 0 0 0 0 0 0 0 0 0 0 0 0 0 0 0 0 0 0 0 0 0 0
5.25665 2.01351e-11 1.79514e-11 2.18367e-12 0.108451 0.0171121 0 0 0 0 0 0 0 0 0 0 0 0 0 0 0 0 0 0 0 0 0 0 0 0 0 0 0 0 0 0 0 0 0 0 0 0 0 0 0 0 0 0
5.52648 1.94373e-11 1.76808e-11 1.75644e-12 0.0903647 0.0155222 0 0 0 0 0 0 0 0 0 0 0 0 0 0 0 0 0 0 0 0 0 0 0 0 0 0 0 0 0 0 0 0 0 0 0 0 0 0 0 0 0 0
5.81015 1.93415e-11 1.79363e-11 1.40517e-12 0.0726506 0.0140357 0 0 0 0 0 0 0 0 0 0 0 0 0 0 0 0 0 0 0 0 0 0 0 0 0 0 0 0 0 0 0 0 0 0 0 0 0 0 0 0 0 0
6.10839 2.10472e-11 1.99219e-11 1.12528e-12 0.0534645 0.0126928 0 0 0 0 0 0 0 0 0 0 0 0 0 0 0 0 0 0 0 0 0 0 0 0 0 0 0 0 0 0 0 0 0 0 0 0 0 0 0 0 1.4013e-45 0
6.42193 2.23685e-11 2.14704e-11 8.98167e-13 0.0401531 0.0114747 0 0 0 0 0 0 0 0 0 0 0 0 0 0 0 0 0 0 0 0 0 0 0 0 0 0 0 0 0 0 1.4013e-45 0 4.2039e-45 0 1.26117e-44 0 3.08286e-44 0 7.84727e-44 0 1.86373e-43 0
6.75157 2.4776e-11 2.4056e-11 7.19966e-13 0.0290591 0.0103787 0 0 0 0 0 0 0 0 0 0 0 0 0 0 0 0 0 0 0 0 0 0 1.4013e-45 0 4.2039e-45 0 1.82169e-44 0 6.02558e-44 0 1.9478e-43 0 5.52112e-43 0 1.53022e-42 0 3.76809e-42 0 9.12105e-42 0 2.07154e-41 0
7.09813 2.61085e-11 2.55452e-11 5.63298e-13 0.0215753 0.00936196 0 0 0 0 0 0 0 0 0 0 0 0 0 0 0 0 0 0 4.2039e-45 0 2.66247e-44 0 1.34525e-43 0 5.59118e-43 0 2.06411e-42 0 6.64215e-42 0 2.02628e-41 0 5.46198e-41 0 1.44223e-40 0 3.39711e-40 0 7.87657e-40 0 1.71853e-39 0
7.46248 2.81745e-11 2.77383e-11 4.36147e-13 0.0154802 0.00843845 0 0 0 0 0 0 0 0 0 0 0 0 0 0 8.40779e-45 0 8.54792e-44 0 5.74532e-43 0 3.1305e-42 0 1.44754e-41 0 5.61108e-41 0 1.94203e-40 0 5.90095e-40 0 1.70488e-39 0 4.37845e-39 0 1.10259e-38 0 2.49071e-38 0 5.54266e-38 0 1.16411e-37 0
7.84553 3.48433e-11 3.45063e-11 3.36986e-13 0.00967146 0.00760004 0 0 0 0 0 0 0 0 0 0 5.60519e-45 0 1.03696e-43 0 1.25556e-42 0 1.07115e-41 0 6.54168e-41 0 3.27895e-40 0 1.40688e-39 0 5.10428e-39 0 1.6627e-38 0 4.78538e-38 0 1.31278e-37 0 3.21972e-37 0 7.75049e-37 0 1.68251e-36 0 3.60075e-36 0 7.29348e-36 0
8.24824 4.64979e-11 4.62379e-11 2.59971e-13 0.00559103 0.00683636 0 0 0 0 0 0 0 0 2.10195e-44 0 7.91734e-43 0 1.38658e-41 0 1.47885e-40 0 1.13624e-39 0 6.35225e-39 0 2.94301e-38 0 1.17607e-37 0 4.00666e-37 0 1.23203e-36 0 3.36751e-36 0 8.79398e-36 0 2.06438e-35 0 4.76072e-35 0 9.95099e-35 0 2.05195e-34 0 4.01553e-34 0
8.67162 6.37295e-11 6.35187e-11 2.10753e-13 0.003307 0.00615786 0 0 0 0 0 0 2.94273e-44 0 3.07165e-42 0 9.7969e-41 0 1.49208e-39 0 1.41763e-38 0 9.85997e-38 0 5.06804e-37 0 2.17868e-36 0 8.13691e-36 0 2.61107e-35 0 7.60047e-35 0 1.9779e-34 0 4.92866e-34 0 1.10978e-33 0 2.457e-33 0 4.9541e-33 0 9.86099e-33 0 1.8675e-32 0
9.11674 8.53748e-11 8.51896e-11 1.85174e-13 0.00216895 0.00555693 0 0 0 0 7.00649e-45 0 4.25714e-42 0 3.48516e-40 0 9.38573e-39 0 1.25149e-37 0 1.06527e-36 0 6.7398e-36 0 3.19816e-35 0 1.28036e-34 0 4.4839e-34 0 1.35923e-33 0 3.75542e-33 0 9.32704e-33 0 2.22284e-32 0 4.81067e-32 0 1.02452e-31 0 1.99623e-31 0 3.84211e-31 0 7.05292e-31 0
9.5847 1.02441e-10 1.02262e-10 1.79259e-13 0.00174988 0.00505166 0 0 0 0 8.87022e-43 0 4.26278e-40 0 2.81485e-38 0 6.45462e-37 0 7.58411e-36 0 5.81474e-35 0 3.36201e-34 0 1.47854e-33 0 5.53162e-33 0 1.82222e-32 0 5.23266e-32 0 1.37575e-31 0 3.2684e-31 0 7.46592e-31 0 1.55601e-30 0 3.19371e-30 0 6.02341e-30 0 1.12284e-29 0 2.00095e-29 0
10.0767 1.0714e-10 1.06962e-10 1.77821e-13 0.00165972 0.00464172 0 0 1.4013e-45 0 8.33086e-41 0 2.96079e-38 0 1.59339e-36 0 3.13557e-35 0 3.26669e-34 0 2.26747e-33 0 1.20338e-32 0 4.92304e-32 0 1.72693e-31 0 5.36716e-31 0 1.46386e-30 0 3.67129e-30 0 8.36115e-30 0 1.83442e-29 0 3.68855e-29 0 7.30959e-29 0 1.33655e-28 0 2.41689e-28 0 4.18721e-28 0
10.5939 9.93346e-11 9.91686e-11 1.65936e-13 0.00167048 0.00429352 0 0 1.69557e-43 0 5.49912e-39 0 1.46716e-36 0 6.49955e-35 0 1.10586e-33 0 1.02754e-32 0 6.48858e-32 0 3.1741e-31 0 1.21221e-30 0 3.99952e-30 0 1.17607e-29 0 3.05431e-29 0 7.3238e-29 0 1.60226e-28 0 3.38302e-28 0 6.57431e-28 0 1.26004e-27 0 2.23708e-27 0 3.92999e-27 0 6.62837e-27 0
11.1377 8.70099e-11 8.68623e-11 1.47602e-13 0.00169638 0.00397735 0 0 1.40816e-41 0 2.7508e-37 0 5.58712e-35 0 2.05688e-33 0 3.04742e-32 0 2.53959e-31 0 1.46568e-30 0 6.6351e-30 0 2.37351e-29 0 7.38771e-29 0 2.06094e-28 0 5.10867e-28 0 1.17378e-27 0 2.47162e-27 0 5.03162e-27 0 9.46598e-27 0 1.75754e-26 0 3.03411e-26 0 5.18553e-26 0 8.52559e-26 0
11.7094 7.22277e-11 7.20993e-11 1.28404e-13 0.00177776 0.00369237 2.66247e-44 0 8.76729e-40 0 1.05729e-35 0 1.65672e-33 0 5.11458e-32 0 6.64314e-31 0 4.99168e-30 0 2.64456e-29 0 1.1121e-28 0 3.73819e-28 0 1.10079e-27 0 2.92082e-27 0 6.92626e-27 0 1.52805e-26 0 3.10273e-26 0 6.10095e-26 0 1.1129e-25 0 2.00481e-25 0 3.36994e-25 0 5.61072e-25 0 9.00343e-25 0
12.3105 5.02546e-11 5.0149e-11 1.05593e-13 0.00210116 0.00342465 1.85672e-42 0 3.65989e-38 0 2.78951e-34 0 3.41517e-32 0 8.9176e-31 0 1.02198e-29 0 6.95908e-29 0 3.39864e-28 0 1.33241e-27 0 4.22134e-27 0 1.17921e-26 0 2.98333e-26 0 6.78245e-26 0 1.43962e-25 0 2.82381e-25 0 5.37219e-25 0 9.51618e-25 0 1.66572e-24 0 2.72984e-24 0 4.43328e-24 0 6.95163e-24 0
12.9424 3.04538e-11 3.03758e-11 7.79927e-14 0.00256101 0.00310028 8.84822e-41 0 1.07616e-36 0 5.30151e-33 0 5.13269e-31 0 1.14289e-29 0 1.16275e-28 0 7.20972e-28 0 3.2587e-27 0 1.19511e-26 0 3.57905e-26 0 9.50883e-26 0 2.29909e-25 0 5.02141e-25 0 1.02738e-24 0 1.94999e-24 0 3.59509e-24 0 6.19294e-24 0 1.05479e-23 0 1.68743e-23 0 2.67629e-23 0 4.1054e-23 0
