# 7.9433e-05 0 134 : grain size, compostion index, size index
# Heating and cooling timescale: 0.000331048 7.29887e+06
# Ratio of heating to cooling to determine stochastic cutoff: 100
# Equilibrium emission is recorded even for those grains in the stochastic regime.
# Emission spectrum was computed for: 
# Type: IRSF
# Scales: 0.25 0.5 1 1.5 2 2.5 3 3.5 4 4.5 5 5.5 6 6.5 7 7.5 8 8.5 9 9.5 10
# StochasticallyHeated: 0 0 0 0 0 0 0 0 0 0 0 0 0 0 0 0 0 0 0 0 0
# Temperature: -1
# Wavelength  CExt  CAbs  CSca  Albedo G EqEm1 StEm1 EqEm2 StEm2 EqEm3 StEm3 EqEm4 StEm4 EqEm5 StEm5 EqEm6 StEm6 EqEm7 StEm7 EqEm8 StEm8 EqEm9 StEm9 EqEm10 StEm10 EqEm11 StEm11 EqEm12 StEm12 EqEm13 StEm13 EqEm14 StEm14 EqEm15 StEm15 EqEm16 StEm16 EqEm17 StEm17 EqEm18 StEm18 EqEm19 StEm19 EqEm20 StEm20 EqEm21 StEm21
0.05 1.07215e-08 4.039e-09 6.68251e-09 0.623281 0.00576547 0 0 0 0 0 0 0 0 0 0 0 0 0 0 0 0 0 0 0 0 0 0 0 0 0 0 0 0 0 0 0 0 0 0 0 0 0 0 0 0 0 0
0.0525665 1.18504e-08 4.46429e-09 7.38614e-09 0.623281 0.00637255 0 0 0 0 0 0 0 0 0 0 0 0 0 0 0 0 0 0 0 0 0 0 0 0 0 0 0 0 0 0 0 0 0 0 0 0 0 0 0 0 0 0
0.0552647 1.30982e-08 4.93435e-09 8.16387e-09 0.623281 0.00704355 0 0 0 0 0 0 0 0 0 0 0 0 0 0 0 0 0 0 0 0 0 0 0 0 0 0 0 0 0 0 0 0 0 0 0 0 0 0 0 0 0 0
0.0581015 1.44774e-08 5.45392e-09 9.02348e-09 0.623281 0.0077852 0 0 0 0 0 0 0 0 0 0 0 0 0 0 0 0 0 0 0 0 0 0 0 0 0 0 0 0 0 0 0 0 0 0 0 0 0 0 0 0 0 0
0.0610839 1.60018e-08 6.02819e-09 9.97361e-09 0.623281 0.00860494 0 0 0 0 0 0 0 0 0 0 0 0 0 0 0 0 0 0 0 0 0 0 0 0 0 0 0 0 0 0 0 0 0 0 0 0 0 0 0 0 0 0
0.0642193 1.76867e-08 6.66293e-09 1.10238e-08 0.623281 0.009511 0 0 0 0 0 0 0 0 0 0 0 0 0 0 0 0 0 0 0 0 0 0 0 0 0 0 0 0 0 0 0 0 0 0 0 0 0 0 0 0 0 0
0.0675157 1.9549e-08 7.3645e-09 1.21845e-08 0.623281 0.0105125 0 0 0 0 0 0 0 0 0 0 0 0 0 0 0 0 0 0 0 0 0 0 0 0 0 0 0 0 0 0 0 0 0 0 0 0 0 0 0 0 0 0
0.0709813 2.16075e-08 8.13995e-09 1.34675e-08 0.623281 0.0116194 0 0 0 0 0 0 0 0 0 0 0 0 0 0 0 0 0 0 0 0 0 0 0 0 0 0 0 0 0 0 0 0 0 0 0 0 0 0 0 0 0 0
0.0746248 2.38826e-08 8.99704e-09 1.48856e-08 0.623281 0.0128428 0 0 0 0 0 0 0 0 0 0 0 0 0 0 0 0 0 0 0 0 0 0 0 0 0 0 0 0 0 0 0 0 0 0 0 0 0 0 0 0 0 0
0.0784553 2.63973e-08 9.94439e-09 1.64529e-08 0.623281 0.0141951 0 0 0 0 0 0 0 0 0 0 0 0 0 0 0 0 0 0 0 0 0 0 0 0 0 0 0 0 0 0 0 0 0 0 0 0 0 0 0 0 0 0
0.0824824 2.91768e-08 1.09915e-08 1.81854e-08 0.623281 0.0156898 0 0 0 0 0 0 0 0 0 0 0 0 0 0 0 0 0 0 0 0 0 0 0 0 0 0 0 0 0 0 0 0 0 0 0 0 0 0 0 0 0 0
0.0867162 3.2249e-08 1.21488e-08 2.01002e-08 0.623281 0.0173419 0 0 0 0 0 0 0 0 0 0 0 0 0 0 0 0 0 0 0 0 0 0 0 0 0 0 0 0 0 0 0 0 0 0 0 0 0 0 0 0 0 0
0.0911674 3.56447e-08 1.34281e-08 2.22167e-08 0.623281 0.0191679 0 0 0 0 0 0 0 0 0 0 0 0 0 0 0 0 0 0 0 0 0 0 0 0 0 0 0 0 0 0 0 0 0 0 0 0 0 0 0 0 0 0
0.095847 3.93979e-08 1.4842e-08 2.4556e-08 0.623281 0.0211862 0 0 0 0 0 0 0 0 0 0 0 0 0 0 0 0 0 0 0 0 0 0 0 0 0 0 0 0 0 0 0 0 0 0 0 0 0 0 0 0 0 0
0.100767 4.28745e-08 1.62774e-08 2.65972e-08 0.620349 0.0235692 0 0 0 0 0 0 0 0 0 0 0 0 0 0 0 0 0 0 0 0 0 0 0 0 0 0 0 0 0 0 0 0 0 0 0 0 0 0 0 0 0 0
0.105939 4.28422e-08 1.69682e-08 2.5874e-08 0.603937 0.0256046 0 0 0 0 0 0 0 0 0 0 0 0 0 0 0 0 0 0 0 0 0 0 0 0 0 0 0 0 0 0 0 0 0 0 0 0 0 0 0 0 0 0
0.111377 4.28986e-08 1.71546e-08 2.57439e-08 0.600112 0.0289403 0 0 0 0 0 0 0 0 0 0 0 0 0 0 0 0 0 0 0 0 0 0 0 0 0 0 0 0 0 0 0 0 0 0 0 0 0 0 0 0 0 0
0.117094 4.2871e-08 1.77394e-08 2.51316e-08 0.586214 0.0274507 0 0 0 0 0 0 0 0 0 0 0 0 0 0 0 0 0 0 0 0 0 0 0 0 0 0 0 0 0 0 0 0 0 0 0 0 0 0 0 0 0 0
0.123105 4.29069e-08 1.84409e-08 2.4466e-08 0.570212 0.0236555 0 0 0 0 0 0 0 0 0 0 0 0 0 0 0 0 0 0 0 0 0 0 0 0 0 0 0 0 0 0 0 0 0 0 0 0 0 0 0 0 0 0
0.129424 4.29841e-08 1.90025e-08 2.39816e-08 0.557918 0.0199126 0 0 0 0 0 0 0 0 0 0 0 0 0 0 0 0 0 0 0 0 0 0 0 0 0 0 0 0 0 0 0 0 0 0 0 0 0 0 0 0 0 0
0.136067 4.30655e-08 1.94641e-08 2.36013e-08 0.548034 0.0168557 0 0 0 0 0 0 0 0 0 0 0 0 0 0 0 0 0 0 0 0 0 0 0 0 0 0 0 0 0 0 0 0 0 0 0 0 0 0 0 0 0 0
0.143051 4.31317e-08 1.98587e-08 2.3273e-08 0.53958 0.0143876 0 0 0 0 0 0 0 0 0 0 0 0 0 0 0 0 0 0 0 0 0 0 0 0 0 0 0 0 0 0 0 0 0 0 0 0 0 0 0 0 0 0
0.150394 4.31562e-08 2.0181e-08 2.29753e-08 0.532375 0.0122986 0 0 0 0 0 0 0 0 0 0 0 0 0 0 0 0 0 0 0 0 0 0 0 0 0 0 0 0 0 0 0 0 0 0 0 0 0 0 0 0 0 0
0.158114 4.31023e-08 2.03775e-08 2.27248e-08 0.52723 0.01055 0 0 0 0 0 0 0 0 0 0 0 0 0 0 0 0 0 0 0 0 0 0 0 0 0 0 0 0 0 0 0 0 0 0 0 0 0 0 0 0 0 0
0.16623 4.29578e-08 2.03393e-08 2.26185e-08 0.526529 0.00908216 0 0 0 0 0 0 0 0 0 0 0 0 0 0 0 0 0 0 0 0 0 0 0 0 0 0 0 0 0 0 0 0 0 0 0 0 0 0 0 0 0 0
0.174762 4.28311e-08 2.00043e-08 2.28268e-08 0.532949 0.00782097 0 0 0 0 0 0 0 0 0 0 0 0 0 0 0 0 0 0 0 0 0 0 0 0 0 0 0 0 0 0 0 0 0 0 0 0 0 0 0 0 0 0
0.183733 4.2884e-08 1.93294e-08 2.35545e-08 0.549262 0.00667218 0 0 0 0 0 0 0 0 0 0 0 0 0 0 0 0 0 0 0 0 0 0 0 0 0 0 0 0 0 0 0 0 0 0 0 0 0 0 0 0 0 0
0.193164 4.32625e-08 1.82896e-08 2.49729e-08 0.577241 0.00556038 0 0 0 0 0 0 0 0 0 0 0 0 0 0 0 0 0 0 0 0 0 0 0 0 0 0 0 0 0 0 0 0 0 0 0 0 0 0 0 0 0 0
0.203079 4.39121e-08 1.71181e-08 2.6794e-08 0.610174 0.00446034 0 0 0 0 0 0 0 0 0 0 0 0 0 0 0 0 0 0 0 0 0 0 0 0 0 0 0 0 0 0 0 0 0 0 0 0 0 0 0 0 0 0
0.213503 4.47106e-08 1.61633e-08 2.85472e-08 0.63849 0.00342932 0 0 0 0 0 0 0 0 0 0 0 0 0 0 0 0 0 0 0 0 0 0 0 0 0 0 0 0 0 0 0 0 0 0 0 0 0 0 0 0 0 0
0.224463 4.55484e-08 1.56359e-08 2.99125e-08 0.656719 0.00254317 0 0 0 0 0 0 0 0 0 0 0 0 0 0 0 0 0 0 0 0 0 0 0 0 0 0 0 0 0 0 0 0 0 0 0 0 0 0 0 0 0 0
0.235984 4.62747e-08 1.549e-08 3.07847e-08 0.665259 0.00182186 0 0 0 0 0 0 0 0 0 0 0 0 0 0 0 0 0 0 0 0 0 0 0 0 0 0 0 0 0 0 0 0 0 0 0 0 0 0 0 0 0 0
0.248097 4.67072e-08 1.55583e-08 3.1149e-08 0.666898 0.00138916 0 0 0 0 0 0 0 0 0 0 0 0 0 0 0 0 0 0 0 0 0 0 0 0 0 0 0 0 0 0 0 0 0 0 0 0 0 0 0 0 0 0
0.260832 4.67358e-08 1.57612e-08 3.09746e-08 0.662759 0.00141961 0 0 0 0 0 0 0 0 0 0 0 0 0 0 0 0 0 0 0 0 0 0 0 0 0 0 0 0 0 0 0 0 0 0 0 0 0 0 0 0 0 0
0.274221 4.64511e-08 1.61508e-08 3.03004e-08 0.652306 0.00187131 0 0 0 0 0 0 0 0 0 0 0 0 0 0 0 0 0 0 0 0 0 0 0 0 0 0 0 0 0 0 0 0 0 0 0 0 0 0 0 0 0 0
0.288297 4.61344e-08 1.67525e-08 2.93819e-08 0.636876 0.00251556 0 0 0 0 0 0 0 0 0 0 0 0 0 0 0 0 0 0 0 0 0 0 0 0 0 0 0 0 0 0 0 0 0 0 0 0 0 0 0 0 0 0
0.303095 4.59848e-08 1.74406e-08 2.85442e-08 0.620731 0.0028362 0 0 0 0 0 0 0 0 0 0 0 0 0 0 0 0 0 0 0 0 0 0 0 0 0 0 0 0 0 0 0 0 0 0 0 0 0 0 0 0 0 0
0.318653 4.60004e-08 1.80734e-08 2.7927e-08 0.607104 0.00297223 0 0 0 0 0 0 0 0 0 0 0 0 0 0 0 0 0 0 0 0 0 0 0 0 0 0 0 0 0 0 0 0 0 0 0 0 0 0 0 0 0 0
0.335009 4.61192e-08 1.85907e-08 2.75284e-08 0.596898 0.00293231 0 0 0 0 0 0 0 0 0 0 0 0 0 0 0 0 0 0 0 0 0 0 0 0 0 0 0 0 0 0 0 0 0 0 0 0 0 0 0 0 0 0
0.352205 4.62946e-08 1.89892e-08 2.73054e-08 0.589818 0.00278811 0 0 0 0 0 0 0 0 0 0 0 0 0 0 0 0 0 0 0 0 0 0 0 0 0 0 0 0 0 0 0 0 0 0 0 0 0 0 0 0 0 0
0.370284 4.64996e-08 1.92872e-08 2.72123e-08 0.585217 0.00261033 0 0 0 0 0 0 0 0 0 0 0 0 0 0 0 0 0 0 0 0 0 0 0 0 0 0 0 0 0 0 0 0 0 0 0 0 0 0 0 0 0 0
0.389291 4.67211e-08 1.95077e-08 2.72133e-08 0.582464 0.00243645 0 0 0 0 0 0 0 0 0 0 0 0 0 0 0 0 0 0 0 0 0 0 0 0 0 0 0 0 0 0 0 0 0 0 0 0 0 0 0 0 0 0
0.409273 4.69489e-08 1.96801e-08 2.72688e-08 0.580819 0.00226652 0 0 0 0 0 0 0 0 0 0 0 0 0 0 0 0 0 0 0 0 0 0 0 0 0 0 0 0 0 0 0 0 0 0 0 0 0 0 0 0 0 0
0.430281 4.71789e-08 1.98289e-08 2.735e-08 0.579709 0.00210471 0 0 0 0 0 0 0 0 0 0 0 0 0 0 0 0 0 0 0 0 0 0 0 0 0 0 0 0 0 0 0 0 0 0 0 0 0 0 0 0 0 0
0.452368 4.74082e-08 1.99716e-08 2.74367e-08 0.578732 0.00193723 0 0 0 0 0 0 0 0 0 0 0 0 0 0 0 0 0 0 0 0 0 0 0 0 0 0 0 0 0 0 0 0 0 0 0 0 0 0 0 0 0 0
0.475588 4.76383e-08 2.01193e-08 2.7519e-08 0.577665 0.00177642 0 0 0 0 0 0 0 0 0 0 0 0 0 0 0 0 0 0 0 0 0 0 0 0 0 0 0 0 0 0 0 0 0 0 0 0 0 0 0 0 0 0
0.5 4.78707e-08 2.02765e-08 2.75942e-08 0.576432 0.00162159 0 0 0 0 0 0 0 0 0 0 0 0 0 0 0 0 0 0 0 0 0 0 0 0 0 0 0 0 0 0 0 0 0 0 0 0 0 0 0 0 0 0
0.525665 4.81095e-08 2.04439e-08 2.76656e-08 0.575055 0.0014751 0 0 0 0 0 0 0 0 0 0 0 0 0 0 0 0 0 0 0 0 0 0 0 0 0 0 0 0 0 0 0 0 0 0 0 0 0 0 0 0 0 0
0.552648 4.83574e-08 2.06188e-08 2.77386e-08 0.573616 0.00134175 0 0 0 0 0 0 0 0 0 0 0 0 0 0 0 0 0 0 0 0 0 0 0 0 0 0 0 0 0 0 0 0 0 0 0 0 0 0 0 0 0 0
0.581015 4.86142e-08 2.07966e-08 2.78176e-08 0.572212 0.00121775 0 0 0 0 0 0 0 0 0 0 0 0 0 0 0 0 0 0 0 0 0 0 0 0 0 0 0 0 0 0 0 0 0 0 0 0 0 0 0 0 0 0
0.610839 4.88843e-08 2.0977e-08 2.79073e-08 0.570885 0.00110516 0 0 0 0 0 0 0 0 0 0 0 0 0 0 0 0 0 0 0 0 0 0 0 0 0 0 0 0 0 0 0 0 0 0 0 0 0 0 0 0 0 0
0.642193 4.91635e-08 2.11537e-08 2.80098e-08 0.569727 0.00100302 0 0 0 0 0 0 0 0 0 0 0 0 0 0 0 0 0 0 0 0 0 0 0 0 0 0 0 0 0 0 0 0 0 0 0 0 0 0 0 0 0 0
0.675157 4.94549e-08 2.1327e-08 2.81279e-08 0.568759 0.000910957 0 0 0 0 0 0 0 0 0 0 0 0 0 0 0 0 0 0 0 0 0 0 0 0 0 0 0 0 0 0 0 0 0 0 0 0 0 0 0 0 0 0
0.709813 4.97526e-08 2.14906e-08 2.8262e-08 0.56805 0.00082817 0 0 0 0 0 0 0 0 0 0 0 0 0 0 0 0 0 0 0 0 0 0 0 0 0 0 0 0 0 0 0 0 0 0 0 0 0 0 0 0 0 0
0.746248 5.00626e-08 2.1647e-08 2.84155e-08 0.5676 0.000754183 0 0 0 0 0 0 0 0 0 0 0 0 0 0 0 0 0 0 0 0 0 0 0 0 0 0 0 0 0 0 0 0 0 0 0 0 0 0 0 0 0 0
0.784553 5.03819e-08 2.17982e-08 2.85837e-08 0.567341 0.000686995 0 0 0 0 0 0 0 0 0 0 0 0 0 0 0 0 0 0 0 0 0 0 0 0 0 0 0 0 0 0 0 0 0 0 0 0 0 0 0 0 0 0
0.824824 5.07005e-08 2.19355e-08 2.8765e-08 0.567351 0.000626788 0 0 0 0 0 0 0 0 0 0 0 0 0 0 0 0 0 0 0 0 0 0 0 0 0 0 0 0 0 0 0 0 0 0 0 0 0 0 0 0 0 0
0.867162 5.10289e-08 2.20644e-08 2.89645e-08 0.56761 0.000572518 0 0 0 0 0 0 0 0 0 0 0 0 0 0 0 0 0 0 0 0 0 0 0 0 0 0 0 0 0 0 0 0 0 0 0 0 0 0 0 0 0 0
0.911674 5.13657e-08 2.21921e-08 2.91736e-08 0.567958 0.000523427 0 0 0 0 0 0 0 0 0 0 0 0 0 0 0 0 0 0 0 0 0 0 0 0 0 0 0 0 0 0 0 0 0 0 0 0 0 0 0 0 0 0
0.95847 5.16897e-08 2.23018e-08 2.93879e-08 0.568544 0.00047944 0 0 0 0 0 0 0 0 0 0 0 0 0 0 0 0 0 0 0 0 0 0 0 0 0 0 0 0 0 0 0 0 0 0 0 0 0 0 0 0 0 0
1.00767 5.20178e-08 2.2401e-08 2.96168e-08 0.569359 0.0004395 0 0 0 0 0 0 0 0 0 0 0 0 0 0 0 0 0 0 0 0 0 0 0 0 0 0 0 0 0 0 0 0 0 0 0 0 0 0 0 0 0 0
1.05939 5.23628e-08 2.25119e-08 2.98508e-08 0.570077 0.000403275 0 0 0 0 0 0 0 0 0 0 0 0 0 0 0 0 0 0 0 0 0 0 0 0 0 0 0 0 0 0 0 0 0 0 0 0 0 0 0 0 0 0
1.11377 5.26926e-08 2.26154e-08 3.00772e-08 0.570805 0.000370298 0 0 0 0 0 0 0 0 0 0 0 0 0 0 0 0 0 0 0 0 0 0 0 0 0 0 0 0 0 0 0 0 0 0 0 0 0 0 0 0 0 0
1.17094 5.29922e-08 2.26904e-08 3.03018e-08 0.571817 0.000339515 0 0 0 0 0 0 0 0 0 0 0 0 0 0 0 0 0 0 0 0 0 0 0 0 0 0 0 0 0 0 0 0 0 0 0 0 0 0 0 0 0 0
1.23105 5.33093e-08 2.27621e-08 3.05472e-08 0.573018 0.000311294 0 0 0 0 0 0 0 0 0 0 0 0 0 0 0 0 0 0 0 0 0 0 0 0 0 0 0 0 0 0 0 0 0 0 0 0 0 0 0 0 0 0
1.29424 5.36613e-08 2.28667e-08 3.07945e-08 0.573869 0.000285362 0 0 0 0 0 0 0 0 0 0 0 0 0 0 0 0 0 0 0 0 0 0 0 0 0 0 0 0 0 0 0 0 0 0 0 0 0 0 0 0 0 0
1.36067 5.39924e-08 2.29823e-08 3.10101e-08 0.574342 0.000261742 0 0 0 0 0 0 0 0 0 0 0 0 0 0 0 0 0 0 0 0 0 0 0 0 0 0 0 0 0 0 0 0 0 0 0 0 0 0 0 0 0 0
1.43051 5.42537e-08 2.30551e-08 3.11986e-08 0.57505 0.000240209 0 0 0 0 0 0 0 0 0 0 0 0 0 0 0 0 0 0 0 0 0 0 0 0 0 0 0 0 0 0 0 0 0 0 0 0 0 0 0 0 0 0
1.50394 5.44922e-08 2.30915e-08 3.14007e-08 0.576242 0.000220279 0 0 0 0 0 0 0 0 0 0 0 0 0 0 0 0 0 0 0 0 0 0 0 0 0 0 0 0 0 0 0 0 0 0 0 0 0 0 0 0 0 0
1.58114 5.47937e-08 2.31508e-08 3.16428e-08 0.577491 0.000201732 0 0 0 0 0 0 0 0 0 0 0 0 0 0 0 0 0 0 0 0 0 0 0 0 0 0 0 0 0 0 0 0 0 0 0 0 0 0 0 0 0 0
1.6623 5.51718e-08 2.32811e-08 3.18907e-08 0.578026 0.000184534 0 0 0 0 0 0 0 0 0 0 0 0 0 0 0 0 0 0 0 0 0 0 0 0 0 0 0 0 0 0 0 0 0 0 0 0 0 0 0 0 0 0
1.74763 5.55356e-08 2.34515e-08 3.2084e-08 0.577721 0.000169005 0 0 0 0 0 0 0 0 0 0 0 0 0 0 0 0 0 0 0 0 0 0 0 0 0 0 0 0 0 0 0 0 0 0 0 0 0 0 0 0 0 0
1.83733 5.57819e-08 2.3589e-08 3.21929e-08 0.577121 0.000154804 0 0 0 0 0 0 0 0 0 0 0 0 0 0 0 0 0 0 0 0 0 0 0 0 0 0 0 0 0 0 0 0 0 0 0 0 0 0 0 0 0 0
1.93164 5.59049e-08 2.36447e-08 3.22602e-08 0.577055 0.000141793 0 0 0 0 0 0 0 0 0 0 0 0 0 0 0 0 0 0 0 0 0 0 0 0 0 0 0 0 0 0 0 0 0 0 0 0 0 0 0 0 0 0
2.03079 5.60105e-08 2.36471e-08 3.23634e-08 0.57781 0.000129725 0 0 0 0 0 0 0 0 0 0 0 0 0 0 0 0 0 0 0 0 0 0 0 0 0 0 0 0 0 0 0 0 0 0 0 0 0 0 0 0 0 0
2.13503 5.62361e-08 2.3679e-08 3.2557e-08 0.578935 0.000118657 0 0 0 0 0 0 0 0 0 0 0 0 0 0 0 0 0 0 0 0 0 0 0 0 0 0 0 0 0 0 0 0 0 0 0 0 0 0 0 0 0 0
2.24463 5.66403e-08 2.38146e-08 3.28258e-08 0.579548 0.000108569 0 0 0 0 0 0 0 0 0 0 0 0 0 0 0 0 0 0 0 0 0 0 0 0 0 0 0 0 0 0 0 0 0 0 0 0 0 0 0 0 0 0
2.35984 5.7156e-08 2.40693e-08 3.30867e-08 0.578884 9.92926e-05 0 0 0 0 0 0 0 0 0 0 0 0 0 0 0 0 0 0 0 0 0 0 0 0 0 0 0 0 0 0 0 0 0 0 0 0 0 0 0 0 0 0
2.48097 5.76309e-08 2.43905e-08 3.32404e-08 0.57678 9.07218e-05 0 0 0 0 0 0 0 0 0 0 0 0 0 0 0 0 0 0 0 0 0 0 0 0 0 0 0 0 0 0 0 0 0 0 0 0 0 0 0 0 0 0
2.60832 5.79103e-08 2.46908e-08 3.32195e-08 0.573637 8.27967e-05 0 0 0 0 0 0 0 0 0 0 0 0 0 0 0 0 0 0 0 0 0 0 0 0 0 0 0 0 0 0 0 0 0 0 0 0 0 0 0 0 0 0
2.74221 5.79089e-08 2.48873e-08 3.30216e-08 0.570234 7.55862e-05 0 0 0 0 0 0 0 0 0 0 0 0 0 0 0 0 0 0 0 0 0 0 0 0 0 0 0 0 0 0 0 0 0 0 0 0 0 0 0 0 0 0
2.88297 5.76727e-08 2.49485e-08 3.27242e-08 0.567412 6.90729e-05 0 0 0 0 0 0 0 0 0 0 0 0 0 0 0 0 0 0 0 0 0 0 0 0 0 0 0 0 0 0 0 0 0 0 0 0 0 0 0 0 0 0
3.03095 5.7346e-08 2.49038e-08 3.24422e-08 0.565727 6.31538e-05 0 0 0 0 0 0 0 0 0 0 0 0 0 0 0 0 0 0 0 0 0 0 0 0 0 0 0 0 0 0 0 0 0 0 0 0 0 0 0 0 0 0
3.18653 5.71209e-08 2.48315e-08 3.22894e-08 0.565282 5.76567e-05 0 0 0 0 0 0 0 0 0 0 0 0 0 0 0 0 0 0 0 0 0 0 0 0 0 0 0 0 0 0 0 0 0 0 0 0 0 0 0 0 0 0
3.35009 5.71336e-08 2.48194e-08 3.23142e-08 0.565589 5.2603e-05 0 0 0 0 0 0 0 0 0 0 0 0 0 0 0 0 0 0 0 0 0 0 0 0 0 0 0 0 0 0 0 0 0 0 0 0 0 0 0 0 0 0
3.52205 5.74389e-08 2.49409e-08 3.2498e-08 0.565783 4.80102e-05 0 0 0 0 0 0 0 0 0 0 0 0 0 0 0 0 0 0 0 0 0 0 0 0 0 0 0 0 0 0 0 0 0 0 0 0 0 0 0 0 0 0
3.70284 5.79881e-08 2.52291e-08 3.27589e-08 0.564925 4.38066e-05 0 0 0 0 0 0 0 0 0 0 0 0 0 0 0 0 0 0 0 0 0 0 0 0 0 0 0 0 0 0 0 0 0 0 0 0 0 0 0 0 0 0
3.89291 5.86673e-08 2.56852e-08 3.29821e-08 0.562189 3.9926e-05 0 0 0 0 0 0 0 0 0 0 0 0 0 0 0 0 0 0 0 0 0 0 0 0 0 0 0 0 0 0 0 0 0 0 0 0 0 0 0 0 0 0
4.09273 5.93346e-08 2.62861e-08 3.30485e-08 0.556986 3.62643e-05 0 0 0 0 0 0 0 0 0 0 0 0 0 0 0 0 0 0 0 0 0 0 0 0 0 0 0 0 0 0 0 0 0 0 0 0 0 0 0 0 0 0
4.30281 5.98717e-08 2.6998e-08 3.28737e-08 0.549069 3.29535e-05 0 0 0 0 0 0 0 0 0 0 0 0 0 0 0 0 0 0 0 0 0 0 0 0 0 0 0 0 0 0 0 0 0 0 0 0 0 0 0 0 0 0
4.52368 6.01961e-08 2.77815e-08 3.24146e-08 0.538483 2.99416e-05 0 0 0 0 0 0 0 0 0 0 0 0 0 0 0 0 0 0 0 0 0 0 0 0 0 0 0 0 0 0 0 0 0 0 0 0 0 0 0 0 0 0
4.75588 6.0282e-08 2.85989e-08 3.16831e-08 0.525581 2.71796e-05 0 0 0 0 0 0 0 0 0 0 0 0 0 0 0 0 0 0 0 0 0 0 0 0 0 0 0 0 0 0 0 0 0 0 0 0 0 0 0 0 0 0
5 6.01368e-08 2.93973e-08 3.07396e-08 0.511161 2.45398e-05 0 0 0 0 0 0 0 0 0 0 0 0 0 0 0 0 0 0 0 0 0 0 0 0 0 0 0 0 0 0 0 0 0 0 0 0 0 0 0 0 0 0
5.25665 5.974e-08 3.00912e-08 2.96488e-08 0.496298 2.21678e-05 0 0 0 0 0 0 0 0 0 0 0 0 0 0 0 0 0 0 0 0 0 0 0 0 0 0 0 0 0 0 0 0 0 0 0 0 0 0 0 0 0 0
5.52648 5.89954e-08 3.05574e-08 2.8438e-08 0.482038 2.00489e-05 0 0 0 0 0 0 0 0 0 0 0 0 0 0 0 0 0 0 0 0 0 0 0 0 0 0 0 0 0 0 0 0 0 0 0 0 0 0 0 0 0 0
5.81015 5.76973e-08 3.06401e-08 2.70572e-08 0.468951 1.8115e-05 0 0 0 0 0 0 0 0 0 0 0 0 0 0 0 0 0 0 0 0 0 0 0 0 0 0 0 0 0 0 0 0 0 0 0 0 0 0 1.4013e-45 0 2.8026e-45 0
6.10839 5.55662e-08 3.02075e-08 2.53587e-08 0.45637 1.63023e-05 0 0 0 0 0 0 0 0 0 0 0 0 0 0 0 0 0 0 0 0 0 0 0 0 0 0 0 0 0 0 1.4013e-45 0 7.00649e-45 0 2.24208e-44 0 6.5861e-44 0 1.80768e-43 0 4.87652e-43 0
6.42193 5.28858e-08 2.9494e-08 2.33918e-08 0.442308 1.48144e-05 0 0 0 0 0 0 0 0 0 0 0 0 0 0 0 0 0 0 0 0 0 0 1.4013e-45 0 4.2039e-45 0 2.24208e-44 0 9.24857e-44 0 3.30706e-43 0 1.11683e-42 0 3.37993e-42 0 9.72781e-42 0 2.53257e-41 0 6.47778e-41 0
6.75157 4.91701e-08 2.83504e-08 2.08198e-08 0.423423 1.32279e-05 0 0 0 0 0 0 0 0 0 0 0 0 0 0 0 0 0 0 2.8026e-45 0 2.66247e-44 0 1.55544e-43 0 7.80523e-43 0 3.33649e-42 0 1.2955e-41 0 4.35566e-41 0 1.38587e-40 0 3.97253e-40 0 1.08582e-39 0 2.69784e-39 0 6.5912e-39 0
7.09813 4.54713e-08 2.74232e-08 1.80481e-08 0.396911 1.18448e-05 0 0 0 0 0 0 0 0 0 0 0 0 0 0 5.60519e-45 0 6.30584e-44 0 5.46506e-43 0 3.83535e-42 0 2.10615e-41 0 9.78401e-41 0 3.89331e-40 0 1.41479e-39 0 4.48323e-39 0 1.34811e-38 0 3.67061e-38 0 9.55229e-38 0 2.27023e-37 0 5.30978e-37 0
7.46248 4.21579e-08 2.68892e-08 1.52687e-08 0.362178 1.05694e-05 0 0 0 0 0 0 0 0 0 0 1.4013e-45 0 4.62428e-44 0 8.00141e-43 0 9.00615e-42 0 6.97118e-41 0 4.44345e-40 0 2.24558e-39 0 9.67799e-39 0 3.60003e-38 0 1.22834e-37 0 3.67928e-37 0 1.04846e-36 0 2.71848e-36 0 6.75173e-36 0 1.53823e-35 0 3.45153e-35 0
7.84553 3.93959e-08 2.67242e-08 1.26717e-08 0.321651 9.34187e-06 0 0 0 0 0 0 0 0 4.2039e-45 0 2.46629e-43 0 6.6926e-42 0 1.00099e-40 0 1.00129e-39 0 7.01313e-39 0 4.08366e-38 0 1.9068e-37 0 7.65218e-37 0 2.66963e-36 0 8.57907e-36 0 2.43569e-35 0 6.59487e-35 0 1.63222e-34 0 3.87773e-34 0 8.4864e-34 0 1.83053e-33 0
8.24824 3.69254e-08 2.65678e-08 1.03577e-08 0.280503 8.19911e-06 0 0 0 0 0 0 2.8026e-45 0 6.19374e-43 0 3.22229e-41 0 7.45716e-40 0 9.77347e-39 0 8.73674e-38 0 5.56452e-37 0 2.97309e-36 0 1.28762e-35 0 4.8284e-35 0 1.5848e-34 0 4.81072e-34 0 1.29797e-33 0 3.34757e-33 0 7.92658e-33 0 1.80525e-32 0 3.80255e-32 0 7.90005e-32 0
8.67162 3.42183e-08 2.58705e-08 8.3478e-09 0.243957 7.20916e-06 0 0 0 0 0 0 4.7504e-43 0 7.50507e-41 0 3.21658e-39 0 6.38528e-38 0 7.38066e-37 0 5.92856e-36 0 3.4496e-35 0 1.69831e-34 0 6.84726e-34 0 2.40717e-33 0 7.45546e-33 0 2.14371e-32 0 5.51031e-32 0 1.35691e-31 0 3.08056e-31 0 6.73951e-31 0 1.36889e-30 0 2.74423e-30 0
9.11674 3.08134e-08 2.41806e-08 6.63281e-09 0.215257 6.32492e-06 0 0 0 0 4.2039e-44 0 5.51789e-41 0 6.80754e-39 0 2.42854e-37 0 4.16646e-36 0 4.27353e-35 0 3.10072e-34 0 1.65554e-33 0 7.54033e-33 0 2.84006e-32 0 9.38985e-32 0 2.75205e-31 0 7.51542e-31 0 1.84478e-30 0 4.3472e-30 0 9.48209e-30 0 1.99665e-29 0 3.91759e-29 0 7.59141e-29 0
9.5847 2.67072e-08 2.15008e-08 5.20644e-09 0.194945 5.52644e-06 0 0 0 0 5.16659e-42 0 4.75907e-39 0 4.64123e-37 0 1.39058e-35 0 2.07658e-34 0 1.9011e-33 0 1.25216e-32 0 6.16054e-32 0 2.60568e-31 0 9.19893e-31 0 2.86889e-30 0 7.9783e-30 0 2.07446e-29 0 4.87366e-29 0 1.1014e-28 0 2.31261e-28 0 4.69583e-28 0 8.91533e-28 0 1.67268e-27 0
10.0767 2.22982e-08 1.82416e-08 4.05663e-09 0.181926 4.78203e-06 0 0 2.8026e-45 0 4.68821e-40 0 3.0944e-37 0 2.41308e-35 0 6.1241e-34 0 8.01435e-33 0 6.58527e-32 0 3.95601e-31 0 1.80066e-30 0 7.09832e-30 0 2.35628e-29 0 6.95159e-29 0 1.83905e-28 0 4.5638e-28 0 1.02841e-27 0 2.23341e-27 0 4.52268e-27 0 8.87128e-27 0 1.63237e-26 0 2.96996e-26 0
10.5939 1.81043e-08 1.49503e-08 3.15395e-09 0.174211 4.06995e-06 0 0 3.18095e-43 0 3.23138e-38 0 1.55344e-35 0 9.79299e-34 0 2.12234e-32 0 2.4497e-31 0 1.81618e-30 0 9.99594e-30 0 4.22537e-29 0 1.55776e-28 0 4.87676e-28 0 1.36474e-27 0 3.44294e-27 0 8.17317e-27 0 1.77012e-26 0 3.70135e-26 0 7.24149e-26 0 1.37446e-25 0 2.4549e-25 0 4.33786e-25 0
11.1377 1.43802e-08 1.19273e-08 2.45293e-09 0.170577 3.40803e-06 0 0 2.98715e-41 0 1.725e-36 0 6.13417e-34 0 3.15872e-32 0 5.89095e-31 0 6.03418e-30 0 4.05681e-29 0 2.05441e-28 0 8.09399e-28 0 2.79985e-27 0 8.29021e-27 0 2.20629e-26 0 5.32013e-26 0 1.21074e-25 0 2.52509e-25 0 5.09324e-25 0 9.64342e-25 0 1.77398e-24 0 3.08e-24 0 5.29324e-24 0
11.7094 1.24209e-08 1.04491e-08 1.9718e-09 0.158749 2.82232e-06 1.96182e-44 0 2.40628e-39 0 8.13586e-35 0 2.17181e-32 0 9.22575e-31 0 1.49155e-29 0 1.36376e-28 0 8.35407e-28 0 3.90845e-27 0 1.44014e-26 0 4.68881e-26 0 1.31667e-25 0 3.34056e-25 0 7.71641e-25 0 1.68697e-24 0 3.39428e-24 0 6.61588e-24 0 1.2142e-23 0 2.16811e-23 0 3.66425e-23 0 6.13301e-23 0
12.3105 9.5348e-09 8.00037e-09 1.53444e-09 0.16093 2.20615e-06 1.90857e-42 0 1.34201e-37 0 2.72701e-33 0 5.54162e-31 0 1.9603e-29 0 2.76661e-28 0 2.2705e-27 0 1.27307e-26 0 5.52383e-26 0 1.9098e-25 0 5.86969e-25 0 1.56724e-24 0 3.79959e-24 0 8.4252e-24 0 1.77291e-23 0 3.44749e-23 0 6.50416e-23 0 1.15882e-22 0 2.01148e-22 0 3.31354e-22 0 5.40829e-22 0
