# 0.00169024 2 103 : grain size, compostion index, size index
# Heating and cooling timescale: 8.73808e-07 inf
# Ratio of heating to cooling to determine stochastic cutoff: 100
# Equilibrium emission is recorded even for those grains in the stochastic regime.
# Emission spectrum was computed for: 
# Type: ISRF
# Scales: 0.25 0.5 1 1.5 2 2.5 3 3.5 4 4.5 5 5.5 6 6.5 7 7.5 8 8.5 9 9.5 10
# StochasticallyHeated: 0 0 0 0 0 0 0 0 0 0 0 0 0 0 0 0 0 0 0 0 0
# Temperature: -1
# Wavelength  CExt  CAbs  CSca  Albedo G EqEm1 StEm1 EqEm2 StEm2 EqEm3 StEm3 EqEm4 StEm4 EqEm5 StEm5 EqEm6 StEm6 EqEm7 StEm7 EqEm8 StEm8 EqEm9 StEm9 EqEm10 StEm10 EqEm11 StEm11 EqEm12 StEm12 EqEm13 StEm13 EqEm14 StEm14 EqEm15 StEm15 EqEm16 StEm16 EqEm17 StEm17 EqEm18 StEm18 EqEm19 StEm19 EqEm20 StEm20 EqEm21 StEm21
0.05 1.80478e-05 7.62912e-06 1.04187e-05 0.577283 0.931839 0 0 0 0 0 0 0 0 0 0 0 0 0 0 0 0 0 0 0 0 0 0 0 0 0 0 0 0 0 0 0 0 0 0 0 0 0 0 0 0 0 0
0.0525665 1.80518e-05 7.56309e-06 1.04887e-05 0.581034 0.926041 0 0 0 0 0 0 0 0 0 0 0 0 0 0 0 0 0 0 0 0 0 0 0 0 0 0 0 0 0 0 0 0 0 0 0 0 0 0 0 0 0 0
0.0552647 1.80561e-05 7.45308e-06 1.0603e-05 0.587226 0.91717 0 0 0 0 0 0 0 0 0 0 0 0 0 0 0 0 0 0 0 0 0 0 0 0 0 0 0 0 0 0 0 0 0 0 0 0 0 0 0 0 0 0
0.0581015 1.8061e-05 7.28615e-06 1.07748e-05 0.596581 0.903374 0 0 0 0 0 0 0 0 0 0 0 0 0 0 0 0 0 0 0 0 0 0 0 0 0 0 0 0 0 0 0 0 0 0 0 0 0 0 0 0 0 0
0.0610839 1.80666e-05 7.11806e-06 1.09485e-05 0.60601 0.887907 0 0 0 0 0 0 0 0 0 0 0 0 0 0 0 0 0 0 0 0 0 0 0 0 0 0 0 0 0 0 0 0 0 0 0 0 0 0 0 0 0 0
0.0642193 1.80725e-05 7.0009e-06 1.10716e-05 0.612622 0.875328 0 0 0 0 0 0 0 0 0 0 0 0 0 0 0 0 0 0 0 0 0 0 0 0 0 0 0 0 0 0 0 0 0 0 0 0 0 0 0 0 0 0
0.0675157 1.80786e-05 6.93513e-06 1.11435e-05 0.616391 0.866453 0 0 0 0 0 0 0 0 0 0 0 0 0 0 0 0 0 0 0 0 0 0 0 0 0 0 0 0 0 0 0 0 0 0 0 0 0 0 0 0 0 0
0.0709813 1.80849e-05 6.91125e-06 1.11736e-05 0.617843 0.860857 0 0 0 0 0 0 0 0 0 0 0 0 0 0 0 0 0 0 0 0 0 0 0 0 0 0 0 0 0 0 0 0 0 0 0 0 0 0 0 0 0 0
0.0746248 1.80912e-05 6.92226e-06 1.11689e-05 0.617368 0.858131 0 0 0 0 0 0 0 0 0 0 0 0 0 0 0 0 0 0 0 0 0 0 0 0 0 0 0 0 0 0 0 0 0 0 0 0 0 0 0 0 0 0
0.0784553 1.80973e-05 6.97271e-06 1.11246e-05 0.614711 0.858774 0 0 0 0 0 0 0 0 0 0 0 0 0 0 0 0 0 0 0 0 0 0 0 0 0 0 0 0 0 0 0 0 0 0 0 0 0 0 0 0 0 0
0.0824824 1.81032e-05 7.079e-06 1.10242e-05 0.608963 0.86432 0 0 0 0 0 0 0 0 0 0 0 0 0 0 0 0 0 0 0 0 0 0 0 0 0 0 0 0 0 0 0 0 0 0 0 0 0 0 0 0 0 0
0.0867162 1.81083e-05 7.12375e-06 1.09846e-05 0.606604 0.867301 0 0 0 0 0 0 0 0 0 0 0 0 0 0 0 0 0 0 0 0 0 0 0 0 0 0 0 0 0 0 0 0 0 0 0 0 0 0 0 0 0 0
0.0911674 1.8115e-05 7.06098e-06 1.1054e-05 0.610213 0.860785 0 0 0 0 0 0 0 0 0 0 0 0 0 0 0 0 0 0 0 0 0 0 0 0 0 0 0 0 0 0 0 0 0 0 0 0 0 0 0 0 0 0
0.095847 1.8122e-05 7.05353e-06 1.10685e-05 0.610776 0.857489 0 0 0 0 0 0 0 0 0 0 0 0 0 0 0 0 0 0 0 0 0 0 0 0 0 0 0 0 0 0 0 0 0 0 0 0 0 0 0 0 0 0
0.100767 1.81286e-05 7.0761e-06 1.10525e-05 0.609673 0.857022 0 0 0 0 0 0 0 0 0 0 0 0 0 0 0 0 0 0 0 0 0 0 0 0 0 0 0 0 0 0 0 0 0 0 0 0 0 0 0 0 0 0
0.105939 1.81347e-05 7.14897e-06 1.09857e-05 0.605784 0.860944 0 0 0 0 0 0 0 0 0 0 0 0 0 0 0 0 0 0 0 0 0 0 0 0 0 0 0 0 0 0 0 0 0 0 0 0 0 0 0 0 0 0
0.111377 1.81404e-05 7.22394e-06 1.09165e-05 0.601776 0.866017 0 0 0 0 0 0 0 0 0 0 0 0 0 0 0 0 0 0 0 0 0 0 0 0 0 0 0 0 0 0 0 0 0 0 0 0 0 0 0 0 0 0
0.117094 1.81464e-05 7.27333e-06 1.08731e-05 0.599187 0.869199 0 0 0 0 0 0 0 0 0 0 0 0 0 0 0 0 0 0 0 0 0 0 0 0 0 0 0 0 0 0 0 0 0 0 0 0 0 0 0 0 0 0
0.123105 1.81527e-05 7.30744e-06 1.08453e-05 0.597447 0.871204 0 0 0 0 0 0 0 0 0 0 0 0 0 0 0 0 0 0 0 0 0 0 0 0 0 0 0 0 0 0 0 0 0 0 0 0 0 0 0 0 0 0
0.129424 1.81592e-05 7.32901e-06 1.08302e-05 0.596404 0.87218 0 0 0 0 0 0 0 0 0 0 0 0 0 0 0 0 0 0 0 0 0 0 0 0 0 0 0 0 0 0 0 0 0 0 0 0 0 0 0 0 0 0
0.136067 1.81661e-05 7.33665e-06 1.08295e-05 0.596136 0.871938 0 0 0 0 0 0 0 0 0 0 0 0 0 0 0 0 0 0 0 0 0 0 0 0 0 0 0 0 0 0 0 0 0 0 0 0 0 0 0 0 0 0
0.143051 1.81731e-05 7.32233e-06 1.08508e-05 0.597079 0.869609 0 0 0 0 0 0 0 0 0 0 0 0 0 0 0 0 0 0 0 0 0 0 0 0 0 0 0 0 0 0 0 0 0 0 0 0 0 0 0 0 0 0
0.150394 1.81793e-05 7.34923e-06 1.083e-05 0.595735 0.870842 0 0 0 0 0 0 0 0 0 0 0 0 0 0 0 0 0 0 0 0 0 0 0 0 0 0 0 0 0 0 0 0 0 0 0 0 0 0 0 0 0 0
0.158114 1.81852e-05 7.42855e-06 1.07566e-05 0.591505 0.8773 0 0 0 0 0 0 0 0 0 0 0 0 0 0 0 0 0 0 0 0 0 0 0 0 0 0 0 0 0 0 0 0 0 0 0 0 0 0 0 0 0 0
0.16623 1.81917e-05 7.51861e-06 1.0673e-05 0.5867 0.885146 0 0 0 0 0 0 0 0 0 0 0 0 0 0 0 0 0 0 0 0 0 0 0 0 0 0 0 0 0 0 0 0 0 0 0 0 0 0 0 0 0 0
0.174762 1.8199e-05 7.59894e-06 1.06001e-05 0.582454 0.892269 0 0 0 0 0 0 0 0 0 0 0 0 0 0 0 0 0 0 0 0 0 0 0 0 0 0 0 0 0 0 0 0 0 0 0 0 0 0 0 0 0 0
0.183733 1.82069e-05 7.67064e-06 1.05363e-05 0.578696 0.898638 0 0 0 0 0 0 0 0 0 0 0 0 0 0 0 0 0 0 0 0 0 0 0 0 0 0 0 0 0 0 0 0 0 0 0 0 0 0 0 0 0 0
0.193164 1.82153e-05 7.732e-06 1.04833e-05 0.575521 0.904045 0 0 0 0 0 0 0 0 0 0 0 0 0 0 0 0 0 0 0 0 0 0 0 0 0 0 0 0 0 0 0 0 0 0 0 0 0 0 0 0 0 0
0.203079 1.82241e-05 7.78493e-06 1.04392e-05 0.572822 0.908642 0 0 0 0 0 0 0 0 0 0 0 0 0 0 0 0 0 0 0 0 0 0 0 0 0 0 0 0 0 0 0 0 0 0 0 0 0 0 0 0 0 0
0.213503 1.82333e-05 7.83225e-06 1.0401e-05 0.570442 0.912684 0 0 0 0 0 0 0 0 0 0 0 0 0 0 0 0 0 0 0 0 0 0 0 0 0 0 0 0 0 0 0 0 0 0 0 0 0 0 0 0 0 0
0.224463 1.82428e-05 7.87253e-06 1.03703e-05 0.568458 0.916031 0 0 0 0 0 0 0 0 0 0 0 0 0 0 0 0 0 0 0 0 0 0 0 0 0 0 0 0 0 0 0 0 0 0 0 0 0 0 0 0 0 0
0.235984 1.82527e-05 7.90524e-06 1.03474e-05 0.566899 0.918635 0 0 0 0 0 0 0 0 0 0 0 0 0 0 0 0 0 0 0 0 0 0 0 0 0 0 0 0 0 0 0 0 0 0 0 0 0 0 0 0 0 0
0.248097 1.82629e-05 7.93142e-06 1.03314e-05 0.565708 0.920597 0 0 0 0 0 0 0 0 0 0 0 0 0 0 0 0 0 0 0 0 0 0 0 0 0 0 0 0 0 0 0 0 0 0 0 0 0 0 0 0 0 0
0.260832 1.82734e-05 7.95372e-06 1.03197e-05 0.564737 0.922165 0 0 0 0 0 0 0 0 0 0 0 0 0 0 0 0 0 0 0 0 0 0 0 0 0 0 0 0 0 0 0 0 0 0 0 0 0 0 0 0 0 0
0.274221 1.82843e-05 7.97359e-06 1.03107e-05 0.56391 0.923478 0 0 0 0 0 0 0 0 0 0 0 0 0 0 0 0 0 0 0 0 0 0 0 0 0 0 0 0 0 0 0 0 0 0 0 0 0 0 0 0 0 0
0.288297 1.82955e-05 7.99139e-06 1.03041e-05 0.563204 0.924567 0 0 0 0 0 0 0 0 0 0 0 0 0 0 0 0 0 0 0 0 0 0 0 0 0 0 0 0 0 0 0 0 0 0 0 0 0 0 0 0 0 0
0.303095 1.83072e-05 8.00755e-06 1.02996e-05 0.5626 0.925474 0 0 0 0 0 0 0 0 0 0 0 0 0 0 0 0 0 0 0 0 0 0 0 0 0 0 0 0 0 0 0 0 0 0 0 0 0 0 0 0 0 0
0.318653 1.83192e-05 8.02268e-06 1.02965e-05 0.562061 0.926256 0 0 0 0 0 0 0 0 0 0 0 0 0 0 0 0 0 0 0 0 0 0 0 0 0 0 0 0 0 0 0 0 0 0 0 0 0 0 0 0 0 0
0.335009 1.83316e-05 8.03683e-06 1.02948e-05 0.561585 0.926917 0 0 0 0 0 0 0 0 0 0 0 0 0 0 0 0 0 0 0 0 0 0 0 0 0 0 0 0 0 0 0 0 0 0 0 0 0 0 0 0 0 0
0.352205 1.83444e-05 8.05045e-06 1.02939e-05 0.561149 0.927495 0 0 0 0 0 0 0 0 0 0 0 0 0 0 0 0 0 0 0 0 0 0 0 0 0 0 0 0 0 0 0 0 0 0 0 0 0 0 0 0 0 0
0.370284 1.83576e-05 8.06362e-06 1.0294e-05 0.560748 0.928001 0 0 0 0 0 0 0 0 0 0 0 0 0 0 0 0 0 0 0 0 0 0 0 0 0 0 0 0 0 0 0 0 0 0 0 0 0 0 0 0 0 0
0.389291 1.83713e-05 8.07616e-06 1.02952e-05 0.560393 0.928415 0 0 0 0 0 0 0 0 0 0 0 0 0 0 0 0 0 0 0 0 0 0 0 0 0 0 0 0 0 0 0 0 0 0 0 0 0 0 0 0 0 0
0.409273 1.83855e-05 8.08838e-06 1.02971e-05 0.560066 0.928763 0 0 0 0 0 0 0 0 0 0 0 0 0 0 0 0 0 0 0 0 0 0 0 0 0 0 0 0 0 0 0 0 0 0 0 0 0 0 0 0 0 0
0.430281 1.84001e-05 8.10073e-06 1.02993e-05 0.559744 0.929088 0 0 0 0 0 0 0 0 0 0 0 0 0 0 0 0 0 0 0 0 0 0 0 0 0 0 0 0 0 0 0 0 0 0 0 0 0 0 0 0 0 0
0.452368 1.84152e-05 8.1126e-06 1.03026e-05 0.559461 0.929332 0 0 0 0 0 0 0 0 0 0 0 0 0 0 0 0 0 0 0 0 0 0 0 0 0 0 0 0 0 0 0 0 0 0 0 0 0 0 0 0 0 0
0.475588 1.84308e-05 8.1246e-06 1.03062e-05 0.559185 0.929547 0 0 0 0 0 0 0 0 0 0 0 0 0 0 0 0 0 0 0 0 0 0 0 0 0 0 0 0 0 0 0 0 0 0 0 0 0 0 0 0 0 0
0.5 1.84469e-05 8.13671e-06 1.03102e-05 0.558913 0.929734 0 0 0 0 0 0 0 0 0 0 0 0 0 0 0 0 0 0 0 0 0 0 0 0 0 0 0 0 0 0 0 0 0 0 0 0 0 0 0 0 0 0
0.525665 1.84636e-05 8.14902e-06 1.03146e-05 0.558643 0.929897 0 0 0 0 0 0 0 0 0 0 0 0 0 0 0 0 0 0 0 0 0 0 0 0 0 0 0 0 0 0 0 0 0 0 0 0 0 0 0 0 0 0
0.552648 1.84808e-05 8.16178e-06 1.0319e-05 0.558365 0.930058 0 0 0 0 0 0 0 0 0 0 0 0 0 0 0 0 0 0 0 0 0 0 0 0 0 0 0 0 0 0 0 0 0 0 0 0 0 0 0 0 0 0
0.581015 1.84986e-05 8.17406e-06 1.03246e-05 0.558126 0.930129 0 0 0 0 0 0 0 0 0 0 0 0 0 0 0 0 0 0 0 0 0 0 0 0 0 0 0 0 0 0 0 0 0 0 0 0 0 0 0 0 0 0
0.610839 1.8517e-05 8.18688e-06 1.03302e-05 0.557873 0.930203 0 0 0 0 0 0 0 0 0 0 0 0 0 0 0 0 0 0 0 0 0 0 0 0 0 0 0 0 0 0 0 0 0 0 0 0 0 0 0 0 0 0
0.642193 1.8536e-05 8.20027e-06 1.03357e-05 0.557604 0.930279 0 0 0 0 0 0 0 0 0 0 0 0 0 0 0 0 0 0 0 0 0 0 0 0 0 0 0 0 0 0 0 0 0 0 0 0 0 0 0 0 0 0
0.675157 1.85557e-05 8.21391e-06 1.03418e-05 0.557338 0.930328 0 0 0 0 0 0 0 0 0 0 0 0 0 0 0 0 0 0 0 0 0 0 0 0 0 0 0 0 0 0 0 0 0 0 0 0 0 0 0 0 0 0
0.709813 1.8576e-05 8.22788e-06 1.03481e-05 0.55707 0.930355 0 0 0 0 0 0 0 0 0 0 0 0 0 0 0 0 0 0 0 0 0 0 0 0 0 0 0 0 0 0 0 0 0 0 0 0 0 0 0 0 0 0
0.746248 1.8597e-05 8.2424e-06 1.03546e-05 0.556788 0.930375 0 0 0 0 0 0 0 0 0 0 0 0 0 0 0 0 0 0 0 0 0 0 0 0 0 0 0 0 0 0 0 0 0 0 0 0 0 0 0 0 0 0
0.784553 1.86187e-05 8.25754e-06 1.03611e-05 0.556491 0.930395 0 0 0 0 0 0 0 0 0 0 0 0 0 0 0 0 0 0 0 0 0 0 0 0 0 0 0 0 0 0 0 0 0 0 0 0 0 0 0 0 0 0
0.824824 1.8641e-05 8.27304e-06 1.03679e-05 0.55619 0.930386 0 0 0 0 0 0 0 0 0 0 0 0 0 0 0 0 0 0 0 0 0 0 0 0 0 0 0 0 0 0 0 0 0 0 0 0 0 0 0 0 0 0
0.867162 1.86643e-05 8.289e-06 1.03753e-05 0.555889 0.930361 0 0 0 0 0 0 0 0 0 0 0 0 0 0 0 0 0 0 0 0 0 0 0 0 0 0 0 0 0 0 0 0 0 0 0 0 0 0 0 0 0 0
0.911674 1.8688e-05 8.3056e-06 1.03824e-05 0.555565 0.930327 0 0 0 0 0 0 0 0 0 0 0 0 0 0 0 0 0 0 0 0 0 0 0 0 0 0 0 0 0 0 0 0 0 0 0 0 0 0 0 0 0 0
0.95847 1.87124e-05 8.32281e-06 1.03896e-05 0.555226 0.93028 0 0 0 0 0 0 0 0 0 0 0 0 0 0 0 0 0 0 0 0 0 0 0 0 0 0 0 0 0 0 0 0 0 0 0 0 0 0 0 0 0 0
1.00767 1.87383e-05 8.34075e-06 1.03975e-05 0.554882 0.930233 0 0 0 0 0 0 0 0 0 0 0 0 0 0 0 0 0 0 0 0 0 0 0 0 0 0 0 0 0 0 0 0 0 0 0 0 0 0 0 0 0 0
1.05939 1.87651e-05 8.35947e-06 1.04056e-05 0.554519 0.930187 0 0 0 0 0 0 0 0 0 0 0 0 0 0 0 0 0 0 0 0 0 0 0 0 0 0 0 0 0 0 0 0 0 0 0 0 0 0 0 0 0 0
1.11377 1.87926e-05 8.37895e-06 1.04137e-05 0.554136 0.930133 0 0 0 0 0 0 0 0 0 0 0 0 0 0 0 0 0 0 0 0 0 0 0 0 0 0 0 0 0 0 0 0 0 0 0 0 0 0 0 0 0 0
1.17094 1.88216e-05 8.39931e-06 1.04223e-05 0.553741 0.930084 0 0 0 0 0 0 0 0 0 0 0 0 0 0 0 0 0 0 0 0 0 0 0 0 0 0 0 0 0 0 0 0 0 0 0 0 0 0 0 0 0 0
1.23105 1.88508e-05 8.42049e-06 1.04303e-05 0.553309 0.930028 0 0 0 0 0 0 0 0 0 0 0 0 0 0 0 0 0 0 0 0 0 0 0 0 0 0 0 0 0 0 0 0 0 0 0 0 0 0 0 0 0 0
1.29424 1.88805e-05 8.44264e-06 1.04378e-05 0.552837 0.92997 0 0 0 0 0 0 0 0 0 0 0 0 0 0 0 0 0 0 0 0 0 0 0 0 0 0 0 0 0 0 0 0 0 0 0 0 0 0 0 0 0 0
1.36067 1.89095e-05 8.46521e-06 1.04443e-05 0.55233 0.929858 0 0 0 0 0 0 0 0 0 0 0 0 0 0 0 0 0 0 0 0 0 0 0 0 0 0 0 0 0 0 0 0 0 0 0 0 0 0 0 0 0 0
1.43051 1.89381e-05 8.48902e-06 1.04491e-05 0.551749 0.929761 0 0 0 0 0 0 0 0 0 0 0 0 0 0 0 0 0 0 0 0 0 0 0 0 0 0 0 0 0 0 0 0 0 0 0 0 0 0 0 0 0 0
1.50394 1.89726e-05 8.51351e-06 1.04591e-05 0.551274 0.929672 0 0 0 0 0 0 0 0 0 0 0 0 0 0 0 0 0 0 0 0 0 0 0 0 0 0 0 0 0 0 0 0 0 0 0 0 0 0 0 0 0 0
1.58114 1.90154e-05 8.53881e-06 1.04766e-05 0.550953 0.929616 0 0 0 0 0 0 0 0 0 0 0 0 0 0 0 0 0 0 0 0 0 0 0 0 0 0 0 0 0 0 0 0 0 0 0 0 0 0 0 0 0 0
1.6623 1.90495e-05 8.56521e-06 1.04843e-05 0.550371 0.929506 0 0 0 0 0 0 0 0 0 0 0 0 0 0 0 0 0 0 0 0 0 0 0 0 0 0 0 0 0 0 0 0 0 0 0 0 0 0 0 0 0 0
1.74763 1.90705e-05 8.59242e-06 1.04781e-05 0.549438 0.929278 0 0 0 0 0 0 0 0 0 0 0 0 0 0 0 0 0 0 0 0 0 0 0 0 0 0 0 0 0 0 0 0 0 0 0 0 0 0 0 0 0 0
1.83733 1.91264e-05 8.6206e-06 1.05058e-05 0.549283 0.929275 0 0 0 0 0 0 0 0 0 0 0 0 0 0 0 0 0 0 0 0 0 0 0 0 0 0 0 0 0 0 0 0 0 0 0 0 0 0 0 0 0 0
1.93164 1.91639e-05 8.64974e-06 1.05141e-05 0.548643 0.929125 0 0 0 0 0 0 0 0 0 0 0 0 0 0 0 0 0 0 0 0 0 0 0 0 0 0 0 0 0 0 0 0 0 0 0 0 0 0 0 0 0 0
2.03079 1.91824e-05 8.67946e-06 1.05029e-05 0.54753 0.928795 0 0 0 0 0 0 0 0 0 0 0 0 0 0 0 0 0 0 0 0 0 0 0 0 0 0 0 0 0 0 0 0 0 0 0 0 0 0 0 0 0 0
2.13503 1.92664e-05 8.71012e-06 1.05563e-05 0.547913 0.928901 0 0 0 0 0 0 0 0 0 0 0 0 0 0 0 0 0 0 0 0 0 0 0 0 0 0 0 0 0 0 0 0 0 0 0 0 0 0 0 0 0 0
2.24463 1.92551e-05 8.7418e-06 1.05133e-05 0.546001 0.928356 0 0 0 0 0 0 0 0 0 0 0 0 0 0 0 0 0 0 0 0 0 0 0 0 0 0 0 0 0 0 0 0 0 0 0 0 0 0 0 0 0 0
2.35984 1.93662e-05 8.77422e-06 1.0592e-05 0.546932 0.928564 0 0 0 0 0 0 0 0 0 0 0 0 0 0 0 0 0 0 0 0 0 0 0 0 0 0 0 0 0 0 0 0 0 0 0 0 0 0 0 0 0 0
2.48097 1.93309e-05 8.80736e-06 1.05235e-05 0.544389 0.927799 0 0 0 0 0 0 0 0 0 0 0 0 0 0 0 0 0 0 0 0 0 0 0 0 0 0 0 0 0 0 0 0 0 0 0 0 0 0 0 0 0 0
2.60832 1.94744e-05 8.84231e-06 1.06321e-05 0.545953 0.928221 0 0 0 0 0 0 0 0 0 0 0 0 0 0 0 0 0 0 0 0 0 0 0 0 0 0 0 0 0 0 0 0 0 0 0 0 0 0 0 0 0 0
2.74221 1.94195e-05 8.87787e-06 1.05416e-05 0.542837 0.927225 0 0 0 0 0 0 0 0 0 0 0 0 0 0 0 0 0 0 0 0 0 0 0 0 0 0 0 0 0 0 0 0 0 0 0 0 0 0 0 0 0 0
2.88297 1.95743e-05 8.91411e-06 1.06602e-05 0.544601 0.927594 0 0 0 0 0 0 0 0 0 0 0 0 0 0 0 0 0 0 0 0 0 0 0 0 0 0 0 0 0 0 0 0 0 0 0 0 0 0 0 0 0 0
3.03095 1.95596e-05 8.95056e-06 1.0609e-05 0.542395 0.926835 0 0 0 0 0 0 0 0 0 0 0 0 0 0 0 0 0 0 0 0 0 0 0 0 0 0 0 0 0 0 0 0 0 0 0 0 0 0 0 0 0 0
3.18653 1.95944e-05 8.98958e-06 1.06048e-05 0.541217 0.926471 0 0 0 0 0 0 0 0 0 0 0 0 0 0 0 0 0 0 0 0 0 0 0 0 0 0 0 0 0 0 0 0 0 0 0 0 0 0 0 0 0 0
3.35009 1.97867e-05 9.03191e-06 1.07548e-05 0.543536 0.927102 0 0 0 0 0 0 0 0 0 0 0 0 0 0 0 0 0 0 0 0 0 0 0 0 0 0 0 0 0 0 0 0 0 0 0 0 0 0 0 0 0 0
3.52205 1.96385e-05 9.07046e-06 1.0568e-05 0.538129 0.925194 0 0 0 0 0 0 0 0 0 0 0 0 0 0 0 0 0 0 0 0 0 0 0 0 0 0 0 0 0 0 0 0 0 0 0 0 0 0 0 0 0 0
3.70284 1.98306e-05 9.11135e-06 1.07193e-05 0.540541 0.925567 0 0 0 0 0 0 0 0 0 0 0 0 0 0 0 0 0 0 0 0 0 0 0 0 0 0 0 0 0 0 0 0 0 0 0 0 0 0 0 0 0 0
3.89291 1.99944e-05 9.15117e-06 1.08433e-05 0.542314 0.925998 0 0 0 0 0 0 0 0 0 0 0 0 0 0 0 0 0 0 0 0 0 0 0 0 0 0 0 0 0 0 0 0 0 0 0 0 0 0 0 0 0 0
4.09273 1.97726e-05 9.19602e-06 1.05766e-05 0.534911 0.923733 0 0 0 0 0 0 0 0 0 0 0 0 0 0 0 0 0 0 0 0 0 0 0 0 0 0 0 0 0 0 0 0 0 0 0 0 0 0 0 0 0 0
4.30281 2.00069e-05 9.24001e-06 1.07669e-05 0.538158 0.924482 0 0 0 0 0 0 0 0 0 0 0 0 0 0 0 0 0 0 0 0 0 0 0 0 0 0 0 0 0 0 0 0 0 0 0 0 0 0 0 0 0 0
4.52368 2.03012e-05 9.2792e-06 1.1022e-05 0.542924 0.924945 0 0 0 0 0 0 0 0 0 0 0 0 0 0 0 0 0 0 0 0 0 0 0 0 0 0 0 0 0 0 0 0 0 0 0 0 0 0 0 0 0 0
4.75588 1.99897e-05 9.32244e-06 1.06673e-05 0.533638 0.921507 0 0 0 0 0 0 0 0 0 0 0 0 0 0 0 0 0 0 0 0 0 0 0 0 0 0 0 0 0 0 0 0 0 0 0 0 0 0 0 0 0 0
5 2.00442e-05 9.37223e-06 1.0672e-05 0.532422 0.921707 0 0 0 0 0 0 0 0 0 0 0 0 0 0 0 0 0 0 0 0 0 0 0 0 0 0 0 0 0 0 0 0 0 0 0 0 0 0 0 0 0 0
5.25665 2.06259e-05 9.43234e-06 1.11936e-05 0.542694 0.925974 0 0 0 0 0 0 0 0 0 0 0 0 0 0 0 0 0 0 0 0 0 0 0 0 0 0 0 0 0 0 0 0 0 0 0 0 0 0 0 0 0 0
5.52648 2.04615e-05 9.5282e-06 1.09333e-05 0.534335 0.925046 0 0 0 0 0 0 0 0 0 0 0 0 0 0 0 0 0 0 0 0 0 0 0 0 0 0 0 0 0 0 0 0 0 0 0 0 0 0 0 0 0 0
5.81015 2.00617e-05 9.61727e-06 1.04445e-05 0.520617 0.921559 0 0 0 0 0 0 0 0 0 0 0 0 0 0 0 0 0 0 0 0 0 0 0 0 0 0 0 0 0 0 0 0 0 0 0 0 0 0 0 0 0 0
6.10839 2.07086e-05 9.72318e-06 1.09855e-05 0.530477 0.925825 0 0 0 0 0 0 0 0 0 0 0 0 0 0 0 0 0 0 0 0 0 0 0 0 0 0 0 0 0 0 0 0 0 0 0 0 0 0 0 0 0 0
6.42193 2.10866e-05 9.79642e-06 1.12901e-05 0.535419 0.929324 0 0 0 0 0 0 0 0 0 0 0 0 0 0 0 0 0 0 0 0 0 0 0 0 0 0 0 0 0 0 0 0 0 0 0 0 0 0 0 0 0 0
6.75157 2.03142e-05 9.89678e-06 1.04174e-05 0.512815 0.928613 0 0 0 0 0 0 0 0 0 0 0 0 0 0 0 0 0 0 0 0 0 0 0 0 0 0 0 0 0 0 0 0 0 0 0 0 0 0 0 0 0 0
7.09813 2.09547e-05 1.00917e-05 1.0863e-05 0.518404 0.937851 0 0 0 0 0 0 0 0 0 0 0 0 0 0 0 0 0 0 0 0 0 0 0 0 0 0 0 0 0 0 0 0 0 0 0 0 0 0 0 0 0 0
7.46248 2.09826e-05 1.04848e-05 1.04978e-05 0.50031 0.940876 0 0 0 0 0 0 0 0 0 0 0 0 0 0 0 0 0 0 0 0 0 0 0 0 0 0 0 0 0 0 0 0 0 0 0 0 0 0 0 0 0 0
7.84553 2.058e-05 1.05146e-05 1.00655e-05 0.489089 0.959456 0 0 0 0 0 0 0 0 0 0 0 0 0 0 0 0 0 0 0 0 0 0 0 0 0 0 0 0 0 0 0 0 0 0 0 0 0 0 0 0 0 0
8.24824 1.93847e-05 1.003e-05 9.35473e-06 0.482583 0.952504 0 0 0 0 0 0 0 0 0 0 0 0 0 0 0 0 0 0 0 0 0 0 0 0 0 0 0 0 0 0 0 0 0 0 0 0 0 0 0 0 0 0
8.67162 1.97087e-05 9.74303e-06 9.96567e-06 0.505648 0.92724 0 0 0 0 0 0 0 0 0 0 0 0 0 0 0 0 0 0 0 0 0 0 0 0 0 0 0 0 0 0 0 0 0 0 0 0 0 0 0 0 0 0
9.11674 2.03906e-05 9.43321e-06 1.09574e-05 0.537375 0.88755 0 0 0 0 0 0 0 0 0 0 0 0 0 0 0 0 0 0 0 0 0 0 0 0 0 0 0 0 0 0 0 0 0 0 0 0 0 0 0 0 0 0
9.5847 2.11064e-05 9.42006e-06 1.16864e-05 0.553688 0.856184 0 0 0 0 0 0 0 0 0 0 0 0 0 0 0 0 0 0 0 0 0 0 0 0 0 0 0 0 0 0 0 0 0 0 0 0 0 0 0 0 0 0
10.0767 2.1475e-05 9.52234e-06 1.19527e-05 0.556585 0.842783 0 0 0 0 0 0 0 0 0 0 0 0 0 0 0 0 0 0 0 0 0 0 0 0 0 0 0 0 0 0 0 0 0 0 0 0 0 0 0 0 0 0
10.5939 2.17528e-05 9.57453e-06 1.21782e-05 0.559848 0.829828 0 0 0 0 0 0 0 0 0 0 0 0 0 0 0 0 0 0 0 0 0 0 0 0 0 0 0 0 0 0 0 0 0 0 0 0 0 0 0 0 0 0
11.1377 2.18564e-05 9.707e-06 1.21494e-05 0.555874 0.827455 0 0 0 0 0 0 0 0 0 0 0 0 0 0 0 0 0 0 0 0 0 0 0 0 0 0 0 0 0 0 0 0 0 0 0 0 0 0 0 0 0 0
11.7094 2.19296e-05 9.83487e-06 1.20947e-05 0.551525 0.826579 0 0 0 0 0 0 0 0 0 0 0 0 0 0 0 0 0 0 0 0 0 0 0 0 0 0 0 0 0 0 0 0 0 0 0 0 0 0 0 0 0 0
12.3105 2.1982e-05 9.99657e-06 1.19854e-05 0.545238 0.82863 0 0 0 0 0 0 0 0 0 0 0 0 0 0 0 0 0 0 0 0 0 0 0 0 0 0 0 0 0 0 1.4013e-45 0 2.8026e-45 0 7.00649e-45 0 1.68156e-44 0 3.50325e-44 0 7.28675e-44 0
12.9424 2.20417e-05 1.0217e-05 1.18247e-05 0.536469 0.834442 0 0 0 0 0 0 0 0 0 0 0 0 0 0 0 0 0 0 0 0 1.4013e-45 0 2.8026e-45 0 1.12104e-44 0 3.50325e-44 0 9.94922e-44 0 2.55036e-43 0 6.19374e-43 0 1.39709e-42 0 3.06884e-42 0 6.29043e-42 0 1.24183e-41 0
13.6067 2.2127e-05 1.0515e-05 1.16121e-05 0.524791 0.844626 0 0 0 0 0 0 0 0 0 0 0 0 0 0 1.4013e-45 0 8.40779e-45 0 4.2039e-44 0 1.82169e-43 0 6.75426e-43 0 2.17902e-42 0 6.2596e-42 0 1.6618e-41 0 4.09039e-41 0 9.50122e-41 0 2.05891e-40 0 4.35001e-40 0 8.61075e-40 0 1.64428e-39 0
14.3051 2.22285e-05 1.08696e-05 1.13589e-05 0.511006 0.858022 0 0 0 0 0 0 0 0 0 0 2.8026e-45 0 2.94273e-44 0 2.4803e-43 0 1.54703e-42 0 7.40166e-42 0 2.95338e-41 0 1.0249e-40 0 3.12013e-40 0 8.51639e-40 0 2.15549e-39 0 5.07725e-39 0 1.13182e-38 0 2.36177e-38 0 4.81092e-38 0 9.21087e-38 0 1.7042e-37 0
15.0394 2.23077e-05 1.10912e-05 1.12165e-05 0.502809 0.863801 0 0 0 0 0 0 0 0 1.96182e-44 0 4.28797e-43 0 5.0741e-42 0 3.8631e-41 0 2.19981e-40 0 9.75386e-40 0 3.63792e-39 0 1.18802e-38 0 3.42538e-38 0 8.90226e-38 0 2.15328e-37 0 4.86426e-37 0 1.04272e-36 0 2.09908e-36 0 4.12985e-36 0 7.66012e-36 0 1.37533e-35 0
15.8114 2.23596e-05 1.11722e-05 1.11874e-05 0.500341 0.86076 0 0 0 0 0 0 6.02558e-44 0 3.26503e-42 0 6.33289e-41 0 6.6488e-40 0 4.5844e-39 0 2.39801e-38 0 9.88698e-38 0 3.45802e-37 0 1.06587e-36 0 2.91835e-36 0 7.23896e-36 0 1.67706e-35 0 3.64069e-35 0 7.51912e-35 0 1.46283e-34 0 2.78451e-34 0 5.01129e-34 0 8.74404e-34 0
16.623 2.2466e-05 1.1164e-05 1.1302e-05 0.503072 0.850629 0 0 0 0 3.22299e-44 0 9.58488e-42 0 4.28499e-40 0 7.19189e-39 0 6.73171e-38 0 4.224e-37 0 2.03802e-36 0 7.84124e-36 0 2.57988e-35 0 7.52676e-35 0 1.96193e-34 0 4.65542e-34 0 1.03518e-33 0 2.1638e-33 0 4.31341e-33 0 8.12336e-33 0 1.49845e-32 0 2.62049e-32 0 4.44981e-32 0
17.4762 2.26788e-05 1.11127e-05 1.15661e-05 0.509996 0.834772 0 0 0 0 5.29551e-42 0 1.17443e-39 0 4.36155e-38 0 6.37868e-37 0 5.35292e-36 0 3.07077e-35 0 1.37203e-34 0 4.94273e-34 0 1.53437e-33 0 4.24849e-33 0 1.05681e-32 0 2.40408e-32 0 5.14117e-32 0 1.03664e-31 0 1.99804e-31 0 3.64835e-31 0 6.53161e-31 0 1.1115e-30 0 1.83925e-30 0
18.3733 2.29781e-05 1.10526e-05 1.19255e-05 0.518995 0.816203 0 0 3.92364e-44 0 6.59244e-40 0 1.12303e-37 0 3.49593e-36 0 4.48504e-35 0 3.3925e-34 0 1.78705e-33 0 7.4218e-33 0 2.51153e-32 0 7.37703e-32 0 1.94353e-31 0 4.62412e-31 0 1.01054e-30 0 2.08233e-30 0 4.05738e-30 0 7.57371e-30 0 1.34287e-29 0 2.33673e-29 0 3.87458e-29 0 6.25571e-29 0
19.3164 2.32842e-05 1.10101e-05 1.22741e-05 0.527143 0.798536 0 0 6.04941e-42 0 6.41364e-38 0 8.50175e-36 0 2.23756e-34 0 2.53438e-33 0 1.73669e-32 0 8.4354e-32 0 3.26804e-31 0 1.042e-30 0 2.90378e-30 0 7.29679e-30 0 1.66414e-29 0 3.50058e-29 0 6.96313e-29 0 1.31328e-28 0 2.37785e-28 0 4.09983e-28 0 6.94376e-28 0 1.12328e-27 0 1.77167e-27 0
