# 1.53474e-07 1 14 : grain size, compostion index, size index
# This grain was stochastically heated: Yes
# Heating and cooling timescale: 20711 4.94735
# Ratio of heating to cooling to determine stochastic cutoff: 100
# Equilibrium emission is recorded even for those grains in the stochastic regime.
# Emission spectrum was computed for: 
# Type: IRSF
# Scales:  0.5 1 2 5 10
# Temperature: -1
# Wavelength  CExt  CAbs  CSca  Albedo G EqEm1 StEm1 EqEm2 StEm2 EqEm3 StEm3 EqEm4 StEm4 EqEm5 StEm5
0.05 1.51329e-14 1.50917e-14 4.11486e-17 0.00271915 0.00519355 0 0 0 0 0 0 0 0 0 0
0.0525665 1.75272e-14 1.7483e-14 4.41747e-17 0.00252035 0.00462541 0 0 0 0 0 0 0 0 0 0
0.0552647 2.02314e-14 2.0184e-14 4.73817e-17 0.00234199 0.00411762 0 0 0 0 0 0 0 0 0 0
0.0581015 2.29614e-14 2.29114e-14 5.0041e-17 0.00217935 0.00366323 0 0 0 0 0 0 0 0 0 0
0.0610839 2.60381e-14 2.59848e-14 5.33002e-17 0.00204701 0.00322555 0 0 0 0 0 0 0 0 0 0
0.0642193 3.04437e-14 3.03841e-14 5.95384e-17 0.00195569 0.00278971 0 0 0 0 0 0 0 0 0 0
0.0675157 3.71977e-14 3.71274e-14 7.02721e-17 0.00188915 0.00234995 0 0 0 0 0 0 0 0 0 0
0.0709813 4.15334e-14 4.14604e-14 7.30554e-17 0.00175895 0.00196733 0 0 0 0 0 0 0 0 0 0
0.0746248 3.97425e-14 3.96783e-14 6.42524e-17 0.00161672 0.00169373 0 0 0 0 0 0 0 0 0 0
0.0784553 3.4042e-14 3.39919e-14 5.00955e-17 0.00147158 0.00151165 0 0 0 0 0 0 0 0 0 0
0.0824824 2.73965e-14 2.73611e-14 3.53095e-17 0.00128884 0.00141058 0 0 0 0 0 0 0 0 0 0
0.0867162 2.39256e-14 2.38984e-14 2.71998e-17 0.00113685 0.00135232 0 0 0 0 0 0 0 0 0 0
0.0911674 2.10934e-14 2.10706e-14 2.28274e-17 0.0010822 0.00131122 0 0 0 0 0 0 0 0 0 0
0.095847 1.65806e-14 1.65625e-14 1.81353e-17 0.00109377 0.00138082 0 0 0 0 0 0 0 0 0 0
0.100767 1.14359e-14 1.14235e-14 1.23746e-17 0.00108209 0.00161089 0 0 0 0 0 0 0 0 0 0
0.105939 7.49971e-15 7.49114e-15 8.57122e-18 0.00114287 0.00173934 0 0 0 0 0 0 0 0 0 0
0.111377 4.53764e-15 4.5324e-15 5.23695e-18 0.00115411 0.00199116 0 0 0 0 0 0 0 0 0 0
0.117094 3.4649e-15 3.46164e-15 3.26129e-18 0.000941237 0.00182655 0 0 0 0 0 0 0 0 0 0
0.123105 2.71098e-15 2.70886e-15 2.1234e-18 0.000783258 0.0015676 0 0 0 0 0 0 0 0 0 0
0.129424 2.27238e-15 2.27102e-15 1.3651e-18 0.000600736 0.0013185 0 0 0 0 0 0 0 0 0 0
0.136067 2.15065e-15 2.14976e-15 8.84031e-19 0.000411054 0.00111565 0 0 0 0 0 0 0 0 0 0
0.143051 2.22913e-15 2.22855e-15 5.8047e-19 0.000260402 0.000951766 0 0 0 0 0 0 0 0 0 0
0.150394 2.57034e-15 2.56995e-15 3.95328e-19 0.000153804 0.000812536 0 0 0 0 0 0 0 0 0 0
0.158114 3.11829e-15 3.118e-15 2.98865e-19 9.58424e-05 0.000695862 0 0 0 0 0 0 0 0 0 0
0.16623 3.90414e-15 3.90386e-15 2.75936e-19 7.06778e-05 0.000598266 0 0 0 0 0 0 0 0 0 0
0.174762 5.10873e-15 5.1084e-15 3.32283e-19 6.50421e-05 0.000514461 0 0 0 0 0 0 0 0 0 0
0.183733 6.85658e-15 6.85611e-15 4.74256e-19 6.9168e-05 0.000438205 0 0 0 0 0 0 0 0 0 0
0.193164 9.51741e-15 9.51666e-15 7.5325e-19 7.91444e-05 0.000364674 0 0 0 0 0 0 0 0 0 0
0.203079 1.25863e-14 1.25851e-14 1.15039e-18 9.14001e-05 0.000292434 0 0 0 0 0 0 0 0 0 0
0.213503 1.36067e-14 1.36052e-14 1.41362e-18 0.000103892 0.000224905 0 0 0 0 0 0 0 0 0 0
0.224463 1.04609e-14 1.04598e-14 1.17562e-18 0.000112382 0.000166529 0 0 0 0 0 0 0 0 0 0
0.235984 7.13095e-15 7.13015e-15 7.97448e-19 0.000111829 0.000118873 0 0 0 0 0 0 0 0 0 0
0.248097 5.05989e-15 5.05937e-15 5.15948e-19 0.000101968 9.10276e-05 0 0 0 0 0 0 0 0 0 0
0.260832 3.99772e-15 3.99737e-15 3.54201e-19 8.86007e-05 9.46121e-05 0 0 0 0 0 0 0 0 0 0
0.274221 3.29822e-15 3.29797e-15 2.55406e-19 7.74375e-05 0.00012642 0 0 0 0 0 0 0 0 0 0
0.288297 2.85014e-15 2.84995e-15 1.90328e-19 6.67787e-05 0.000169659 0 0 0 0 0 0 0 0 0 0
0.303095 2.50653e-15 2.50638e-15 1.46646e-19 5.85055e-05 0.000190292 0 0 0 0 0 0 0 0 0 0
0.318653 2.21256e-15 2.21244e-15 1.14175e-19 5.16034e-05 0.000198604 0 0 0 0 0 0 0 0 0 0
0.335009 1.98363e-15 1.98354e-15 8.99227e-20 4.53323e-05 0.00019534 0 0 0 0 0 0 0 0 0 0
0.352205 1.80676e-15 1.80669e-15 7.16963e-20 3.96823e-05 0.000185375 0 0 0 0 0 0 0 0 0 0
0.370284 1.659e-15 1.65894e-15 5.76707e-20 3.47624e-05 0.000173319 0 0 0 0 0 0 0 0 0 0
0.389291 1.52002e-15 1.51997e-15 4.67461e-20 3.07536e-05 0.000161598 0 0 0 0 0 0 0 0 0 0
0.409273 1.3872e-15 1.38716e-15 3.80044e-20 2.73965e-05 0.000150218 0 0 0 0 0 0 0 0 0 0
0.430281 1.26004e-15 1.26001e-15 3.09282e-20 2.45453e-05 0.000139403 0 0 0 0 0 0 0 0 0 0
0.452368 1.15064e-15 1.15062e-15 2.51658e-20 2.18711e-05 0.000128231 0 0 0 0 0 0 0 0 0 0
0.475588 1.05162e-15 1.0516e-15 2.04908e-20 1.94851e-05 0.00011753 0 0 0 0 0 0 0 0 0 0
0.5 9.67815e-16 9.67798e-16 1.67283e-20 1.72846e-05 0.000107262 0 0 0 0 0 0 0 0 0 0
0.525665 8.95478e-16 8.95464e-16 1.36713e-20 1.5267e-05 9.7554e-05 0 0 0 0 0 0 0 0 0 0
0.552647 8.27228e-16 8.27216e-16 1.11771e-20 1.35115e-05 8.87097e-05 0 0 0 0 0 0 0 0 0 0
0.581015 7.70539e-16 7.7053e-16 9.18251e-21 1.1917e-05 8.04901e-05 0 0 0 0 0 0 0 0 0 0
0.610839 7.16451e-16 7.16444e-16 7.54611e-21 1.05326e-05 7.30445e-05 0 0 0 0 0 0 0 1.4013e-45 0 8.40779e-45
0.642193 6.64795e-16 6.64789e-16 6.20027e-21 9.32658e-06 6.629e-05 0 0 0 0 0 2.8026e-45 0 3.92364e-44 0 2.18603e-43
0.675157 6.1697e-16 6.16964e-16 5.10031e-21 8.26671e-06 6.01888e-05 0 0 0 2.8026e-45 0 5.74532e-44 0 9.54284e-43 0 5.09372e-42
0.709813 5.72773e-16 5.72768e-16 4.2026e-21 7.33729e-06 5.47163e-05 0 1.82169e-44 0 9.10844e-44 0 1.30881e-42 0 1.95986e-41 0 1.01007e-40
0.746248 5.31254e-16 5.31251e-16 3.46351e-21 6.51949e-06 4.98269e-05 0 7.58102e-43 0 2.68068e-42 0 2.64677e-41 0 3.46903e-40 0 1.72334e-39
0.784553 4.91835e-16 4.91832e-16 2.85351e-21 5.80177e-06 4.53864e-05 0 2.58287e-41 0 7.2995e-41 0 4.84315e-40 0 5.36552e-39 0 2.55545e-38
0.824824 4.54998e-16 4.54995e-16 2.35043e-21 5.1658e-06 4.14013e-05 0 7.38077e-40 0 1.81095e-39 0 8.30203e-39 0 7.41511e-38 0 3.34375e-37
0.867162 4.20543e-16 4.20541e-16 1.93675e-21 4.60536e-06 3.78156e-05 0 1.7772e-38 0 4.00865e-38 0 1.36464e-37 0 9.41431e-37 0 3.93347e-36
0.911674 3.88181e-16 3.88179e-16 1.59504e-21 4.10902e-06 3.45718e-05 0 3.628e-37 0 7.7931e-37 0 2.15142e-36 0 1.13212e-35 0 4.26105e-35
0.95847 3.58206e-16 3.58204e-16 1.31253e-21 3.66417e-06 3.16645e-05 0 6.32955e-36 0 1.32176e-35 0 3.19471e-35 0 1.32096e-34 0 4.37328e-34
1.00767 3.3019e-16 3.30189e-16 1.08013e-21 3.27123e-06 2.90247e-05 0 9.49625e-35 0 1.95069e-34 0 4.35682e-34 0 1.49915e-33 0 4.34266e-33
1.05939 3.04684e-16 3.04683e-16 8.88506e-22 2.91616e-06 2.66301e-05 0 1.23632e-33 0 2.51505e-33 0 5.36763e-33 0 1.63185e-32 0 4.20646e-32
1.11377 2.80719e-16 2.80719e-16 7.30654e-22 2.60279e-06 2.44502e-05 0 1.40251e-32 0 2.83647e-32 0 5.89838e-32 0 1.66014e-31 0 3.91957e-31
1.17094 2.59453e-16 2.59452e-16 6.00586e-22 2.31482e-06 2.24152e-05 0 1.40187e-31 0 2.825e-31 0 5.78732e-31 0 1.55549e-30 0 3.46007e-30
1.23105 2.39848e-16 2.39847e-16 4.939e-22 2.05922e-06 2.05521e-05 0 1.23869e-30 0 2.49053e-30 0 5.05768e-30 0 1.32286e-29 0 2.83265e-29
1.29424 2.21671e-16 2.2167e-16 4.06295e-22 1.83288e-06 1.88383e-05 0 9.72853e-30 0 1.95319e-29 0 3.9458e-29 0 1.01549e-28 0 2.12349e-28
1.36067 2.04864e-16 2.04864e-16 3.34034e-22 1.63052e-06 1.72771e-05 0 6.83138e-29 0 1.37022e-28 0 2.75926e-28 0 7.03231e-28 0 1.44902e-27
1.43051 1.89355e-16 1.89355e-16 2.74499e-22 1.44965e-06 1.58547e-05 0 4.31281e-28 0 8.64495e-28 0 1.73738e-27 0 4.40139e-27 0 8.98568e-27
1.50394 1.75273e-16 1.75273e-16 2.25656e-22 1.28745e-06 1.45401e-05 0 2.46383e-27 0 4.93651e-27 0 9.90817e-27 0 2.50058e-26 0 5.07501e-26
1.58114 1.62419e-16 1.62419e-16 1.85507e-22 1.14215e-06 1.33144e-05 0 1.2795e-26 0 2.56278e-26 0 5.13945e-26 0 1.29388e-25 0 2.61587e-25
1.6623 1.50531e-16 1.50531e-16 1.52516e-22 1.01319e-06 1.21776e-05 0 6.06265e-26 0 1.21404e-25 0 2.43326e-25 0 6.11582e-25 0 1.23327e-24
1.74762 1.39341e-16 1.39341e-16 1.25407e-22 9e-07 1.11531e-05 0 2.62908e-25 0 5.26382e-25 0 1.05459e-24 0 2.64764e-24 0 5.32958e-24
1.83733 1.29012e-16 1.29012e-16 1.03105e-22 7.99191e-07 1.02167e-05 0 1.04938e-24 0 2.10075e-24 0 4.20755e-24 0 1.05551e-23 0 2.12206e-23
1.93164 1.19441e-16 1.19441e-16 8.47369e-23 7.09443e-07 9.35703e-06 0 3.86976e-24 0 7.74606e-24 0 1.55112e-23 0 3.88894e-23 0 7.81147e-23
2.03079 1.10671e-16 1.1067e-16 6.96249e-23 6.29118e-07 8.55927e-06 0 1.32464e-23 0 2.65131e-23 0 5.30829e-23 0 1.33032e-22 0 2.67036e-22
2.13503 1.02507e-16 1.02507e-16 5.72527e-23 5.58524e-07 7.82952e-06 0 4.21955e-23 0 8.44496e-23 0 1.69059e-22 0 4.23546e-22 0 8.49756e-22
2.24463 9.48892e-17 9.48892e-17 4.70575e-23 4.95921e-07 7.16451e-06 0 1.25485e-22 0 2.51129e-22 0 5.02684e-22 0 1.25907e-21 0 2.52506e-21
2.35984 8.79077e-17 8.79077e-17 3.86632e-23 4.39816e-07 6.55149e-06 0 3.50049e-22 0 7.00512e-22 0 1.4021e-21 0 3.51112e-21 0 7.03938e-21
2.48097 8.14669e-17 8.14669e-17 3.17607e-23 3.8986e-07 5.98527e-06 0 9.18461e-22 0 1.83793e-21 0 3.67844e-21 0 9.21001e-21 0 1.84604e-20
2.60832 7.54579e-17 7.54579e-17 2.61125e-23 3.46053e-07 5.46291e-06 0 2.27157e-21 0 4.54547e-21 0 9.09681e-21 0 2.27734e-20 0 4.56371e-20
2.74221 6.98025e-17 6.98025e-17 2.14614e-23 3.07459e-07 4.98746e-06 0 5.30714e-21 0 1.06194e-20 0 2.12515e-20 0 5.31959e-20 0 1.06585e-19
2.88297 6.45757e-17 6.45757e-17 1.76251e-23 2.72937e-07 4.5572e-06 0 1.17613e-20 0 2.35332e-20 0 4.70926e-20 0 1.17869e-19 0 2.36132e-19
3.03095 5.96835e-17 5.96835e-17 1.44771e-23 2.42564e-07 4.16655e-06 0 2.47637e-20 0 4.95486e-20 0 9.91486e-20 0 2.48141e-19 0 4.97048e-19
3.18653 5.51787e-17 5.51787e-17 1.18934e-23 2.15543e-07 3.80401e-06 0 4.97264e-20 0 9.94929e-20 0 1.99083e-19 0 4.98212e-19 0 9.97855e-19
3.35009 5.10101e-17 5.10101e-17 9.76754e-24 1.91482e-07 3.4707e-06 0 9.54243e-20 0 1.90921e-19 0 3.82018e-19 0 9.55953e-19 0 1.91447e-18
3.52205 4.71396e-17 4.71396e-17 8.01792e-24 1.70089e-07 3.16737e-06 0 1.75352e-19 0 3.50831e-19 0 7.01966e-19 0 1.75649e-18 0 3.5174e-18
3.70284 4.3564e-17 4.3564e-17 6.58451e-24 1.51146e-07 2.8901e-06 0 3.09368e-19 0 6.18947e-19 0 1.2384e-18 0 3.09862e-18 0 6.20461e-18
3.89291 4.0285e-17 4.0285e-17 5.4054e-24 1.34179e-07 2.6342e-06 0 5.25447e-19 0 1.05124e-18 0 2.10329e-18 0 5.26244e-18 0 1.05367e-17
4.09273 3.72598e-17 3.72598e-17 4.43682e-24 1.19078e-07 2.39263e-06 0 8.60509e-19 0 1.72155e-18 0 3.44438e-18 0 8.6175e-18 0 1.72534e-17
4.30281 3.4431e-17 3.44309e-17 3.64106e-24 1.0575e-07 2.17422e-06 0 1.35994e-18 0 2.72068e-18 0 5.44328e-18 0 1.36181e-17 0 2.72638e-17
4.52368 3.18069e-17 3.18069e-17 2.98893e-24 9.3971e-08 1.97541e-06 0 2.07906e-18 0 4.15931e-18 0 8.32141e-18 0 2.08179e-17 0 4.16763e-17
4.75588 2.93797e-17 2.93797e-17 2.45264e-24 8.34809e-08 1.7932e-06 0 3.08066e-18 0 6.16299e-18 0 1.23299e-17 0 3.08453e-17 0 6.1748e-17
5 2.71755e-17 2.71755e-17 2.012e-24 7.40373e-08 1.61892e-06 0 4.43826e-18 0 8.87883e-18 0 1.77631e-17 0 4.44362e-17 4.2039e-45 8.89515e-17
5.25665 2.50695e-17 2.50695e-17 1.65089e-24 6.58527e-08 1.46254e-06 0 6.20135e-18 0 1.24058e-17 0 2.48189e-17 0 6.20854e-17 2.8026e-43 1.24277e-16
5.52648 2.30993e-17 2.30993e-17 1.35452e-24 5.86388e-08 1.32277e-06 0 8.42841e-18 0 1.68608e-17 0 3.37313e-17 1.4013e-45 8.43782e-17 1.35099e-41 1.68896e-16
5.81015 2.12926e-17 2.12926e-17 1.11064e-24 5.21607e-08 1.19495e-06 0 1.1176e-17 0 2.23571e-17 0 4.47265e-17 9.3887e-44 1.1188e-16 5.30348e-40 2.2394e-16
6.10839 1.96456e-17 1.96456e-17 9.10419e-25 4.63421e-08 1.07558e-06 0 1.44845e-17 0 2.89755e-17 0 5.79663e-17 4.62148e-42 1.44996e-16 1.714e-38 2.90217e-16
6.42193 1.80791e-17 1.80791e-17 7.46298e-25 4.12795e-08 9.77426e-07 0 1.83064e-17 0 3.66205e-17 1.4013e-45 7.32597e-17 1.84795e-40 1.83248e-16 4.5882e-37 3.66771e-16
6.75157 1.66988e-17 1.66988e-17 6.11844e-25 3.664e-08 8.72619e-07 0 2.27297e-17 0 4.54687e-17 7.28675e-44 9.09598e-17 6.09367e-39 2.27518e-16 1.03294e-35 4.5537e-16
7.09813 1.54077e-17 1.54077e-17 5.01333e-25 3.25379e-08 7.81264e-07 0 2.76248e-17 0 5.52606e-17 3.4556e-42 1.10548e-16 1.66539e-37 2.7651e-16 1.96359e-34 5.53413e-16
7.46248 1.4231e-17 1.4231e-17 4.10658e-25 2.88567e-08 6.97392e-07 0 3.29655e-17 1.68156e-44 6.59435e-17 1.33966e-40 1.31918e-16 3.81442e-36 3.29958e-16 3.18419e-33 6.60375e-16
7.84553 1.31697e-17 1.31697e-17 3.36508e-25 2.55517e-08 6.16018e-07 0 3.86977e-17 8.46384e-43 7.74098e-17 4.28412e-39 1.54855e-16 7.39283e-35 3.87324e-16 4.44363e-32 7.75173e-16
8.24824 1.21722e-17 1.21722e-17 2.75654e-25 2.26463e-08 5.40959e-07 4.2039e-45 4.45833e-17 3.40726e-41 8.91825e-17 1.13694e-37 1.78404e-16 1.2185e-33 4.46221e-16 5.35888e-31 8.93035e-16
8.67162 1.1248e-17 1.1248e-17 2.25655e-25 2.00617e-08 4.75732e-07 1.84971e-43 5.05067e-17 1.12651e-39 1.01031e-16 2.52959e-36 2.02105e-16 1.72334e-32 5.05496e-16 5.63073e-30 1.01165e-15
9.11674 1.04145e-17 1.04145e-17 1.84724e-25 1.77372e-08 4.16972e-07 7.78141e-42 5.64283e-17 3.09562e-38 1.12875e-16 4.76913e-35 2.25798e-16 2.11155e-31 5.64751e-16 5.20049e-29 1.13022e-15
9.5847 9.67385e-18 9.67385e-18 1.51155e-25 1.56252e-08 3.64227e-07 2.6918e-40 6.23002e-17 7.1446e-37 1.24621e-16 7.6919e-34 2.49292e-16 2.26034e-30 6.23506e-16 4.25457e-28 1.24779e-15
10.0767 9.02103e-18 9.02103e-18 1.23633e-25 1.3705e-08 3.15771e-07 7.73909e-39 6.80657e-17 1.39784e-35 1.36153e-16 1.07023e-32 2.7236e-16 2.12956e-29 6.81196e-16 3.10394e-27 1.36323e-15
10.5939 8.44531e-18 8.44531e-18 1.01046e-25 1.19647e-08 2.67801e-07 1.86661e-37 7.36401e-17 2.33783e-34 1.47303e-16 1.29426e-31 2.94662e-16 1.77735e-28 7.36971e-16 2.03123e-26 1.47483e-15
11.1377 7.96488e-18 7.96488e-18 8.25229e-26 1.03609e-08 2.24243e-07 3.82314e-36 7.92182e-17 3.38013e-33 1.5846e-16 1.3747e-30 3.1698e-16 1.32666e-27 7.92783e-16 1.203e-25 1.58651e-15
11.7094 7.45736e-18 7.45736e-18 6.80237e-26 9.12169e-09 1.86244e-07 6.60761e-35 8.3553e-17 4.19466e-32 1.6713e-16 1.27226e-29 3.34322e-16 8.77833e-27 8.36151e-16 6.38771e-25 1.67328e-15
12.3105 7.11194e-18 7.11194e-18 5.53102e-26 7.7771e-09 1.46076e-07 9.96664e-34 8.87019e-17 4.61704e-31 1.77429e-16 1.05942e-28 3.54921e-16 5.3125e-26 8.87665e-16 3.13563e-24 1.77635e-15
12.9424 6.79879e-18 6.79879e-18 4.51636e-26 6.64288e-09 1.05445e-07 1.30086e-32 9.33295e-17 4.46571e-30 1.86684e-16 7.85841e-28 3.73435e-16 2.90891e-25 9.33961e-16 1.40698e-23 1.86899e-15
13.6067 6.54854e-18 6.54854e-18 3.68793e-26 5.63169e-09 7.35221e-08 1.4875e-31 9.78763e-17 3.83985e-29 1.95778e-16 5.24961e-27 3.91624e-16 1.45587e-24 9.79447e-16 5.82685e-23 1.95999e-15
14.3051 6.379e-18 6.379e-18 3.00906e-26 4.71713e-09 4.44329e-08 1.50591e-30 1.02743e-16 2.96416e-28 2.05513e-16 3.18739e-26 4.11095e-16 6.71669e-24 1.02814e-15 2.2451e-22 2.05741e-15
15.0394 6.29265e-18 6.29265e-18 2.45371e-26 3.89933e-09 1.84818e-08 1.36043e-29 1.08151e-16 2.06905e-27 2.16329e-16 1.77058e-25 4.3273e-16 2.87331e-23 1.08224e-15 8.09188e-22 2.16566e-15
15.8114 6.30751e-18 6.30751e-18 2.0008e-26 3.1721e-09 -6.04767e-09 1.10719e-28 1.14599e-16 1.31758e-26 2.29225e-16 9.0736e-25 4.58525e-16 1.1485e-22 1.14674e-15 2.74803e-21 2.29472e-15
16.623 6.42154e-18 6.42154e-18 1.63119e-26 2.54019e-09 -2.99921e-08 8.16242e-28 1.22237e-16 7.69198e-26 2.44503e-16 4.30825e-24 4.89083e-16 4.30534e-22 1.22316e-15 8.82212e-21 2.44762e-15
17.4762 6.64804e-18 6.64804e-18 1.32916e-26 1.99933e-09 -5.20736e-08 5.48777e-27 1.31462e-16 4.14215e-25 2.62953e-16 1.90604e-23 5.25987e-16 1.52126e-21 1.31545e-15 2.68989e-20 2.63226e-15
18.3733 7.019e-18 7.019e-18 1.08248e-26 1.54222e-09 -7.55908e-08 3.39257e-26 1.43019e-16 2.07337e-24 2.8607e-16 7.91391e-23 5.72225e-16 5.10032e-21 1.43107e-15 7.83823e-20 2.86361e-15
19.3164 7.5444e-18 7.5444e-18 8.82705e-27 1.17001e-09 -9.69427e-08 1.93482e-25 1.57179e-16 9.67345e-24 3.14391e-16 3.09081e-22 6.28874e-16 1.62534e-20 1.57273e-15 2.1859e-19 3.14704e-15
20.3079 8.24856e-18 8.24856e-18 7.20266e-27 8.73201e-10 -1.23381e-07 1.02205e-24 1.7442e-16 4.22145e-23 3.48875e-16 1.13893e-21 6.97849e-16 4.93572e-20 1.74522e-15 5.84694e-19 3.49215e-15
21.3503 9.18933e-18 9.18933e-18 5.88345e-27 6.40247e-10 -1.40017e-07 5.03202e-24 1.95839e-16 1.73314e-22 3.91715e-16 3.98107e-21 7.83538e-16 1.43528e-19 1.9595e-15 1.50695e-18 3.92087e-15
22.4463 1.04236e-17 1.04236e-17 4.8214e-27 4.62548e-10 -1.58365e-07 2.31755e-23 2.22395e-16 6.71542e-22 4.4483e-16 1.32368e-20 8.89777e-16 4.00591e-19 2.22516e-15 3.74978e-18 4.4524e-15
23.5984 1.19964e-17 1.19964e-17 3.97469e-27 3.31322e-10 -1.69028e-07 9.99064e-23 2.54618e-16 2.45615e-21 5.09281e-16 4.18553e-20 1.01869e-15 1.07242e-18 2.54753e-15 9.00012e-18 5.09735e-15
24.8097 1.39219e-17 1.39219e-17 3.30498e-27 2.37393e-10 -1.9094e-07 4.02223e-22 2.92174e-16 8.45727e-21 5.84395e-16 1.25487e-19 1.16893e-15 2.74435e-18 2.92321e-15 2.07594e-17 5.84898e-15
26.0832 1.61811e-17 1.61811e-17 2.78368e-27 1.72033e-10 -1.99824e-07 1.50769e-21 3.33857e-16 2.73208e-20 6.67766e-16 3.55363e-19 1.33568e-15 6.68493e-18 3.34018e-15 4.58106e-17 6.68316e-15
27.4221 1.86108e-17 1.86108e-17 2.37702e-27 1.27723e-10 -2.1187e-07 5.21766e-21 3.75461e-16 8.20782e-20 7.50976e-16 9.41904e-19 1.50211e-15 1.53536e-17 3.75633e-15 9.57783e-17 7.51566e-15
28.8297 2.08463e-17 2.08463e-17 2.06397e-27 9.90091e-11 -2.16018e-07 1.64618e-20 4.0911e-16 2.26359e-19 8.18274e-16 2.30587e-18 1.63671e-15 3.27984e-17 4.09286e-15 1.87109e-16 8.18882e-15
30.3095 2.26306e-17 2.26306e-17 1.81426e-27 8.01686e-11 -2.19666e-07 4.72738e-20 4.29938e-16 5.71959e-19 8.59927e-16 5.20217e-18 1.72002e-15 6.49991e-17 4.3011e-15 3.40585e-16 8.60525e-15
31.8653 2.3151e-17 2.3151e-17 1.59404e-27 6.8854e-11 -2.1227e-07 1.20514e-19 4.23825e-16 1.29097e-18 8.47696e-16 1.0542e-17 1.69554e-15 1.16439e-16 4.23981e-15 5.62726e-16 8.48241e-15
33.5009 2.26951e-17 2.26951e-17 1.39815e-27 6.16058e-11 -2.07135e-07 2.78144e-19 3.98645e-16 2.6538e-18 7.97327e-16 1.9559e-17 1.59478e-15 1.92128e-16 3.98777e-15 8.59772e-16 7.97794e-15
35.2206 2.08274e-17 2.08274e-17 1.19736e-27 5.74898e-11 -1.97293e-07 5.69356e-19 3.49602e-16 4.86579e-18 6.99232e-16 3.25296e-17 1.39856e-15 2.8581e-16 3.49705e-15 1.18876e-15 6.99596e-15
37.0284 1.84336e-17 1.84336e-17 1.0128e-27 5.49435e-11 -1.81787e-07 1.0677e-18 2.94578e-16 8.21726e-18 5.89176e-16 5.00687e-17 1.17842e-15 3.95626e-16 2.94652e-15 1.53491e-15 5.89441e-15
38.9291 1.58064e-17 1.58064e-17 8.41369e-28 5.32295e-11 -1.73454e-07 1.84731e-18 2.39639e-16 1.2869e-17 4.7929e-16 7.17901e-17 9.58622e-16 5.12807e-16 2.39688e-15 1.8621e-15 4.79467e-15
40.9273 1.33148e-17 1.33148e-17 6.92212e-28 5.19881e-11 -1.57337e-07 2.99717e-18 1.90892e-16 1.89914e-17 3.8179e-16 9.7416e-17 7.63604e-16 6.32165e-16 1.90921e-15 2.15545e-15 3.81897e-15
43.0282 1.11392e-17 1.11392e-17 5.64719e-28 5.06966e-11 -1.28345e-07 4.62059e-18 1.50571e-16 2.67543e-17 3.01145e-16 1.26706e-16 6.023e-16 7.50489e-16 1.50586e-15 2.41017e-15 3.01199e-15
45.2368 9.28471e-18 9.28471e-18 4.59159e-28 4.94532e-11 -9.87495e-08 6.80471e-18 1.18009e-16 3.61634e-17 2.36016e-16 1.58744e-16 4.72033e-16 8.62039e-16 1.18012e-15 2.61515e-15 2.36032e-15
47.5588 7.78788e-18 7.78788e-18 3.72402e-28 4.78181e-11 -7.21474e-08 9.68912e-18 9.2843e-17 4.74595e-17 1.85683e-16 1.93815e-16 3.7136e-16 9.69043e-16 9.28389e-16 2.78477e-15 1.85671e-15
50 6.53212e-18 6.53212e-18 3.02089e-28 4.62467e-11 -2.37048e-08 1.32804e-17 7.28787e-17 6.01952e-17 1.45753e-16 2.29505e-16 2.91496e-16 1.06079e-15 7.28696e-16 2.89537e-15 1.45723e-15
52.5665 5.52116e-18 5.52116e-18 2.44906e-28 4.43577e-11 3.04744e-08 1.76914e-17 5.75344e-17 7.44848e-17 1.15064e-16 2.66025e-16 2.30114e-16 1.14106e-15 5.75218e-16 2.96558e-15 1.1502e-15
55.2648 4.69336e-18 4.69336e-18 1.98586e-28 4.2312e-11 5.46813e-08 2.29e-17 4.55999e-17 8.98796e-17 9.11944e-17 3.01666e-16 1.82374e-16 1.20518e-15 4.5585e-16 2.98969e-15 9.1142e-16
58.1015 4.01418e-18 4.01418e-18 1.61249e-28 4.01698e-11 8.97832e-08 2.88635e-17 3.63064e-17 1.0597e-16 7.26073e-17 3.35257e-16 1.45198e-16 1.25186e-15 3.62901e-16 2.97098e-15 7.25493e-16
61.0839 3.45131e-18 3.45131e-18 1.30984e-28 3.7952e-11 1.20986e-07 3.5449e-17 2.90193e-17 1.22142e-16 5.8033e-17 3.65298e-16 1.16049e-16 1.27914e-15 2.90022e-16 2.91062e-15 5.79716e-16
