# 3.1623e-06 0 78 : grain size, compostion index, size index
# Heating and cooling timescale: 1.62527 9860.94
# Ratio of heating to cooling to determine stochastic cutoff: 100
# Equilibrium emission is recorded even for those grains in the stochastic regime.
# Emission spectrum was computed for: 
# Type: IRSF
# Scales: 0.25 0.5 1 1.5 2 2.5 3 3.5 4 4.5 5 5.5 6 6.5 7 7.5 8 8.5 9 9.5 10
# StochasticallyHeated: 0 0 0 0 0 0 0 0 0 0 0 0 0 0 0 0 0 0 0 0 0
# Temperature: -1
# Wavelength  CExt  CAbs  CSca  Albedo G EqEm1 StEm1 EqEm2 StEm2 EqEm3 StEm3 EqEm4 StEm4 EqEm5 StEm5 EqEm6 StEm6 EqEm7 StEm7 EqEm8 StEm8 EqEm9 StEm9 EqEm10 StEm10 EqEm11 StEm11 EqEm12 StEm12 EqEm13 StEm13 EqEm14 StEm14 EqEm15 StEm15 EqEm16 StEm16 EqEm17 StEm17 EqEm18 StEm18 EqEm19 StEm19 EqEm20 StEm20 EqEm21 StEm21
0.05 2.37029e-11 1.24765e-11 1.12265e-11 0.473632 0.00576547 0 0 0 0 0 0 0 0 0 0 0 0 0 0 0 0 0 0 0 0 0 0 0 0 0 0 0 0 0 0 0 0 0 0 0 0 0 0 0 0 0 0
0.0525665 2.61987e-11 1.37902e-11 1.24086e-11 0.473632 0.00637255 0 0 0 0 0 0 0 0 0 0 0 0 0 0 0 0 0 0 0 0 0 0 0 0 0 0 0 0 0 0 0 0 0 0 0 0 0 0 0 0 0 0
0.0552647 2.89573e-11 1.52422e-11 1.37151e-11 0.473632 0.00704355 0 0 0 0 0 0 0 0 0 0 0 0 0 0 0 0 0 0 0 0 0 0 0 0 0 0 0 0 0 0 0 0 0 0 0 0 0 0 0 0 0 0
0.0581015 3.20064e-11 1.68471e-11 1.51593e-11 0.473632 0.0077852 0 0 0 0 0 0 0 0 0 0 0 0 0 0 0 0 0 0 0 0 0 0 0 0 0 0 0 0 0 0 0 0 0 0 0 0 0 0 0 0 0 0
0.0610839 3.53765e-11 1.86211e-11 1.67555e-11 0.473632 0.00860494 0 0 0 0 0 0 0 0 0 0 0 0 0 0 0 0 0 0 0 0 0 0 0 0 0 0 0 0 0 0 0 0 0 0 0 0 0 0 0 0 0 0
0.0642193 3.91015e-11 2.05818e-11 1.85197e-11 0.473632 0.009511 0 0 0 0 0 0 0 0 0 0 0 0 0 0 0 0 0 0 0 0 0 0 0 0 0 0 0 0 0 0 0 0 0 0 0 0 0 0 0 0 0 0
0.0675157 4.32187e-11 2.27489e-11 2.04698e-11 0.473632 0.0105125 0 0 0 0 0 0 0 0 0 0 0 0 0 0 0 0 0 0 0 0 0 0 0 0 0 0 0 0 0 0 0 0 0 0 0 0 0 0 0 0 0 0
0.0709813 4.77694e-11 2.51443e-11 2.26251e-11 0.473632 0.0116194 0 0 0 0 0 0 0 0 0 0 0 0 0 0 0 0 0 0 0 0 0 0 0 0 0 0 0 0 0 0 0 0 0 0 0 0 0 0 0 0 0 0
0.0746248 5.27993e-11 2.77918e-11 2.50075e-11 0.473632 0.0128428 0 0 0 0 0 0 0 0 0 0 0 0 0 0 0 0 0 0 0 0 0 0 0 0 0 0 0 0 0 0 0 0 0 0 0 0 0 0 0 0 0 0
0.0784553 5.83588e-11 3.07182e-11 2.76406e-11 0.473632 0.0141951 0 0 0 0 0 0 0 0 0 0 0 0 0 0 0 0 0 0 0 0 0 0 0 0 0 0 0 0 0 0 0 0 0 0 0 0 0 0 0 0 0 0
0.0824824 6.45037e-11 3.39527e-11 3.0551e-11 0.473632 0.0156898 0 0 0 0 0 0 0 0 0 0 0 0 0 0 0 0 0 0 0 0 0 0 0 0 0 0 0 0 0 0 0 0 0 0 0 0 0 0 0 0 0 0
0.0867162 7.12957e-11 3.75277e-11 3.37679e-11 0.473632 0.0173419 0 0 0 0 0 0 0 0 0 0 0 0 0 0 0 0 0 0 0 0 0 0 0 0 0 0 0 0 0 0 0 0 0 0 0 0 0 0 0 0 0 0
0.0911674 7.88028e-11 4.14792e-11 3.73235e-11 0.473632 0.0191679 0 0 0 0 0 0 0 0 0 0 0 0 0 0 0 0 0 0 0 0 0 0 0 0 0 0 0 0 0 0 0 0 0 0 0 0 0 0 0 0 0 0
0.095847 8.71003e-11 4.58468e-11 4.12535e-11 0.473632 0.0211862 0 0 0 0 0 0 0 0 0 0 0 0 0 0 0 0 0 0 0 0 0 0 0 0 0 0 0 0 0 0 0 0 0 0 0 0 0 0 0 0 0 0
0.100767 9.49061e-11 5.01963e-11 4.47098e-11 0.471095 0.0235692 0 0 0 0 0 0 0 0 0 0 0 0 0 0 0 0 0 0 0 0 0 0 0 0 0 0 0 0 0 0 0 0 0 0 0 0 0 0 0 0 0 0
0.105939 9.51714e-11 5.17188e-11 4.34526e-11 0.456572 0.0256046 0 0 0 0 0 0 0 0 0 0 0 0 0 0 0 0 0 0 0 0 0 0 0 0 0 0 0 0 0 0 0 0 0 0 0 0 0 0 0 0 0 0
0.111377 9.64637e-11 5.218e-11 4.42837e-11 0.459071 0.0289403 0 0 0 0 0 0 0 0 0 0 0 0 0 0 0 0 0 0 0 0 0 0 0 0 0 0 0 0 0 0 0 0 0 0 0 0 0 0 0 0 0 0
0.117094 1.00514e-10 5.08276e-11 4.96864e-11 0.494324 0.0274507 0 0 0 0 0 0 0 0 0 0 0 0 0 0 0 0 0 0 0 0 0 0 0 0 0 0 0 0 0 0 0 0 0 0 0 0 0 0 0 0 0 0
0.123105 9.80032e-11 4.44399e-11 5.35633e-11 0.546546 0.0236555 0 0 0 0 0 0 0 0 0 0 0 0 0 0 0 0 0 0 0 0 0 0 0 0 0 0 0 0 0 0 0 0 0 0 0 0 0 0 0 0 0 0
0.129424 8.6217e-11 3.97949e-11 4.6422e-11 0.538433 0.0199126 0 0 0 0 0 0 0 0 0 0 0 0 0 0 0 0 0 0 0 0 0 0 0 0 0 0 0 0 0 0 0 0 0 0 0 0 0 0 0 0 0 0
0.136067 6.79894e-11 3.44356e-11 3.35538e-11 0.493515 0.0168557 0 0 0 0 0 0 0 0 0 0 0 0 0 0 0 0 0 0 0 0 0 0 0 0 0 0 0 0 0 0 0 0 0 0 0 0 0 0 0 0 0 0
0.143051 5.25965e-11 2.99742e-11 2.26223e-11 0.430111 0.0143876 0 0 0 0 0 0 0 0 0 0 0 0 0 0 0 0 0 0 0 0 0 0 0 0 0 0 0 0 0 0 0 0 0 0 0 0 0 0 0 0 0 0
0.150394 4.28127e-11 2.78491e-11 1.49636e-11 0.349513 0.0122986 0 0 0 0 0 0 0 0 0 0 0 0 0 0 0 0 0 0 0 0 0 0 0 0 0 0 0 0 0 0 0 0 0 0 0 0 0 0 0 0 0 0
0.158114 3.78019e-11 2.78189e-11 9.98295e-12 0.264086 0.01055 0 0 0 0 0 0 0 0 0 0 0 0 0 0 0 0 0 0 0 0 0 0 0 0 0 0 0 0 0 0 0 0 0 0 0 0 0 0 0 0 0 0
0.16623 3.66951e-11 2.94124e-11 7.28267e-12 0.198465 0.00908216 0 0 0 0 0 0 0 0 0 0 0 0 0 0 0 0 0 0 0 0 0 0 0 0 0 0 0 0 0 0 0 0 0 0 0 0 0 0 0 0 0 0
0.174762 3.84132e-11 3.20463e-11 6.3669e-12 0.165748 0.00782097 0 0 0 0 0 0 0 0 0 0 0 0 0 0 0 0 0 0 0 0 0 0 0 0 0 0 0 0 0 0 0 0 0 0 0 0 0 0 0 0 0 0
0.183733 4.26402e-11 3.57657e-11 6.87451e-12 0.161221 0.00667218 0 0 0 0 0 0 0 0 0 0 0 0 0 0 0 0 0 0 0 0 0 0 0 0 0 0 0 0 0 0 0 0 0 0 0 0 0 0 0 0 0 0
0.193164 5.07592e-11 4.15111e-11 9.24812e-12 0.182196 0.00556038 0 0 0 0 0 0 0 0 0 0 0 0 0 0 0 0 0 0 0 0 0 0 0 0 0 0 0 0 0 0 0 0 0 0 0 0 0 0 0 0 0 0
0.203079 6.33052e-11 4.94977e-11 1.38075e-11 0.218111 0.00446034 0 0 0 0 0 0 0 0 0 0 0 0 0 0 0 0 0 0 0 0 0 0 0 0 0 0 0 0 0 0 0 0 0 0 0 0 0 0 0 0 0 0
0.213503 7.87421e-11 5.84492e-11 2.02929e-11 0.257713 0.00342932 0 0 0 0 0 0 0 0 0 0 0 0 0 0 0 0 0 0 0 0 0 0 0 0 0 0 0 0 0 0 0 0 0 0 0 0 0 0 0 0 0 0
0.224463 9.25614e-11 6.53139e-11 2.72475e-11 0.294372 0.00254317 0 0 0 0 0 0 0 0 0 0 0 0 0 0 0 0 0 0 0 0 0 0 0 0 0 0 0 0 0 0 0 0 0 0 0 0 0 0 0 0 0 0
0.235984 9.94003e-11 6.74582e-11 3.19421e-11 0.321348 0.00182186 0 0 0 0 0 0 0 0 0 0 0 0 0 0 0 0 0 0 0 0 0 0 0 0 0 0 0 0 0 0 0 0 0 0 0 0 0 0 0 0 0 0
0.248097 9.64658e-11 6.41605e-11 3.23052e-11 0.334888 0.00138916 0 0 0 0 0 0 0 0 0 0 0 0 0 0 0 0 0 0 0 0 0 0 0 0 0 0 0 0 0 0 0 0 0 0 0 0 0 0 0 0 0 0
0.260832 8.54129e-11 5.68874e-11 2.85255e-11 0.333971 0.00141961 0 0 0 0 0 0 0 0 0 0 0 0 0 0 0 0 0 0 0 0 0 0 0 0 0 0 0 0 0 0 0 0 0 0 0 0 0 0 0 0 0 0
0.274221 7.16615e-11 4.88521e-11 2.28094e-11 0.318294 0.00187131 0 0 0 0 0 0 0 0 0 0 0 0 0 0 0 0 0 0 0 0 0 0 0 0 0 0 0 0 0 0 0 0 0 0 0 0 0 0 0 0 0 0
0.288297 5.88476e-11 4.1628e-11 1.72196e-11 0.292614 0.00251556 0 0 0 0 0 0 0 0 0 0 0 0 0 0 0 0 0 0 0 0 0 0 0 0 0 0 0 0 0 0 0 0 0 0 0 0 0 0 0 0 0 0
0.303095 4.73864e-11 3.47426e-11 1.26438e-11 0.266824 0.0028362 0 0 0 0 0 0 0 0 0 0 0 0 0 0 0 0 0 0 0 0 0 0 0 0 0 0 0 0 0 0 0 0 0 0 0 0 0 0 0 0 0 0
0.318653 3.80476e-11 2.87922e-11 9.25541e-12 0.243258 0.00297223 0 0 0 0 0 0 0 0 0 0 0 0 0 0 0 0 0 0 0 0 0 0 0 0 0 0 0 0 0 0 0 0 0 0 0 0 0 0 0 0 0 0
0.335009 3.15505e-11 2.46528e-11 6.89772e-12 0.218625 0.00293231 0 0 0 0 0 0 0 0 0 0 0 0 0 0 0 0 0 0 0 0 0 0 0 0 0 0 0 0 0 0 0 0 0 0 0 0 0 0 0 0 0 0
0.352205 2.73211e-11 2.20389e-11 5.28219e-12 0.193338 0.00278811 0 0 0 0 0 0 0 0 0 0 0 0 0 0 0 0 0 0 0 0 0 0 0 0 0 0 0 0 0 0 0 0 0 0 0 0 0 0 0 0 0 0
0.370284 2.44615e-11 2.03061e-11 4.15541e-12 0.169875 0.00261033 0 0 0 0 0 0 0 0 0 0 0 0 0 0 0 0 0 0 0 0 0 0 0 0 0 0 0 0 0 0 0 0 0 0 0 0 0 0 0 0 0 0
0.389291 2.23079e-11 1.89682e-11 3.33966e-12 0.149708 0.00243645 0 0 0 0 0 0 0 0 0 0 0 0 0 0 0 0 0 0 0 0 0 0 0 0 0 0 0 0 0 0 0 0 0 0 0 0 0 0 0 0 0 0
0.409273 2.04657e-11 1.77457e-11 2.71996e-12 0.132904 0.00226652 0 0 0 0 0 0 0 0 0 0 0 0 0 0 0 0 0 0 0 0 0 0 0 0 0 0 0 0 0 0 0 0 0 0 0 0 0 0 0 0 0 0
0.430281 1.87599e-11 1.65307e-11 2.22914e-12 0.118825 0.00210471 0 0 0 0 0 0 0 0 0 0 0 0 0 0 0 0 0 0 0 0 0 0 0 0 0 0 0 0 0 0 0 0 0 0 0 0 0 0 0 0 0 0
0.452368 1.71464e-11 1.53172e-11 1.82912e-12 0.106677 0.00193723 0 0 0 0 0 0 0 0 0 0 0 0 0 0 0 0 0 0 0 0 0 0 0 0 0 0 0 0 0 0 0 0 0 0 0 0 0 0 0 0 0 0
0.475588 1.56425e-11 1.4143e-11 1.49948e-12 0.0958591 0.00177642 0 0 0 0 0 0 0 0 0 0 0 0 0 0 0 0 0 0 0 0 0 0 0 0 0 0 0 0 0 0 0 0 0 0 0 0 0 0 0 0 0 0
0.5 1.42752e-11 1.30477e-11 1.22744e-12 0.085984 0.00162159 0 0 0 0 0 0 0 0 0 0 0 0 0 0 0 0 0 0 0 0 0 0 0 0 0 0 0 0 0 0 0 0 0 0 0 0 0 0 0 0 0 0
0.525665 1.30626e-11 1.20586e-11 1.00405e-12 0.0768645 0.0014751 0 0 0 0 0 0 0 0 0 0 0 0 0 0 0 0 0 0 0 0 0 0 0 0 0 0 0 0 0 0 0 0 0 0 0 0 0 0 0 0 0 0
0.552648 1.20049e-11 1.11833e-11 8.21522e-13 0.0684325 0.00134175 0 0 0 0 0 0 0 0 0 0 0 0 0 0 0 0 0 0 0 0 0 0 0 0 0 0 0 0 0 0 0 0 0 0 0 0 0 0 0 0 0 0
0.581015 1.10911e-11 1.04181e-11 6.72942e-13 0.0606743 0.00121775 0 0 0 0 0 0 0 0 0 0 0 0 0 0 0 0 0 0 0 0 0 0 0 0 0 0 0 0 0 0 0 0 0 0 0 0 0 0 0 0 0 0
0.610839 1.03003e-11 9.74807e-12 5.5225e-13 0.0536148 0.00110516 0 0 0 0 0 0 0 0 0 0 0 0 0 0 0 0 0 0 0 0 0 0 0 0 0 0 0 0 0 0 0 0 0 0 0 0 0 0 0 0 0 0
0.642193 9.61266e-12 9.15838e-12 4.54286e-13 0.0472591 0.00100302 0 0 0 0 0 0 0 0 0 0 0 0 0 0 0 0 0 0 0 0 0 0 0 0 0 0 0 0 0 0 0 0 0 0 0 0 0 0 0 0 0 0
0.675157 9.00622e-12 8.63156e-12 3.74659e-13 0.0416 0.000910957 0 0 0 0 0 0 0 0 0 0 0 0 0 0 0 0 0 0 0 0 0 0 0 0 0 0 0 0 0 0 0 0 0 0 0 0 0 0 0 0 0 0
0.709813 8.46215e-12 8.1524e-12 3.09752e-13 0.0366044 0.00082817 0 0 0 0 0 0 0 0 0 0 0 0 0 0 0 0 0 0 0 0 0 0 0 0 0 0 0 0 0 0 0 0 0 0 0 0 0 0 0 0 0 0
0.746248 7.96438e-12 7.7077e-12 2.56678e-13 0.0322282 0.000754183 0 0 0 0 0 0 0 0 0 0 0 0 0 0 0 0 0 0 0 0 0 0 0 0 0 0 0 0 0 0 0 0 0 0 0 0 0 0 0 0 0 0
0.784553 7.5006e-12 7.28749e-12 2.13113e-13 0.0284129 0.000686995 0 0 0 0 0 0 0 0 0 0 0 0 0 0 0 0 0 0 0 0 0 0 0 0 0 0 0 0 0 0 0 0 0 0 0 0 0 0 0 0 0 0
0.824824 7.06193e-12 6.88472e-12 1.77217e-13 0.0250947 0.000626788 0 0 0 0 0 0 0 0 0 0 0 0 0 0 0 0 0 0 0 0 0 0 0 0 0 0 0 0 0 0 0 0 0 0 0 0 0 0 0 0 0 0
0.867162 6.64172e-12 6.4942e-12 1.47521e-13 0.0222112 0.000572518 0 0 0 0 0 0 0 0 0 0 0 0 0 0 0 0 0 0 0 0 0 0 0 0 0 0 0 0 0 0 0 0 0 0 0 0 0 0 0 0 0 0
0.911674 6.23635e-12 6.11346e-12 1.22884e-13 0.0197045 0.000523427 0 0 0 0 0 0 0 0 0 0 0 0 0 0 0 0 0 0 0 0 0 0 0 0 0 0 0 0 0 0 0 0 0 0 0 0 0 0 0 0 0 0
0.95847 5.84383e-12 5.74145e-12 1.02381e-13 0.0175194 0.00047944 0 0 0 0 0 0 0 0 0 0 0 0 0 0 0 0 0 0 0 0 0 0 0 0 0 0 0 0 0 0 0 0 0 0 0 0 0 0 0 0 0 0
1.00767 5.46576e-12 5.38046e-12 8.53e-14 0.0156062 0.0004395 0 0 0 0 0 0 0 0 0 0 0 0 0 0 0 0 0 0 0 0 0 0 0 0 0 0 0 0 0 0 0 0 0 0 0 0 0 0 0 0 0 0
1.05939 5.104e-12 5.03296e-12 7.10401e-14 0.0139185 0.000403275 0 0 0 0 0 0 0 0 0 0 0 0 0 0 0 0 0 0 0 0 0 0 0 0 0 0 0 0 0 0 0 0 0 0 0 0 0 0 0 0 0 0
1.11377 4.73889e-12 4.67979e-12 5.9104e-14 0.0124721 0.000370298 0 0 0 0 0 0 0 0 0 0 0 0 0 0 0 0 0 0 0 0 0 0 0 0 0 0 0 0 0 0 0 0 0 0 0 0 0 0 0 0 0 0
1.17094 4.39624e-12 4.34708e-12 4.91584e-14 0.0111819 0.000339515 0 0 0 0 0 0 0 0 0 0 0 0 0 0 0 0 0 0 0 0 0 0 0 0 0 0 0 0 0 0 0 0 0 0 0 0 0 0 0 0 0 0
1.23105 4.07015e-12 4.02931e-12 4.08374e-14 0.0100334 0.000311294 0 0 0 0 0 0 0 0 0 0 0 0 0 0 0 0 0 0 0 0 0 0 0 0 0 0 0 0 0 0 0 0 0 0 0 0 0 0 0 0 0 0
1.29424 3.75886e-12 3.72497e-12 3.38969e-14 0.00901786 0.000285362 0 0 0 0 0 0 0 0 0 0 0 0 0 0 0 0 0 0 0 0 0 0 0 0 0 0 0 0 0 0 0 0 0 0 0 0 0 0 0 0 0 0
1.36067 3.46293e-12 3.43483e-12 2.81076e-14 0.00811671 0.000261742 0 0 0 0 0 0 0 0 0 0 0 0 0 0 0 0 0 0 0 0 0 0 0 0 0 0 0 0 0 0 0 0 0 0 0 0 0 0 0 0 0 0
1.43051 3.1846e-12 3.16132e-12 2.32775e-14 0.00730939 0.000240209 0 0 0 0 0 0 0 0 0 0 0 0 0 0 0 0 0 0 0 0 0 0 0 0 0 0 0 0 0 0 0 0 0 0 0 0 0 0 0 0 0 0
1.50394 2.92402e-12 2.90476e-12 1.92613e-14 0.00658727 0.000220279 0 0 0 0 0 0 0 0 0 0 0 0 0 0 0 0 0 0 0 0 0 0 0 0 0 0 0 0 0 0 0 0 0 0 0 0 0 0 0 0 0 0
1.58114 2.68085e-12 2.66493e-12 1.59252e-14 0.00594036 0.000201732 0 0 0 0 0 0 0 0 0 0 0 0 0 0 0 0 0 0 0 0 0 0 0 0 0 0 0 0 0 0 0 0 0 0 0 0 0 0 0 0 0 0
1.6623 2.45439e-12 2.44123e-12 1.31536e-14 0.00535921 0.000184534 0 0 0 0 0 0 0 0 0 0 0 0 0 0 0 0 0 0 0 0 0 0 0 0 0 0 0 0 0 0 0 0 0 0 0 0 0 0 0 0 0 0
1.74763 2.2445e-12 2.23365e-12 1.08562e-14 0.00483678 0.000169005 0 0 0 0 0 0 0 0 0 0 0 0 0 0 0 0 0 0 0 0 0 0 0 0 0 0 0 0 0 0 0 0 0 0 0 0 0 0 0 0 0 0
1.83733 2.05031e-12 2.04136e-12 8.95291e-15 0.0043666 0.000154804 0 0 0 0 0 0 0 0 0 0 0 0 0 0 0 0 0 0 0 0 0 0 0 0 0 0 0 0 0 0 0 0 0 0 0 0 0 0 0 0 0 0
1.93164 1.87115e-12 1.86377e-12 7.37752e-15 0.00394278 0.000141793 0 0 0 0 0 0 0 0 0 0 0 0 0 0 0 0 0 0 0 0 0 0 0 0 0 0 0 0 0 0 0 0 0 0 0 0 0 0 0 0 0 0
2.03079 1.70637e-12 1.7003e-12 6.07523e-15 0.00356032 0.000129725 0 0 0 0 0 0 0 0 0 0 0 0 0 0 0 0 0 0 0 0 0 0 0 0 0 0 0 0 0 0 0 0 0 0 0 0 0 0 0 0 0 0
2.13503 1.55519e-12 1.55019e-12 5.00046e-15 0.00321533 0.000118657 0 0 0 0 0 0 0 0 0 0 0 0 0 0 0 0 0 0 0 0 0 0 0 0 0 0 0 0 0 0 0 0 0 0 0 0 0 0 0 0 0 0
2.24463 1.41661e-12 1.4125e-12 4.11316e-15 0.00290352 0.000108569 0 0 0 0 0 0 0 0 0 0 0 0 0 0 0 0 0 0 0 0 0 0 0 0 0 0 0 0 0 0 0 0 0 0 0 0 0 0 0 0 0 0
2.35984 1.28978e-12 1.2864e-12 3.38186e-15 0.00262205 9.92926e-05 0 0 0 0 0 0 0 0 0 0 0 0 0 0 0 0 0 0 0 0 0 0 0 0 0 0 0 0 0 0 0 0 0 0 0 0 0 0 0 0 0 0
2.48097 1.17398e-12 1.1712e-12 2.77924e-15 0.00236737 9.07218e-05 0 0 0 0 0 0 0 0 0 0 0 0 0 0 0 0 0 0 0 0 0 0 0 0 0 0 0 0 0 0 0 0 0 0 0 0 0 0 0 0 0 0
2.60832 1.06829e-12 1.06601e-12 2.28312e-15 0.00213717 8.27967e-05 0 0 0 0 0 0 0 0 0 0 0 0 0 0 0 0 0 0 0 0 0 0 0 0 0 0 0 0 0 0 0 0 0 0 0 0 0 0 0 0 0 0
2.74221 9.72003e-13 9.70128e-13 1.87512e-15 0.00192913 7.55862e-05 0 0 0 0 0 0 0 0 0 0 0 0 0 0 0 0 0 0 0 0 0 0 0 0 0 0 0 0 0 0 0 0 0 0 0 0 0 0 0 0 0 0
2.88297 8.8427e-13 8.82731e-13 1.53914e-15 0.00174058 6.90729e-05 0 0 0 0 0 0 0 0 0 0 0 0 0 0 0 0 0 0 0 0 0 0 0 0 0 0 0 0 0 0 0 0 0 0 0 0 0 0 0 0 0 0
3.03095 8.04565e-13 8.03302e-13 1.26329e-15 0.00157015 6.31538e-05 0 0 0 0 0 0 0 0 0 0 0 0 0 0 0 0 0 0 0 0 0 0 0 0 0 0 0 0 0 0 0 0 0 0 0 0 0 0 0 0 0 0
3.18653 7.32066e-13 7.3103e-13 1.0365e-15 0.00141585 5.76567e-05 0 0 0 0 0 0 0 0 0 0 0 0 0 0 0 0 0 0 0 0 0 0 0 0 0 0 0 0 0 0 0 0 0 0 0 0 0 0 0 0 0 0
3.35009 6.66262e-13 6.65412e-13 8.50192e-16 0.00127606 5.2603e-05 0 0 0 0 0 0 0 0 0 0 0 0 0 0 0 0 0 0 0 0 0 0 0 0 0 0 0 0 0 0 0 0 0 0 0 0 0 0 0 0 0 0
3.52205 6.0647e-13 6.05773e-13 6.97276e-16 0.00114973 4.80102e-05 0 0 0 0 0 0 0 0 0 0 0 0 0 0 0 0 0 0 0 0 0 0 0 0 0 0 0 0 0 0 0 0 0 0 0 0 0 0 0 0 0 0
3.70284 5.52243e-13 5.51671e-13 5.71727e-16 0.00103528 4.38066e-05 0 0 0 0 0 0 0 0 0 0 0 0 0 0 0 0 0 0 0 0 0 0 0 0 0 0 0 0 0 0 0 0 0 0 0 0 0 0 0 0 0 0
3.89291 5.03075e-13 5.02606e-13 4.68688e-16 0.000931648 3.9926e-05 0 0 0 0 0 0 0 0 0 0 0 0 0 0 0 0 0 0 0 0 0 0 0 0 0 0 0 0 0 0 0 0 0 0 0 0 0 0 0 0 0 0
4.09273 4.58515e-13 4.5813e-13 3.84184e-16 0.000837889 3.62643e-05 0 0 0 0 0 0 0 0 0 0 0 0 0 0 0 0 0 0 0 0 0 0 0 0 0 0 0 0 0 0 0 0 0 0 0 0 0 0 0 0 0 0
4.30281 4.18143e-13 4.17828e-13 3.14886e-16 0.00075306 3.29535e-05 0 0 0 0 0 0 0 0 0 0 0 0 0 0 0 0 0 0 0 0 0 0 0 0 0 0 0 0 0 0 0 0 0 0 0 0 1.4013e-45 0 4.2039e-45 0 1.26117e-44 0
4.52368 3.81596e-13 3.81338e-13 2.58082e-16 0.000676321 2.99416e-05 0 0 0 0 0 0 0 0 0 0 0 0 0 0 0 0 0 0 0 0 0 0 0 0 0 0 0 0 1.4013e-45 0 5.60519e-45 0 1.96182e-44 0 6.02558e-44 0 1.75162e-43 0 4.47014e-43 0 1.12384e-42 0
4.75588 3.4849e-13 3.48279e-13 2.11503e-16 0.000606911 2.71796e-05 0 0 0 0 0 0 0 0 0 0 0 0 0 0 0 0 0 0 0 0 0 0 1.4013e-45 0 9.80909e-45 0 4.48416e-44 0 1.70958e-43 0 5.78736e-43 0 1.78245e-42 0 5.17359e-42 0 1.41952e-41 0 3.46723e-41 0 8.32539e-41 0
5 3.18523e-13 3.1835e-13 1.73302e-16 0.000544081 2.45398e-05 0 0 0 0 0 0 0 0 0 0 0 0 0 0 0 0 0 0 5.60519e-45 0 3.64338e-44 0 2.07392e-43 0 9.48679e-43 0 3.86338e-42 0 1.36416e-41 0 4.36266e-41 0 1.27124e-40 0 3.5019e-40 0 9.14646e-40 0 2.13881e-39 0 4.92063e-39 0
5.25665 2.91471e-13 2.91329e-13 1.42004e-16 0.000487196 2.21678e-05 0 0 0 0 0 0 0 0 0 0 0 0 0 0 5.60519e-45 0 6.44597e-44 0 5.15678e-43 0 3.14732e-42 0 1.61892e-41 0 6.87225e-41 0 2.61163e-40 0 8.67226e-40 0 2.62036e-39 0 7.24707e-39 0 1.89999e-38 0 4.73525e-38 0 1.06231e-37 0 2.34656e-37 0
5.52648 2.66891e-13 2.66774e-13 1.16353e-16 0.000435958 2.00489e-05 0 0 0 0 0 0 0 0 0 0 1.4013e-45 0 3.64338e-44 0 5.35296e-43 0 5.23665e-42 0 3.78112e-41 0 2.11553e-40 0 1.00446e-39 0 3.97343e-39 0 1.41471e-38 0 4.43038e-38 0 1.2683e-37 0 3.33775e-37 0 8.34844e-37 0 1.98991e-36 0 4.2915e-36 0 9.11981e-36 0
5.81015 2.44732e-13 2.44637e-13 9.53266e-17 0.000389514 1.8115e-05 0 0 0 0 0 0 0 0 2.8026e-45 0 1.31722e-43 0 3.00158e-42 0 3.86366e-41 0 3.3822e-40 0 2.21718e-39 0 1.14048e-38 0 5.01849e-38 0 1.85629e-37 0 6.21186e-37 0 1.83988e-36 0 5.00346e-36 0 1.25598e-35 0 3.00397e-35 0 6.86287e-35 0 1.42556e-34 0 2.91997e-34 0
6.10839 2.25108e-13 2.2503e-13 7.81257e-17 0.000347059 1.63023e-05 0 0 0 0 0 0 1.4013e-45 0 2.38221e-43 0 1.00543e-41 0 1.96494e-40 0 2.23312e-39 0 1.75839e-38 0 1.05159e-37 0 4.99351e-37 0 2.04396e-36 0 7.09267e-36 0 2.23755e-35 0 6.28518e-35 0 1.62774e-34 0 3.90645e-34 0 8.95373e-34 0 1.9647e-33 0 3.93799e-33 0 7.78869e-33 0
6.42193 2.05682e-13 2.05618e-13 6.38422e-17 0.000310392 1.48144e-05 0 0 0 0 0 0 1.41531e-43 0 1.72402e-41 0 6.06521e-40 0 1.0252e-38 0 1.03475e-37 0 7.36683e-37 0 4.03729e-36 0 1.77671e-35 0 6.7889e-35 0 2.21695e-34 0 6.61238e-34 0 1.76605e-33 0 4.36609e-33 0 1.00398e-32 0 2.20984e-32 0 4.66649e-32 0 9.04117e-32 0 1.72963e-31 0
6.75157 1.9017e-13 1.90117e-13 5.23647e-17 0.000275358 1.32279e-05 0 0 0 0 1.12104e-44 0 1.04985e-41 0 1.0081e-39 0 2.98072e-38 0 4.38864e-37 0 3.95672e-36 0 2.55954e-35 0 1.29092e-34 0 5.28453e-34 0 1.89132e-33 0 5.82945e-33 0 1.64838e-32 0 4.19635e-32 0 9.92589e-32 0 2.19153e-31 0 4.64144e-31 0 9.45001e-31 0 1.77273e-30 0 3.28561e-30 0
7.09813 1.75334e-13 1.75291e-13 4.28979e-17 0.000244663 1.18448e-05 0 0 0 0 9.43074e-43 0 6.17172e-40 0 4.74261e-38 0 1.18856e-36 0 1.53463e-35 0 1.24275e-34 0 7.33873e-34 0 3.42017e-33 0 1.30698e-32 0 4.39533e-32 0 1.28229e-31 0 3.44648e-31 0 8.38254e-31 0 1.90116e-30 0 4.03833e-30 0 8.2451e-30 0 1.62143e-29 0 2.94965e-29 0 5.30469e-29 0
7.46248 1.62529e-13 1.62494e-13 3.51377e-17 0.000216193 1.05694e-05 0 0 0 0 6.17048e-41 0 2.94193e-38 0 1.82886e-36 0 3.91633e-35 0 4.46292e-34 0 3.26322e-33 0 1.76697e-32 0 7.63874e-32 0 2.73411e-31 0 8.66607e-31 0 2.39946e-30 0 6.14523e-30 0 1.43118e-29 0 3.11869e-29 0 6.3853e-29 0 1.25904e-28 0 2.39554e-28 0 4.23239e-28 0 7.39658e-28 0
7.84553 1.50599e-13 1.5057e-13 2.87808e-17 0.000191109 9.34187e-06 0 0 5.74532e-44 0 3.23803e-39 0 1.14243e-36 0 5.80512e-35 0 1.07039e-33 0 1.08314e-32 0 7.18667e-32 0 3.5834e-31 0 1.44226e-30 0 4.85066e-30 0 1.45327e-29 0 3.82862e-29 0 9.3654e-29 0 2.09293e-28 0 4.39054e-28 0 8.68025e-28 0 1.65575e-27 0 3.05294e-27 0 5.24606e-27 0 8.92157e-27 0
8.24824 1.38658e-13 1.38634e-13 2.35722e-17 0.000170002 8.19911e-06 0 0 4.1016e-42 0 1.36956e-37 0 3.62868e-35 0 1.52207e-33 0 2.43426e-32 0 2.20007e-31 0 1.33093e-30 0 6.13554e-30 0 2.30715e-29 0 7.31332e-29 0 2.07679e-28 0 5.21854e-28 0 1.22198e-27 0 2.62569e-27 0 5.31246e-27 0 1.01592e-26 0 1.8777e-26 0 3.36029e-26 0 5.62358e-26 0 9.31883e-26 0
8.67162 1.28669e-13 1.2865e-13 1.93066e-17 0.000150048 7.20916e-06 4.2039e-45 0 2.38287e-40 0 4.78436e-36 0 9.65347e-34 0 3.37399e-32 0 4.71297e-31 0 3.82548e-30 0 2.11951e-29 0 9.06838e-29 0 3.19646e-28 0 9.57732e-28 0 2.58458e-27 0 6.20884e-27 0 1.39472e-26 0 2.88699e-26 0 5.64359e-26 0 1.04561e-25 0 1.87549e-25 0 3.2623e-25 0 5.32404e-25 0 8.60756e-25 0
9.11674 1.19237e-13 1.19221e-13 1.58126e-17 0.000132614 6.32492e-06 2.99878e-43 0 1.1158e-38 0 1.38113e-34 0 2.15061e-32 0 6.31923e-31 0 7.76076e-30 0 5.68715e-29 0 2.89829e-28 0 1.15508e-27 0 3.82859e-27 0 1.08729e-26 0 2.79539e-26 0 6.43397e-26 0 1.38929e-25 0 2.77541e-25 0 5.25078e-25 0 9.4398e-25 0 1.64558e-24 0 2.78606e-24 0 4.43937e-24 0 7.0109e-24 0
9.5847 1.11001e-13 1.10988e-13 1.29504e-17 0.000116669 5.52644e-06 1.9237e-41 0 4.28125e-37 0 3.34503e-33 0 4.07088e-31 0 1.01417e-29 0 1.10197e-28 0 7.32705e-28 0 3.44862e-27 0 1.28469e-26 0 4.01621e-26 0 1.0839e-25 0 2.66112e-25 0 5.88064e-25 0 1.22297e-24 0 2.36198e-24 0 4.33166e-24 0 7.56757e-24 0 1.28389e-23 0 2.11853e-23 0 3.2998e-23 0 5.09625e-23 0
10.0767 1.03611e-13 1.036e-13 1.06068e-17 0.000102372 4.78203e-06 9.93961e-40 0 1.35692e-35 0 6.84417e-32 0 6.58866e-30 0 1.40295e-28 0 1.3568e-27 0 8.2244e-27 0 3.58902e-26 0 1.25385e-25 0 3.70759e-25 0 9.53267e-25 0 2.23998e-24 0 4.76201e-24 0 9.55558e-24 0 1.78715e-23 0 3.18184e-23 0 5.40942e-23 0 8.94361e-23 0 1.44013e-22 0 2.19511e-22 0 3.31898e-22 0
