# 1e-06 1 4 : grain size, compostion index, size index
# Heating and cooling timescale: 52.4258 328.179
# Ratio of heating to cooling to determine stochastic cutoff: 100
# Equilibrium emission is recorded even for those grains in the stochastic regime.
# Emission spectrum was computed for: 
# Type: ISRF
# Scales: 0.25 0.5 1 1.5 2 2.5 3 3.5 4 4.5 5 5.5 6 6.5 7 7.5 8 8.5 9 9.5 10
# StochasticallyHeated: 1 1 1 1 1 1 1 1 1 1 1 1 1 1 1 1 1 1 1 1 1
# Temperature: -1
# Wavelength  CExt  CAbs  CSca  Albedo G EqEm1 StEm1 EqEm2 StEm2 EqEm3 StEm3 EqEm4 StEm4 EqEm5 StEm5 EqEm6 StEm6 EqEm7 StEm7 EqEm8 StEm8 EqEm9 StEm9 EqEm10 StEm10 EqEm11 StEm11 EqEm12 StEm12 EqEm13 StEm13 EqEm14 StEm14 EqEm15 StEm15 EqEm16 StEm16 EqEm17 StEm17 EqEm18 StEm18 EqEm19 StEm19 EqEm20 StEm20 EqEm21 StEm21
0.05 5.66105e-12 5.22911e-12 4.3194e-13 0.0763003 0.153899 0 0 0 0 0 0 0 0 0 0 0 0 0 0 0 0 0 0 0 0 0 0 0 0 0 0 0 0 0 0 0 0 0 0 0 0 0 0 0 0 0 0
0.0525665 5.54694e-12 5.12538e-12 4.21558e-13 0.0759982 0.151124 0 0 0 0 0 0 0 0 0 0 0 0 0 0 0 0 0 0 0 0 0 0 0 0 0 0 0 0 0 0 0 0 0 0 0 0 0 0 0 0 0 0
0.0552647 5.42693e-12 5.01631e-12 4.10619e-13 0.0756632 0.148205 0 0 0 0 0 0 0 0 0 0 0 0 0 0 0 0 0 0 0 0 0 0 0 0 0 0 0 0 0 0 0 0 0 0 0 0 0 0 0 0 0 0
0.0581015 5.30083e-12 4.9017e-12 3.9913e-13 0.0752957 0.145139 0 0 0 0 0 0 0 0 0 0 0 0 0 0 0 0 0 0 0 0 0 0 0 0 0 0 0 0 0 0 0 0 0 0 0 0 0 0 0 0 0 0
0.0610839 5.1682e-12 4.78113e-12 3.8707e-13 0.0748945 0.141915 0 0 0 0 0 0 0 0 0 0 0 0 0 0 0 0 0 0 0 0 0 0 0 0 0 0 0 0 0 0 0 0 0 0 0 0 0 0 0 0 0 0
0.0642193 5.02872e-12 4.65436e-12 3.74361e-13 0.0744446 0.138535 0 0 0 0 0 0 0 0 0 0 0 0 0 0 0 0 0 0 0 0 0 0 0 0 0 0 0 0 0 0 0 0 0 0 0 0 0 0 0 0 0 0
0.0675157 4.88226e-12 4.52124e-12 3.61018e-13 0.0739449 0.134966 0 0 0 0 0 0 0 0 0 0 0 0 0 0 0 0 0 0 0 0 0 0 0 0 0 0 0 0 0 0 0 0 0 0 0 0 0 0 0 0 0 0
0.0709813 4.72824e-12 4.38125e-12 3.46988e-13 0.0733862 0.131226 0 0 0 0 0 0 0 0 0 0 0 0 0 0 0 0 0 0 0 0 0 0 0 0 0 0 0 0 0 0 0 0 0 0 0 0 0 0 0 0 0 0
0.0746248 4.56619e-12 4.23394e-12 3.32248e-13 0.0727626 0.127289 0 0 0 0 0 0 0 0 0 0 0 0 0 0 0 0 0 0 0 0 0 0 0 0 0 0 0 0 0 0 0 0 0 0 0 0 0 0 0 0 0 0
0.0784553 4.39608e-12 4.07934e-12 3.16734e-13 0.0720492 0.123143 0 0 0 0 0 0 0 0 0 0 0 0 0 0 0 0 0 0 0 0 0 0 0 0 0 0 0 0 0 0 0 0 0 0 0 0 0 0 0 0 0 0
0.0824824 4.21697e-12 3.91654e-12 3.00434e-13 0.071244 0.118794 0 0 0 0 0 0 0 0 0 0 0 0 0 0 0 0 0 0 0 0 0 0 0 0 0 0 0 0 0 0 0 0 0 0 0 0 0 0 0 0 0 0
0.0867162 4.0288e-12 3.74551e-12 2.83293e-13 0.0703169 0.11422 0 0 0 0 0 0 0 0 0 0 0 0 0 0 0 0 0 0 0 0 0 0 0 0 0 0 0 0 0 0 0 0 0 0 0 0 0 0 0 0 0 0
0.0911674 3.83086e-12 3.56558e-12 2.65273e-13 0.0692463 0.10941 0 0 0 0 0 0 0 0 0 0 0 0 0 0 0 0 0 0 0 0 0 0 0 0 0 0 0 0 0 0 0 0 0 0 0 0 0 0 0 0 0 0
0.095847 3.62292e-12 3.3766e-12 2.46329e-13 0.0679917 0.104354 0 0 0 0 0 0 0 0 0 0 0 0 0 0 0 0 0 0 0 0 0 0 0 0 0 0 0 0 0 0 0 0 0 0 0 0 0 0 0 0 0 0
0.100767 3.40417e-12 3.17776e-12 2.2641e-13 0.0665097 0.0990318 0 0 0 0 0 0 0 0 0 0 0 0 0 0 0 0 0 0 0 0 0 0 0 0 0 0 0 0 0 0 0 0 0 0 0 0 0 0 0 0 0 0
0.105939 3.17433e-12 2.96886e-12 2.05471e-13 0.0647291 0.0934435 0 0 0 0 0 0 0 0 0 0 0 0 0 0 0 0 0 0 0 0 0 0 0 0 0 0 0 0 0 0 0 0 0 0 0 0 0 0 0 0 0 0
0.111377 2.9326e-12 2.74915e-12 1.83456e-13 0.0625573 0.087567 0 0 0 0 0 0 0 0 0 0 0 0 0 0 0 0 0 0 0 0 0 0 0 0 0 0 0 0 0 0 0 0 0 0 0 0 0 0 0 0 0 0
0.117094 2.67847e-12 2.51816e-12 1.60309e-13 0.0598511 0.0813878 0 0 0 0 0 0 0 0 0 0 0 0 0 0 0 0 0 0 0 0 0 0 0 0 0 0 0 0 0 0 0 0 0 0 0 0 0 0 0 0 0 0
0.123105 2.4113e-12 2.27533e-12 1.35977e-13 0.0563916 0.0748928 0 0 0 0 0 0 0 0 0 0 0 0 0 0 0 0 0 0 0 0 0 0 0 0 0 0 0 0 0 0 0 0 0 0 0 0 0 0 0 0 0 0
0.129424 2.13039e-12 2.02e-12 1.10396e-13 0.0518194 0.068064 0 0 0 0 0 0 0 0 0 0 0 0 0 0 0 0 0 0 0 0 0 0 0 0 0 0 0 0 0 0 0 0 0 0 0 0 0 0 0 0 0 0
0.136067 1.83508e-12 1.75158e-12 8.35021e-14 0.0455033 0.0608845 0 0 0 0 0 0 0 0 0 0 0 0 0 0 0 0 0 0 0 0 0 0 0 0 0 0 0 0 0 0 0 0 0 0 0 0 0 0 0 0 0 0
0.143051 1.52462e-12 1.4694e-12 5.52258e-14 0.0362226 0.0533362 0 0 0 0 0 0 0 0 0 0 0 0 0 0 0 0 0 0 0 0 0 0 0 0 0 0 0 0 0 0 0 0 0 0 0 0 0 0 0 0 0 0
0.150394 1.25193e-12 1.22193e-12 2.99925e-14 0.023957 0.04621 0 0 0 0 0 0 0 0 0 0 0 0 0 0 0 0 0 0 0 0 0 0 0 0 0 0 0 0 0 0 0 0 0 0 0 0 0 0 0 0 0 0
0.158114 1.2429e-12 1.21621e-12 2.66933e-14 0.0214766 0.0429 0 0 0 0 0 0 0 0 0 0 0 0 0 0 0 0 0 0 0 0 0 0 0 0 0 0 0 0 0 0 0 0 0 0 0 0 0 0 0 0 0 0
0.16623 1.23341e-12 1.21018e-12 2.3225e-14 0.0188299 0.0394194 0 0 0 0 0 0 0 0 0 0 0 0 0 0 0 0 0 0 0 0 0 0 0 0 0 0 0 0 0 0 0 0 0 0 0 0 0 0 0 0 0 0
0.174762 1.22345e-12 1.20387e-12 1.95785e-14 0.0160027 0.0357608 0 0 0 0 0 0 0 0 0 0 0 0 0 0 0 0 0 0 0 0 0 0 0 0 0 0 0 0 0 0 0 0 0 0 0 0 0 0 0 0 0 0
0.183733 1.21295e-12 1.1972e-12 1.57451e-14 0.0129809 0.0319142 0 0 0 0 0 0 0 0 0 0 0 0 0 0 0 0 0 0 0 0 0 0 0 0 0 0 0 0 0 0 0 0 0 0 0 0 0 0 0 0 0 0
0.193164 1.20191e-12 1.19019e-12 1.17147e-14 0.00974678 0.0278704 0 0 0 0 0 0 0 0 0 0 0 0 0 0 0 0 0 0 0 0 0 0 0 0 0 0 0 0 0 0 0 0 0 0 0 0 0 0 0 0 0 0
0.203079 1.21219e-12 1.20267e-12 9.52539e-15 0.00785798 0.0247381 0 0 0 0 0 0 0 0 0 0 0 0 0 0 0 0 0 0 0 0 0 0 0 0 0 0 0 0 0 0 0 0 0 0 0 0 0 0 0 0 0 0
0.213503 1.24777e-12 1.23823e-12 9.54236e-15 0.00764751 0.0227132 0 0 0 0 0 0 0 0 0 0 0 0 0 0 0 0 0 0 0 0 0 0 0 0 0 0 0 0 0 0 0 0 0 0 0 0 0 0 0 0 0 0
0.224463 1.28518e-12 1.27562e-12 9.56001e-15 0.00743868 0.0205837 0 0 0 0 0 0 0 0 0 0 0 0 0 0 0 0 0 0 0 0 0 0 0 0 0 0 0 0 0 0 0 0 0 0 0 0 0 0 0 0 0 0
0.235984 1.3245e-12 1.31493e-12 9.57835e-15 0.00723165 0.0183448 0 0 0 0 0 0 0 0 0 0 0 0 0 0 0 0 0 0 0 0 0 0 0 0 0 0 0 0 0 0 0 0 0 0 0 0 0 0 0 0 0 0
0.248097 1.35984e-12 1.35029e-12 9.55046e-15 0.00702321 0.0160556 0 0 0 0 0 0 0 0 0 0 0 0 0 0 0 0 0 0 0 0 0 0 0 0 0 0 0 0 0 0 0 0 0 0 0 0 0 0 0 0 0 0
0.260832 1.28425e-12 1.27562e-12 8.62628e-15 0.00671699 0.0148692 0 0 0 0 0 0 0 0 0 0 0 0 0 0 0 0 0 0 0 0 0 0 0 0 0 0 0 0 0 0 0 0 0 0 0 0 0 0 0 0 0 0
0.274221 1.20473e-12 1.19708e-12 7.65455e-15 0.00635373 0.0136216 0 0 0 0 0 0 0 0 0 0 0 0 0 0 0 0 0 0 0 0 0 0 0 0 0 0 0 0 0 0 0 0 0 0 0 0 0 0 0 0 0 0
0.288297 1.12115e-12 1.11451e-12 6.63296e-15 0.00591624 0.0123096 0 0 0 0 0 0 0 0 0 0 0 0 0 0 0 0 0 0 0 0 0 0 0 0 0 0 0 0 0 0 0 0 0 0 0 0 0 0 0 0 0 0
0.303095 1.034e-12 1.02831e-12 5.69028e-15 0.00550314 0.0111916 0 0 0 0 0 0 0 0 0 0 0 0 0 0 0 0 0 0 0 0 0 0 0 0 0 0 0 0 0 0 0 0 0 0 0 0 0 0 0 0 0 0
0.318653 9.43365e-13 9.38489e-13 4.8761e-15 0.00516884 0.0103678 0 0 0 0 0 0 0 0 0 0 0 0 0 0 0 0 0 0 0 0 0 0 0 0 0 0 0 0 0 0 0 0 0 0 0 0 0 0 0 0 0 0
0.335009 8.48078e-13 8.44058e-13 4.02011e-15 0.00474026 0.00950198 0 0 0 0 0 0 0 0 0 0 0 0 0 0 0 0 0 0 0 0 0 0 0 0 0 0 0 0 0 0 0 0 0 0 0 0 0 0 0 0 0 0
0.352205 7.62732e-13 7.59461e-13 3.27062e-15 0.00428803 0.00869341 0 0 0 0 0 0 0 0 0 0 0 0 0 0 0 0 0 0 0 0 0 0 0 0 0 0 0 0 0 0 0 0 0 0 0 0 0 0 0 0 0 0
0.370284 6.99035e-13 6.96288e-13 2.74649e-15 0.00392898 0.00802222 0 0 0 0 0 0 0 0 0 0 0 0 0 0 0 0 0 0 0 0 0 0 0 0 0 0 0 0 0 0 0 0 0 0 0 0 0 0 0 0 0 0
0.389291 6.32083e-13 6.29887e-13 2.19552e-15 0.00347347 0.0073165 0 0 0 0 0 0 0 0 0 0 0 0 0 0 0 0 0 0 0 0 0 0 0 0 0 0 0 0 0 0 0 0 0 0 0 0 0 0 0 0 0 0
0.409273 5.8048e-13 5.78664e-13 1.81561e-15 0.00312777 0.00671966 0 0 0 0 0 0 0 0 0 0 0 0 0 0 0 0 0 0 0 0 0 0 0 0 0 0 0 0 0 0 0 0 0 0 0 0 0 0 0 0 0 0
0.430281 5.3398e-13 5.32482e-13 1.4983e-15 0.00280591 0.00615195 0 0 0 0 0 0 0 0 0 0 0 0 0 0 0 0 0 0 0 0 0 0 0 0 0 0 0 0 0 0 0 0 0 0 0 0 0 0 0 0 0 0
0.452368 4.90482e-13 4.89264e-13 1.21822e-15 0.00248372 0.00561371 0 0 0 0 0 0 0 0 0 0 0 0 0 0 0 0 0 0 0 0 0 0 0 0 0 0 0 0 0 0 0 0 0 0 0 0 0 0 0 0 0 0
0.475588 4.54081e-13 4.53063e-13 1.01726e-15 0.00224027 0.00515023 0 0 0 0 0 0 0 0 0 0 0 0 0 0 0 0 0 0 0 0 0 0 0 0 0 0 0 0 0 0 0 0 0 0 0 0 0 0 0 0 0 0
0.5 4.18426e-13 4.17597e-13 8.28664e-16 0.00198043 0.00469588 0 0 0 0 0 0 0 0 0 0 0 0 0 0 0 0 0 0 0 0 0 0 0 0 0 0 0 0 0 0 0 0 0 0 0 0 0 0 0 0 0 0
0.525665 3.88073e-13 3.87381e-13 6.92371e-16 0.00178413 0.00430829 0 0 0 0 0 0 0 0 0 0 0 0 0 0 0 0 0 0 0 0 0 0 0 0 0 0 0 0 0 0 0 0 0 0 0 0 0 0 0 0 0 0
0.552648 3.58809e-13 3.58241e-13 5.68453e-16 0.00158428 0.00393573 0 0 0 0 0 0 0 0 0 0 0 0 0 0 0 0 0 0 0 0 0 0 0 0 0 0 0 0 0 0 0 0 0 0 0 0 0 0 0 0 0 0
0.581015 3.32536e-13 3.32065e-13 4.71257e-16 0.00141716 0.00360396 0 0 0 0 0 0 0 0 0 0 0 0 0 0 0 0 0 0 0 0 0 0 0 0 0 0 0 0 0 0 0 0 0 0 0 0 0 0 0 0 0 0
0.610839 3.08418e-13 3.08027e-13 3.90842e-16 0.00126725 0.00330236 0 0 0 0 0 0 0 0 0 0 0 0 0 0 0 0 0 0 0 0 0 0 0 0 0 0 0 0 0 0 0 0 0 0 0 0 0 0 0 0 0 0
0.642193 2.85493e-13 2.85172e-13 3.20908e-16 0.00112405 0.00301791 0 0 0 0 0 0 0 0 0 0 0 0 0 0 0 0 0 0 0 0 0 0 0 0 0 0 0 0 0 0 0 0 0 0 0 0 0 0 0 0 0 0
0.675157 2.65192e-13 2.64924e-13 2.67308e-16 0.00100798 0.00276982 0 0 0 0 0 0 0 0 0 0 0 0 0 0 0 0 0 0 0 0 0 0 0 0 0 0 0 0 0 0 0 0 0 0 0 0 0 0 0 0 0 0
0.709813 2.4611e-13 2.45889e-13 2.21285e-16 0.000899132 0.00253906 0 0 0 0 0 0 0 0 0 0 0 0 0 0 0 0 0 0 0 0 0 0 0 0 0 0 0 0 0 0 0 0 0 0 0 0 0 0 0 0 0 0
0.746248 2.28209e-13 2.28027e-13 1.82237e-16 0.000798555 0.002325 0 0 0 0 0 0 0 0 0 0 0 0 0 0 0 0 0 0 0 0 0 0 0 0 0 0 0 0 0 0 0 0 0 0 0 0 0 0 0 0 0 0
0.784553 2.11852e-13 2.11701e-13 1.50705e-16 0.000711369 0.00213227 0 0 0 0 0 0 0 0 0 0 0 0 0 0 0 0 0 0 0 0 0 0 0 0 0 0 0 0 0 0 0 0 0 0 0 0 0 0 0 0 0 0
0.824824 1.96919e-13 1.96793e-13 1.25187e-16 0.00063573 0.001959 0 0 0 0 0 0 0 0 0 0 0 0 0 0 0 0 0 0 0 0 0 0 0 0 0 0 0 0 0 0 0 0 0 0 0 0 0 0 0 0 0 0
0.867162 1.8299e-13 1.82886e-13 1.03716e-16 0.000566788 0.00179966 0 0 0 0 0 0 0 0 0 0 0 0 0 0 0 0 0 0 0 0 0 0 0 0 0 0 0 0 0 0 0 0 0 0 0 0 0 0 0 0 0 0
0.911674 1.70048e-13 1.69962e-13 8.58203e-17 0.000504683 0.00165365 0 0 0 0 0 0 0 0 0 0 0 0 0 0 0 0 0 0 0 0 0 0 0 0 0 0 0 0 0 0 0 0 0 0 0 0 0 0 0 0 0 0
0.95847 1.58055e-13 1.57984e-13 7.09891e-17 0.000449141 0.00152042 0 0 0 0 0 0 0 0 0 0 0 0 0 0 0 0 0 0 0 0 0 0 0 0 0 0 0 0 0 0 0 0 0 0 0 0 0 0 0 0 0 0
1.00767 1.46944e-13 1.46886e-13 5.87245e-17 0.000399638 0.00139897 0 0 0 0 0 0 0 0 0 0 0 0 0 0 0 0 0 0 0 0 0 0 0 0 0 0 0 0 0 0 0 0 0 0 0 0 0 0 0 0 0 0
1.05939 1.36646e-13 1.36598e-13 4.85764e-17 0.00035549 0.00128824 0 0 0 0 0 0 0 0 0 0 0 0 0 0 0 0 0 0 0 0 0 0 0 0 0 0 0 0 0 0 0 0 0 0 0 0 0 0 0 0 0 0
1.11377 1.27094e-13 1.27053e-13 4.01697e-17 0.000316064 0.00118727 0 0 0 0 0 0 0 0 0 0 0 0 0 0 0 0 0 0 0 0 0 0 0 0 0 0 0 0 0 0 0 0 0 0 0 0 0 0 0 0 0 0
1.17094 1.18232e-13 1.18199e-13 3.32072e-17 0.000280864 0.00109517 0 0 0 0 0 0 0 0 0 0 0 0 0 0 0 0 0 0 0 0 0 0 0 0 0 0 0 0 0 0 0 0 0 0 0 0 0 0 0 0 0 0
1.23105 1.10007e-13 1.09979e-13 2.74481e-17 0.000249513 0.00101127 0 0 0 0 0 0 0 0 0 0 0 0 0 0 0 0 0 0 0 0 0 0 0 0 0 0 0 0 0 0 0 0 0 0 0 0 0 0 0 0 0 0
1.29424 1.02395e-13 1.02372e-13 2.27064e-17 0.000221754 0.00093498 0 0 0 0 0 0 0 0 0 0 0 0 0 0 0 0 0 0 0 0 0 0 0 0 0 0 0 0 0 0 0 0 0 0 0 0 0 0 0 0 0 0
1.36067 9.53263e-14 9.53076e-14 1.87813e-17 0.000197021 0.000865394 0 0 0 0 0 0 0 0 0 0 0 0 0 0 0 0 0 0 0 0 0 0 0 0 0 0 0 0 0 0 0 0 0 0 0 0 0 0 0 0 0 0
1.43051 8.8756e-14 8.87405e-14 1.55273e-17 0.000174944 0.000801918 0 0 0 0 0 0 0 0 0 0 0 0 0 0 0 0 0 0 0 0 0 0 0 0 0 0 0 0 0 0 0 0 0 0 0 0 0 0 0 0 0 0
1.50394 8.26564e-14 8.26436e-14 1.28369e-17 0.000155305 0.000744073 0 0 0 0 0 0 0 0 0 0 0 0 0 0 0 0 0 0 0 0 0 0 0 0 0 0 0 0 0 0 0 0 0 0 0 0 0 0 0 0 0 0
1.58114 7.69864e-14 7.69758e-14 1.06107e-17 0.000137825 0.00069133 0 0 0 0 0 0 0 0 0 0 0 0 0 0 0 0 0 0 0 0 0 0 0 0 0 0 0 0 0 0 0 0 0 0 0 0 0 0 0 0 0 0
1.6623 7.17088e-14 7.17e-14 8.7633e-18 0.000122207 0.00064316 0 0 0 0 0 0 0 0 0 0 0 0 0 0 0 0 0 0 0 0 0 0 0 0 0 0 0 0 0 0 0 0 0 0 0 0 0 0 0 0 0 0
1.74763 6.68196e-14 6.68124e-14 7.2459e-18 0.00010844 0.000599453 0 0 0 0 0 0 0 0 0 0 0 0 0 0 0 0 0 0 0 0 0 0 0 0 0 0 0 0 0 0 0 0 0 0 0 0 0 0 0 0 0 0
1.83733 6.2268e-14 6.2262e-14 5.9873e-18 9.61537e-05 0.000559543 0 0 0 0 0 0 0 0 0 0 0 0 0 0 0 0 0 0 0 0 0 0 0 0 0 0 0 0 0 0 0 0 0 0 0 0 0 0 0 0 0 0
1.93164 5.80303e-14 5.80253e-14 4.94466e-18 8.52083e-05 0.000523122 0 0 0 0 0 0 0 0 0 0 0 0 0 0 0 0 0 0 0 0 0 0 0 0 0 0 0 0 0 0 0 0 0 0 0 0 0 0 0 0 0 0
2.03079 5.40933e-14 5.40892e-14 4.08429e-18 7.55045e-05 0.000489971 0 0 0 0 0 0 0 0 0 0 0 0 0 0 0 0 0 0 0 0 0 0 0 0 0 0 0 0 0 0 0 0 0 0 0 0 0 0 0 0 0 0
2.13503 5.04316e-14 5.04282e-14 3.37408e-18 6.69041e-05 0.000459792 0 0 0 0 0 0 0 0 0 0 0 0 0 0 0 0 0 0 0 0 0 0 0 0 0 0 0 0 0 0 0 0 0 0 0 0 0 0 0 0 0 0
2.24463 4.70273e-14 4.70245e-14 2.78745e-18 5.92729e-05 0.000432294 0 0 0 0 0 0 0 0 0 0 0 0 0 0 0 0 0 0 0 0 0 0 0 0 0 0 0 0 0 0 0 0 0 0 0 0 0 0 0 0 0 0
2.35984 4.38549e-14 4.38526e-14 2.30152e-18 5.24802e-05 0.000407212 0 0 0 0 0 0 0 0 0 0 0 0 0 0 0 0 0 0 0 0 0 0 0 0 0 0 0 0 0 0 0 0 0 0 0 0 0 0 0 0 0 0
2.48097 4.09041e-14 4.09022e-14 1.89963e-18 4.6441e-05 0.000384341 0 0 0 0 0 0 0 0 0 0 0 0 0 0 0 0 0 0 0 0 0 0 0 0 0 0 0 0 0 0 0 0 0 0 0 0 0 0 0 0 0 0
2.60832 3.81603e-14 3.81587e-14 1.56902e-18 4.11164e-05 0.000363557 0 0 0 0 0 0 0 0 0 0 0 0 0 0 0 0 0 0 0 0 0 0 0 0 0 0 0 0 0 0 0 0 0 0 0 0 0 0 0 0 0 0
2.74221 3.5601e-14 3.55997e-14 1.29496e-18 3.63742e-05 0.000344588 0 0 0 0 0 0 0 0 0 0 0 0 0 0 0 0 0 0 0 0 0 0 0 0 0 0 0 0 0 0 0 0 0 0 0 0 0 0 0 0 0 1.4013e-45
2.88297 3.32194e-14 3.32183e-14 1.06851e-18 3.21653e-05 0.000355569 0 0 0 0 0 0 0 0 0 0 0 0 0 0 0 0 0 0 0 0 0 0 0 1.4013e-45 0 1.4013e-45 0 2.8026e-45 0 4.2039e-45 0 5.60519e-45 0 8.40779e-45 0 1.26117e-44 0 1.82169e-44 0 2.52234e-44 0 3.50325e-44
3.03095 3.10053e-14 3.10044e-14 8.81585e-19 2.84333e-05 0.000339755 0 0 0 0 0 0 0 0 0 0 0 0 0 1.4013e-45 0 2.8026e-45 0 7.00649e-45 0 1.26117e-44 0 2.38221e-44 0 3.92364e-44 0 6.44597e-44 0 1.02295e-43 0 1.56945e-43 0 2.36819e-43 0 3.46121e-43 0 4.98862e-43 0 7.04853e-43 0 9.8231e-43 0 1.34665e-42
3.18653 2.89562e-14 2.89554e-14 7.26908e-19 2.51038e-05 0.000325315 0 0 0 0 0 0 0 2.8026e-45 0 8.40779e-45 0 2.52234e-44 0 6.02558e-44 0 1.31722e-43 0 2.62043e-43 0 4.86251e-43 0 8.54792e-43 0 1.43493e-42 0 2.32055e-42 0 3.62936e-42 0 5.52952e-42 0 8.20741e-42 0 1.19222e-41 0 1.69893e-41 0 2.38067e-41 0 3.28843e-41 0 4.47351e-41
3.35009 2.70531e-14 2.70525e-14 5.9984e-19 2.21727e-05 0.000312207 0 0 0 1.4013e-45 0 1.54143e-44 0 8.26766e-44 0 3.01279e-43 0 8.49187e-43 0 2.03749e-42 0 4.34823e-42 0 8.51569e-42 0 1.55824e-41 0 2.70086e-41 0 4.47813e-41 0 7.15097e-41 0 1.10623e-40 0 1.66748e-40 0 2.45056e-40 0 3.52659e-40 0 4.98125e-40 0 6.9208e-40 0 9.48245e-40 0 1.28004e-39
3.52205 2.52414e-14 2.52409e-14 4.95742e-19 1.964e-05 0.000300365 0 2.8026e-45 0 3.36312e-44 0 4.86251e-43 0 2.61903e-42 0 9.18691e-42 0 2.52668e-41 0 5.92525e-41 0 1.24098e-40 0 2.38902e-40 0 4.30536e-40 0 7.35966e-40 0 1.20481e-39 0 1.90145e-39 0 2.90949e-39 0 4.34053e-39 0 6.31775e-39 0 9.00941e-39 0 1.26161e-38 0 1.73846e-38 0 2.36314e-38 0 3.16617e-38
3.70284 2.35267e-14 2.35263e-14 4.08418e-19 1.73598e-05 0.000289448 0 9.80909e-44 0 1.03696e-42 0 1.38602e-41 0 7.14018e-41 0 2.42554e-40 0 6.50082e-40 0 1.49188e-39 0 3.06677e-39 0 5.8071e-39 0 1.03115e-38 0 1.73913e-38 0 2.81204e-38 0 4.38763e-38 0 6.6427e-38 0 9.81084e-38 0 1.41467e-37 0 1.99959e-37 0 2.77664e-37 0 3.79556e-37 0 5.11984e-37 0 6.8097e-37
3.89291 2.19741e-14 2.19738e-14 3.36785e-19 1.53264e-05 0.000279523 0 2.77037e-42 0 2.75313e-41 0 3.43469e-40 0 1.69567e-39 0 5.58335e-39 0 1.45937e-38 0 3.2795e-38 0 6.62039e-38 0 1.23366e-37 0 2.1593e-37 0 3.59458e-37 0 5.74275e-37 0 8.86154e-37 0 1.3278e-36 0 1.94203e-36 0 2.77488e-36 0 3.88852e-36 0 5.35564e-36 0 7.26411e-36 0 9.72539e-36 0 1.28437e-35
4.09273 2.05258e-14 2.05255e-14 2.77682e-19 1.35285e-05 0.000270478 0 6.84801e-41 0 6.36956e-40 0 7.43064e-39 0 3.5198e-38 0 1.12434e-37 0 2.86812e-37 0 6.31511e-37 0 1.25259e-36 0 2.29801e-36 0 3.96646e-36 0 6.5196e-36 0 1.02949e-35 0 1.57154e-35 0 2.33121e-35 0 3.37738e-35 0 4.78318e-35 0 6.64682e-35 0 9.08206e-35 0 1.22253e-34 0 1.62486e-34 0 2.13105e-34
4.30281 1.9176e-14 1.91758e-14 2.28918e-19 1.19377e-05 0.000262237 0 1.4814e-39 0 1.29194e-38 0 1.41113e-37 0 6.42045e-37 0 1.99118e-36 0 4.96064e-36 0 1.07081e-35 0 2.08786e-35 0 3.77286e-35 0 6.42422e-35 0 1.04297e-34 0 1.62834e-34 0 2.45974e-34 0 3.61324e-34 0 5.18665e-34 0 7.2824e-34 0 1.00375e-33 0 1.36092e-33 0 1.81845e-33 1.4013e-45 2.3998e-33 4.2039e-45 3.12625e-33
4.52368 1.79188e-14 1.79186e-14 1.88705e-19 1.05311e-05 0.000254733 0 2.81715e-38 0 2.30865e-37 0 2.36451e-36 0 1.03439e-35 0 3.11692e-35 0 7.58853e-35 0 1.60679e-34 0 3.08117e-34 0 5.48642e-34 0 9.21935e-34 0 1.47889e-33 0 2.28356e-33 0 3.41445e-33 0 4.96817e-33 0 7.06782e-33 1.4013e-45 9.84068e-33 5.60519e-45 1.34563e-32 1.68156e-44 1.81074e-32 4.90454e-44 2.40217e-32 1.30321e-43 3.14829e-32 3.26503e-43 4.07449e-32
4.75588 1.67476e-14 1.67474e-14 1.55515e-19 9.28582e-06 0.00024789 0 4.72704e-37 0 3.65064e-36 0 3.51236e-35 0 1.4789e-34 0 4.33319e-34 0 1.03161e-33 0 2.14374e-33 0 4.04474e-33 0 7.09979e-33 0 1.17781e-32 0 1.86738e-32 0 2.85264e-32 2.8026e-45 4.22318e-32 1.12104e-44 6.08825e-32 4.48416e-44 8.58591e-32 1.56945e-43 1.1857e-31 4.77843e-43 1.60885e-31 1.37888e-42 2.1491e-31 3.76249e-42 2.83116e-31 9.45456e-42 3.68565e-31 2.26338e-41 4.73954e-31
5 1.56589e-14 1.56588e-14 1.28149e-19 8.1838e-06 0.000241657 0 7.02428e-36 0 5.12973e-35 0 4.64656e-34 0 1.88518e-33 0 5.37508e-33 0 1.2521e-32 0 2.55491e-32 0 4.74517e-32 0 8.21406e-32 1.4013e-45 1.34573e-31 8.40779e-45 2.1095e-31 4.90454e-44 3.189e-31 2.34017e-43 4.67573e-31 9.3887e-43 6.68016e-31 3.38834e-42 9.34089e-31 1.10885e-41 1.27973e-30 3.20771e-41 1.72342e-30 8.78166e-41 2.28574e-30 2.28169e-40 2.99071e-30 5.4809e-40 3.86793e-30 1.25739e-39 4.94305e-30
5.25665 1.46483e-14 1.46482e-14 1.05559e-19 7.20626e-06 0.000235967 0 9.27801e-35 0 6.43062e-34 0 5.49791e-33 0 2.15193e-32 0 5.97556e-32 0 1.36286e-31 0 2.73209e-31 1.4013e-45 4.99713e-31 1.26117e-44 8.5339e-31 1.09301e-43 1.38124e-30 7.07656e-43 2.14135e-30 3.57471e-42 3.20442e-30 1.59888e-41 4.65435e-30 5.99784e-41 6.59156e-30 2.03456e-40 9.14105e-30 6.28328e-40 1.24269e-29 1.72584e-39 1.66131e-29 4.49809e-39 2.18808e-29 1.11549e-38 2.84398e-29 2.5673e-38 3.65477e-29 5.65574e-38 4.6424e-29
5.52648 1.37172e-14 1.37171e-14 8.69226e-20 6.33676e-06 0.000230777 0 1.0941e-33 0 7.22315e-33 0 5.8448e-32 0 2.20992e-31 0 5.98158e-31 0 1.33656e-30 5.60519e-45 2.6337e-30 1.00893e-43 4.74607e-30 1.01594e-42 7.99925e-30 7.69593e-42 1.2795e-29 4.52031e-41 1.96241e-29 2.10996e-40 2.90777e-29 8.77211e-40 4.18501e-29 3.08502e-39 5.8765e-29 9.85915e-39 8.08408e-29 2.88167e-38 1.09074e-28 7.53417e-38 1.4478e-28 1.87391e-37 1.89399e-28 4.44559e-37 2.44588e-28 9.82349e-37 3.1237e-28 2.08224e-36 3.94444e-28
5.81015 1.28847e-14 1.28847e-14 7.15163e-20 5.55046e-06 0.000226014 0 1.15907e-32 0 7.31253e-32 0 5.61583e-31 0 2.05394e-30 0 5.42373e-30 1.96182e-44 1.18812e-29 4.90454e-43 2.3025e-29 6.99388e-42 4.08979e-29 6.29603e-41 6.80566e-29 4.32207e-40 1.07616e-28 2.32846e-39 1.63339e-28 1.0081e-38 2.39711e-28 3.90949e-38 3.41947e-28 1.29303e-37 4.76186e-28 3.9044e-37 6.4996e-28 1.08297e-36 8.70543e-28 2.70165e-36 1.14752e-27 6.42722e-36 1.49129e-27 1.46179e-35 1.91375e-27 3.10749e-35 2.42936e-27 6.34958e-35 3.05004e-27
6.10839 1.23642e-14 1.23641e-14 5.88225e-20 4.75748e-06 0.000221585 0 1.12859e-31 0 6.82264e-31 0 4.98594e-30 0 1.76634e-29 2.94273e-44 4.55454e-29 1.46296e-42 9.78765e-29 3.16876e-41 1.86643e-28 3.97006e-40 3.26917e-28 3.21059e-39 5.37311e-28 2.00614e-38 8.40216e-28 9.95474e-38 1.2624e-27 4.01228e-37 1.83543e-27 1.45636e-36 2.59568e-27 4.54354e-36 3.5856e-27 1.29989e-35 4.85694e-27 3.43034e-35 6.45898e-27 8.18401e-35 8.45658e-27 1.86631e-34 1.09196e-26 4.07775e-34 1.39273e-26 8.35516e-34 1.75757e-26 1.64869e-33 2.19427e-26
6.42193 1.13308e-14 1.13308e-14 4.90663e-20 4.33034e-06 0.000218016 0 9.48798e-31 0 5.50679e-30 0 3.83847e-29 1.4013e-44 1.31888e-28 2.07252e-42 3.32359e-28 8.4382e-41 7.01126e-28 1.57319e-39 1.31627e-27 1.74218e-38 2.27448e-27 1.27221e-37 3.6936e-27 7.26913e-37 5.71368e-27 3.33569e-36 8.50039e-27 1.25601e-35 1.22472e-26 4.28088e-35 1.7175e-26 1.26338e-34 2.35395e-26 3.43366e-34 3.16502e-26 8.64196e-34 4.17982e-26 1.97607e-33 5.4366e-26 4.32853e-33 6.9762e-26 9.10344e-33 8.84475e-26 1.80106e-32 1.10978e-25 3.43796e-32 1.37797e-25
