# 1.88795e-06 1 38 : grain size, compostion index, size index
# Heating and cooling timescale: 50.4531 28899.3
# Ratio of heating to cooling to determine stochastic cutoff: 100
# Equilibrium emission is recorded even for those grains in the stochastic regime.
# Emission spectrum was computed for: 
# Type: ISRF
# Scales: 0.25 0.5 1 1.5 2 2.5 3 3.5 4 4.5 5 5.5 6 6.5 7 7.5 8 8.5 9 9.5 10
# StochasticallyHeated: 1 1 1 1 0 0 0 0 0 0 0 0 0 0 0 0 0 0 0 0 0
# Temperature: -1
# Wavelength  CExt  CAbs  CSca  Albedo G EqEm1 StEm1 EqEm2 StEm2 EqEm3 StEm3 EqEm4 StEm4 EqEm5 StEm5 EqEm6 StEm6 EqEm7 StEm7 EqEm8 StEm8 EqEm9 StEm9 EqEm10 StEm10 EqEm11 StEm11 EqEm12 StEm12 EqEm13 StEm13 EqEm14 StEm14 EqEm15 StEm15 EqEm16 StEm16 EqEm17 StEm17 EqEm18 StEm18 EqEm19 StEm19 EqEm20 StEm20 EqEm21 StEm21
0.05 1.66081e-11 1.13866e-11 5.22155e-12 0.314397 0.701921 0 0 0 0 0 0 0 0 0 0 0 0 0 0 0 0 0 0 0 0 0 0 0 0 0 0 0 0 0 0 0 0 0 0 0 0 0 0 0 0 0 0
0.0525665 1.70329e-11 1.16968e-11 5.33619e-12 0.313286 0.67853 0 0 0 0 0 0 0 0 0 0 0 0 0 0 0 0 0 0 0 0 0 0 0 0 0 0 0 0 0 0 0 0 0 0 0 0 0 0 0 0 0 0
0.0552647 1.75936e-11 1.20151e-11 5.57849e-12 0.317075 0.651742 0 0 0 0 0 0 0 0 0 0 0 0 0 0 0 0 0 0 0 0 0 0 0 0 0 0 0 0 0 0 0 0 0 0 0 0 0 0 0 0 0 0
0.0581015 1.86386e-11 1.25442e-11 6.09438e-12 0.326977 0.622578 0 0 0 0 0 0 0 0 0 0 0 0 0 0 0 0 0 0 0 0 0 0 0 0 0 0 0 0 0 0 0 0 0 0 0 0 0 0 0 0 0 0
0.0610839 2.02277e-11 1.34243e-11 6.80333e-12 0.336338 0.595418 0 0 0 0 0 0 0 0 0 0 0 0 0 0 0 0 0 0 0 0 0 0 0 0 0 0 0 0 0 0 0 0 0 0 0 0 0 0 0 0 0 0
0.0642193 2.1985e-11 1.44977e-11 7.48729e-12 0.340564 0.571545 0 0 0 0 0 0 0 0 0 0 0 0 0 0 0 0 0 0 0 0 0 0 0 0 0 0 0 0 0 0 0 0 0 0 0 0 0 0 0 0 0 0
0.0675157 2.36563e-11 1.5584e-11 8.07227e-12 0.341231 0.548883 0 0 0 0 0 0 0 0 0 0 0 0 0 0 0 0 0 0 0 0 0 0 0 0 0 0 0 0 0 0 0 0 0 0 0 0 0 0 0 0 0 0
0.0709813 2.51061e-11 1.65592e-11 8.54686e-12 0.34043 0.525008 0 0 0 0 0 0 0 0 0 0 0 0 0 0 0 0 0 0 0 0 0 0 0 0 0 0 0 0 0 0 0 0 0 0 0 0 0 0 0 0 0 0
0.0746248 2.62237e-11 1.73189e-11 8.90478e-12 0.33957 0.497815 0 0 0 0 0 0 0 0 0 0 0 0 0 0 0 0 0 0 0 0 0 0 0 0 0 0 0 0 0 0 0 0 0 0 0 0 0 0 0 0 0 0
0.0784553 2.68664e-11 1.77686e-11 9.09786e-12 0.338633 0.46649 0 0 0 0 0 0 0 0 0 0 0 0 0 0 0 0 0 0 0 0 0 0 0 0 0 0 0 0 0 0 0 0 0 0 0 0 0 0 0 0 0 0
0.0824824 2.6877e-11 1.78601e-11 9.01697e-12 0.33549 0.433137 0 0 0 0 0 0 0 0 0 0 0 0 0 0 0 0 0 0 0 0 0 0 0 0 0 0 0 0 0 0 0 0 0 0 0 0 0 0 0 0 0 0
0.0867162 2.63788e-11 1.77926e-11 8.58627e-12 0.325498 0.394546 0 0 0 0 0 0 0 0 0 0 0 0 0 0 0 0 0 0 0 0 0 0 0 0 0 0 0 0 0 0 0 0 0 0 0 0 0 0 0 0 0 0
0.0911674 2.69497e-11 1.80872e-11 8.86256e-12 0.328855 0.355365 0 0 0 0 0 0 0 0 0 0 0 0 0 0 0 0 0 0 0 0 0 0 0 0 0 0 0 0 0 0 0 0 0 0 0 0 0 0 0 0 0 0
0.095847 2.75619e-11 1.82823e-11 9.27962e-12 0.336683 0.322909 0 0 0 0 0 0 0 0 0 0 0 0 0 0 0 0 0 0 0 0 0 0 0 0 0 0 0 0 0 0 0 0 0 0 0 0 0 0 0 0 0 0
0.100767 2.7735e-11 1.82947e-11 9.44033e-12 0.340376 0.296088 0 0 0 0 0 0 0 0 0 0 0 0 0 0 0 0 0 0 0 0 0 0 0 0 0 0 0 0 0 0 0 0 0 0 0 0 0 0 0 0 0 0
0.105939 2.71626e-11 1.79179e-11 9.24466e-12 0.340346 0.27789 0 0 0 0 0 0 0 0 0 0 0 0 0 0 0 0 0 0 0 0 0 0 0 0 0 0 0 0 0 0 0 0 0 0 0 0 0 0 0 0 0 0
0.111377 2.57202e-11 1.71563e-11 8.56395e-12 0.332966 0.260039 0 0 0 0 0 0 0 0 0 0 0 0 0 0 0 0 0 0 0 0 0 0 0 0 0 0 0 0 0 0 0 0 0 0 0 0 0 0 0 0 0 0
0.117094 2.39747e-11 1.61591e-11 7.81556e-12 0.325992 0.241967 0 0 0 0 0 0 0 0 0 0 0 0 0 0 0 0 0 0 0 0 0 0 0 0 0 0 0 0 0 0 0 0 0 0 0 0 0 0 0 0 0 0
0.123105 2.19763e-11 1.49492e-11 7.02717e-12 0.319761 0.224328 0 0 0 0 0 0 0 0 0 0 0 0 0 0 0 0 0 0 0 0 0 0 0 0 0 0 0 0 0 0 0 0 0 0 0 0 0 0 0 0 0 0
0.129424 1.98245e-11 1.35802e-11 6.24431e-12 0.314979 0.207666 0 0 0 0 0 0 0 0 0 0 0 0 0 0 0 0 0 0 0 0 0 0 0 0 0 0 0 0 0 0 0 0 0 0 0 0 0 0 0 0 0 0
0.136067 1.76301e-11 1.21098e-11 5.5203e-12 0.313118 0.192705 0 0 0 0 0 0 0 0 0 0 0 0 0 0 0 0 0 0 0 0 0 0 0 0 0 0 0 0 0 0 0 0 0 0 0 0 0 0 0 0 0 0
0.143051 1.54145e-11 1.04743e-11 4.9402e-12 0.320491 0.181494 0 0 0 0 0 0 0 0 0 0 0 0 0 0 0 0 0 0 0 0 0 0 0 0 0 0 0 0 0 0 0 0 0 0 0 0 0 0 0 0 0 0
0.150394 1.20143e-11 7.78665e-12 4.22763e-12 0.351884 0.172654 0 0 0 0 0 0 0 0 0 0 0 0 0 0 0 0 0 0 0 0 0 0 0 0 0 0 0 0 0 0 0 0 0 0 0 0 0 0 0 0 0 0
0.158114 8.34475e-12 5.02977e-12 3.31497e-12 0.397252 0.15594 0 0 0 0 0 0 0 0 0 0 0 0 0 0 0 0 0 0 0 0 0 0 0 0 0 0 0 0 0 0 0 0 0 0 0 0 0 0 0 0 0 0
0.16623 5.60753e-12 3.11417e-12 2.49336e-12 0.444645 0.135967 0 0 0 0 0 0 0 0 0 0 0 0 0 0 0 0 0 0 0 0 0 0 0 0 0 0 0 0 0 0 0 0 0 0 0 0 0 0 0 0 0 0
0.174762 3.85507e-12 1.99479e-12 1.86029e-12 0.482556 0.118092 0 0 0 0 0 0 0 0 0 0 0 0 0 0 0 0 0 0 0 0 0 0 0 0 0 0 0 0 0 0 0 0 0 0 0 0 0 0 0 0 0 0
0.183733 2.65366e-12 1.26503e-12 1.38862e-12 0.523286 0.103063 0 0 0 0 0 0 0 0 0 0 0 0 0 0 0 0 0 0 0 0 0 0 0 0 0 0 0 0 0 0 0 0 0 0 0 0 0 0 0 0 0 0
0.193164 1.86787e-12 8.23427e-13 1.04445e-12 0.559163 0.0905911 0 0 0 0 0 0 0 0 0 0 0 0 0 0 0 0 0 0 0 0 0 0 0 0 0 0 0 0 0 0 0 0 0 0 0 0 0 0 0 0 0 0
0.203079 1.34293e-12 5.50719e-13 7.92215e-13 0.589913 0.0801102 0 0 0 0 0 0 0 0 0 0 0 0 0 0 0 0 0 0 0 0 0 0 0 0 0 0 0 0 0 0 0 0 0 0 0 0 0 0 0 0 0 0
0.213503 9.97381e-13 3.93313e-13 6.04068e-13 0.605654 0.0711245 0 0 0 0 0 0 0 0 0 0 0 0 0 0 0 0 0 0 0 0 0 0 0 0 0 0 0 0 0 0 0 0 0 0 0 0 0 0 0 0 0 0
0.224463 7.86358e-13 3.21622e-13 4.64736e-13 0.590998 0.0634072 0 0 0 0 0 0 0 0 0 0 0 0 0 0 0 0 0 0 0 0 0 0 0 0 0 0 0 0 0 0 0 0 0 0 0 0 0 0 0 0 0 0
0.235984 6.59654e-13 2.97686e-13 3.61969e-13 0.548725 0.0567597 0 0 0 0 0 0 0 0 0 0 0 0 0 0 0 0 0 0 0 0 0 0 0 0 0 0 0 0 0 0 0 0 0 0 0 0 0 0 0 0 0 0
0.248097 5.74343e-13 2.89385e-13 2.84958e-13 0.496146 0.0509652 0 0 0 0 0 0 0 0 0 0 0 0 0 0 0 0 0 0 0 0 0 0 0 0 0 0 0 0 0 0 0 0 0 0 0 0 0 0 0 0 0 0
0.260832 5.02614e-13 2.76795e-13 2.25819e-13 0.449289 0.0458418 0 0 0 0 0 0 0 0 0 0 0 0 0 0 0 0 0 0 0 0 0 0 0 0 0 0 0 0 0 0 0 0 0 0 0 0 0 0 0 0 0 0
0.274221 4.43127e-13 2.63349e-13 1.79777e-13 0.405702 0.0412802 0 0 0 0 0 0 0 0 0 0 0 0 0 0 0 0 0 0 0 0 0 0 0 0 0 0 0 0 0 0 0 0 0 0 0 0 0 0 0 0 0 0
0.288297 3.93951e-13 2.50129e-13 1.43822e-13 0.365076 0.0372153 0 0 0 0 0 0 0 0 0 0 0 0 0 0 0 0 0 0 0 0 0 0 0 0 0 0 0 0 0 0 0 0 0 0 0 0 0 0 0 0 0 0
0.303095 3.53023e-13 2.37597e-13 1.15426e-13 0.326964 0.0335737 0 0 0 0 0 0 0 0 0 0 0 0 0 0 0 0 0 0 0 0 0 0 0 0 0 0 0 0 0 0 0 0 0 0 0 0 0 0 0 0 0 0
0.318653 3.18414e-13 2.25577e-13 9.28372e-14 0.291561 0.0303012 0 0 0 0 0 0 0 0 0 0 0 0 0 0 0 0 0 0 0 0 0 0 0 0 0 0 0 0 0 0 0 0 0 0 0 0 0 0 0 0 0 0
0.335009 2.89005e-13 2.14133e-13 7.48712e-14 0.259066 0.0273626 0 0 0 0 0 0 0 0 0 0 0 0 0 0 0 0 0 0 0 0 0 0 0 0 0 0 0 0 0 0 0 0 0 0 0 0 0 0 0 0 0 0
0.352205 2.63827e-13 2.03328e-13 6.04989e-14 0.229313 0.024718 0 0 0 0 0 0 0 0 0 0 0 0 0 0 0 0 0 0 0 0 0 0 0 0 0 0 0 0 0 0 0 0 0 0 0 0 0 0 0 0 0 0
0.370284 2.41998e-13 1.93052e-13 4.89468e-14 0.202261 0.022333 0 0 0 0 0 0 0 0 0 0 0 0 0 0 0 0 0 0 0 0 0 0 0 0 0 0 0 0 0 0 0 0 0 0 0 0 0 0 0 0 0 0
0.389291 2.22998e-13 1.83334e-13 3.96643e-14 0.177868 0.0201833 0 0 0 0 0 0 0 0 0 0 0 0 0 0 0 0 0 0 0 0 0 0 0 0 0 0 0 0 0 0 0 0 0 0 0 0 0 0 0 0 0 0
0.409273 2.06255e-13 1.7405e-13 3.22055e-14 0.156144 0.0182476 0 0 0 0 0 0 0 0 0 0 0 0 0 0 0 0 0 0 0 0 0 0 0 0 0 0 0 0 0 0 0 0 0 0 0 0 0 0 0 0 0 0
0.430281 1.91368e-13 1.65208e-13 2.61606e-14 0.136703 0.0164977 0 0 0 0 0 0 0 0 0 0 0 0 0 0 0 0 0 0 0 0 0 0 0 0 0 0 0 0 0 0 0 0 0 0 0 0 0 0 0 0 0 0
0.452368 1.78116e-13 1.56835e-13 2.12803e-14 0.119475 0.0149189 0 0 0 0 0 0 0 0 0 0 0 0 0 0 0 0 0 0 0 0 0 0 0 0 0 0 0 0 0 0 0 0 0 0 0 0 0 0 0 0 0 0
0.475588 1.66217e-13 1.48898e-13 1.73196e-14 0.104198 0.0134915 0 0 0 0 0 0 0 0 0 0 0 0 0 0 0 0 0 0 0 0 0 0 0 0 0 0 0 0 0 0 0 0 0 0 0 0 0 0 0 0 0 0
0.5 1.55539e-13 1.41426e-13 1.41132e-14 0.0907371 0.0122037 0 0 0 0 0 0 0 0 0 0 0 0 0 0 0 0 0 0 0 0 0 0 0 0 0 0 0 0 0 0 0 0 0 0 0 0 0 0 0 0 0 0
0.525665 1.4588e-13 1.34377e-13 1.1503e-14 0.0788526 0.0110385 0 0 0 0 0 0 0 0 0 0 0 0 0 0 0 0 0 0 0 0 0 0 0 0 0 0 0 0 0 0 0 0 0 0 0 0 0 0 0 0 0 0
0.552648 1.37105e-13 1.27731e-13 9.37408e-15 0.0683713 0.00998335 0 0 0 0 0 0 0 0 0 0 0 0 0 0 0 0 0 0 0 0 0 0 0 0 0 0 0 0 0 0 0 0 0 0 0 0 0 0 0 0 0 0
0.581015 1.29039e-13 1.21385e-13 7.65457e-15 0.0593197 0.00903269 0 0 0 0 0 0 0 0 0 0 0 0 0 0 0 0 0 0 0 0 0 0 0 0 0 0 0 0 0 0 0 0 0 0 0 0 0 0 0 0 0 0
0.610839 1.21657e-13 1.15406e-13 6.2518e-15 0.0513886 0.00817267 0 0 0 0 0 0 0 0 0 0 0 0 0 0 0 0 0 0 0 0 0 0 0 0 0 0 0 0 0 0 0 0 0 0 0 0 0 0 0 0 0 0
0.642193 1.14865e-13 1.09761e-13 5.10461e-15 0.0444399 0.00739358 0 0 0 0 0 0 0 0 0 0 0 0 0 0 0 0 0 0 0 0 0 0 0 0 0 0 0 0 0 0 0 0 0 0 0 0 0 0 0 0 0 0
0.675157 1.08604e-13 1.04435e-13 4.16903e-15 0.0383874 0.00668872 0 0 0 0 0 0 0 0 0 0 0 0 0 0 0 0 0 0 0 0 0 0 0 0 0 0 0 0 0 0 0 0 0 0 0 0 0 0 0 0 0 0
0.709813 1.02826e-13 9.94178e-14 3.40852e-15 0.0331483 0.00605247 0 0 0 0 0 0 0 0 0 0 0 0 0 0 0 0 0 0 0 0 0 0 0 0 0 0 0 0 0 0 0 0 0 0 0 0 0 0 0 0 0 0
0.746248 9.74665e-14 9.46799e-14 2.78662e-15 0.0285906 0.00547645 0 0 0 0 0 0 0 0 0 0 0 0 0 0 0 0 0 0 0 0 0 0 0 0 0 0 0 0 0 0 0 0 0 0 0 0 0 0 0 0 0 0
0.784553 9.24735e-14 9.01959e-14 2.27759e-15 0.0246296 0.00495469 0 0 0 0 0 0 0 0 0 0 0 0 0 0 0 0 0 0 0 0 0 0 0 0 0 0 0 0 0 0 0 0 0 0 0 0 0 0 0 0 0 0
0.824824 8.77712e-14 8.59088e-14 1.86235e-15 0.0212182 0.00448291 0 0 0 0 0 0 0 0 0 0 0 0 0 0 0 0 0 0 0 0 0 0 0 0 0 0 0 0 0 0 0 0 0 0 0 0 0 0 0 0 0 0
0.867162 8.33516e-14 8.18275e-14 1.52416e-15 0.0182859 0.00405689 0 0 0 0 0 0 0 0 0 0 0 0 0 0 0 0 0 0 0 0 0 0 0 0 0 0 0 0 0 0 0 0 0 0 0 0 0 0 0 0 0 0
0.911674 7.91957e-14 7.79485e-14 1.24714e-15 0.0157476 0.00367103 0 0 0 0 0 0 0 0 0 0 0 0 0 0 0 0 0 0 0 0 0 0 0 0 0 0 0 0 0 0 0 0 0 0 0 0 0 0 0 0 0 0
0.95847 7.52618e-14 7.42414e-14 1.02039e-15 0.0135579 0.00332167 0 0 0 0 0 0 0 0 0 0 0 0 0 0 0 0 0 0 0 0 0 0 0 0 0 0 0 0 0 0 0 0 0 0 0 0 0 0 0 0 0 0
1.00767 7.15684e-14 7.07333e-14 8.35103e-16 0.0116686 0.00300573 0 0 0 0 0 0 0 0 0 0 0 0 0 0 0 0 0 0 0 0 0 0 0 0 0 0 0 0 0 0 0 0 0 0 0 0 0 0 0 0 0 0
1.05939 6.81112e-14 6.74276e-14 6.83541e-16 0.0100357 0.00271991 0 0 0 0 0 0 0 0 0 0 0 0 0 0 0 0 0 0 0 0 0 0 0 0 0 0 0 0 0 0 0 0 0 0 0 0 0 0 0 0 0 0
1.11377 6.48499e-14 6.42905e-14 5.59343e-16 0.00862519 0.00246103 0 0 0 0 0 0 0 0 0 0 0 0 0 0 0 0 0 0 0 0 0 0 0 0 0 0 0 0 0 0 0 0 0 0 0 0 0 0 0 0 0 0
1.17094 6.17572e-14 6.12997e-14 4.57536e-16 0.00740863 0.00222653 0 0 0 0 0 0 0 0 0 0 0 0 0 0 0 0 0 0 0 0 0 0 0 0 0 0 0 0 0 0 0 0 0 0 0 0 0 0 0 0 0 0
1.23105 5.88349e-14 5.84604e-14 3.74454e-16 0.00636449 0.00201466 0 0 0 0 0 0 0 0 0 0 0 0 0 0 0 0 0 0 0 0 0 0 0 0 0 0 0 0 0 0 0 0 0 0 0 0 0 0 0 0 0 0
1.29424 5.62088e-14 5.59025e-14 3.06347e-16 0.00545017 0.00182277 0 0 0 0 0 0 0 0 0 0 0 0 0 0 0 0 0 0 0 0 0 0 0 0 0 0 0 0 0 0 0 0 0 0 0 0 0 0 0 0 0 0
1.36067 5.37562e-14 5.35055e-14 2.50731e-16 0.00466423 0.00164923 0 0 0 0 0 0 0 0 0 0 0 0 0 0 0 0 0 0 0 0 0 0 0 0 0 0 0 0 0 0 0 0 0 0 0 0 0 0 0 0 0 0
1.43051 5.14324e-14 5.12274e-14 2.0506e-16 0.00398699 0.00149196 0 0 0 0 0 0 0 0 0 0 0 0 0 0 0 0 0 0 0 0 0 0 0 0 0 0 0 0 0 0 0 0 0 0 0 0 0 0 0 0 0 0
1.50394 4.92303e-14 4.90625e-14 1.67831e-16 0.00340909 0.00134993 0 0 0 0 0 0 0 0 0 0 0 0 0 0 0 0 0 0 0 0 0 0 0 0 0 0 0 0 0 0 0 0 0 0 0 0 0 0 0 0 0 0
1.58114 4.71295e-14 4.69922e-14 1.37322e-16 0.00291371 0.00122132 0 0 0 0 0 0 0 0 0 0 0 0 0 0 0 0 0 0 0 0 0 0 0 0 0 0 0 0 0 0 0 0 0 0 0 0 0 0 0 0 0 0
1.6623 4.51225e-14 4.50102e-14 1.12266e-16 0.00248803 0.00110473 0 0 0 0 0 0 0 0 0 0 0 0 0 0 0 0 0 0 0 0 0 0 0 0 0 0 0 0 0 0 0 0 0 0 0 0 0 0 0 0 0 0
1.74763 4.32373e-14 4.31455e-14 9.18045e-17 0.00212327 0.000999337 0 0 0 0 0 0 0 0 0 0 0 0 0 0 0 0 0 0 0 0 0 0 0 0 0 0 0 0 0 0 0 0 0 0 0 0 0 0 0 0 0 0
1.83733 4.15188e-14 4.14437e-14 7.50563e-17 0.00180777 0.000903959 0 0 0 0 0 0 0 0 0 0 0 0 0 0 0 0 0 0 0 0 0 0 0 0 0 0 0 0 0 0 0 0 0 0 0 0 0 0 0 0 0 0
1.93164 3.99159e-14 3.98545e-14 6.13378e-17 0.00153668 0.000817584 0 0 0 0 0 0 0 0 0 0 0 0 0 0 0 0 0 0 0 0 0 0 0 0 0 0 0 0 0 0 0 0 0 0 0 0 0 0 0 0 0 0
2.03079 3.84051e-14 3.8355e-14 5.01195e-17 0.00130502 0.00073942 0 0 0 0 0 0 0 0 0 0 0 0 0 0 0 0 0 0 0 0 0 0 0 0 0 0 0 0 0 0 0 0 0 0 0 0 0 0 0 0 0 0
2.13503 3.69762e-14 3.69352e-14 4.09547e-17 0.0011076 0.000668764 0 0 0 0 0 0 0 0 0 0 0 0 0 0 0 0 0 0 0 0 0 0 0 0 0 0 0 0 0 0 0 0 0 0 0 0 0 0 0 0 0 0
2.24463 3.56468e-14 3.56134e-14 3.34447e-17 0.000938224 0.000604765 0 0 0 0 0 0 0 0 0 0 0 0 0 0 0 0 0 0 0 0 0 0 0 0 0 0 0 0 0 0 0 0 0 0 0 0 0 0 0 0 0 0
2.35984 3.43785e-14 3.43512e-14 2.72982e-17 0.000794048 0.000546816 0 0 0 0 0 0 0 0 0 0 0 0 0 0 0 0 0 0 0 0 0 0 0 0 0 0 0 0 0 0 0 0 0 0 0 0 0 0 0 0 0 0
2.48097 3.3181e-14 3.31588e-14 2.226e-17 0.000670865 0.000494315 0 0 0 0 0 0 0 0 0 0 0 0 0 0 0 0 0 0 0 0 0 0 0 0 0 0 0 0 0 0 0 0 0 0 0 0 0 0 0 0 0 0
2.60832 3.20744e-14 3.20562e-14 1.81573e-17 0.000566099 0.000446901 0 0 0 0 0 0 0 0 0 0 0 0 0 0 0 0 0 0 0 0 0 0 0 0 0 0 0 0 0 0 0 0 0 0 0 0 0 0 0 0 0 0
2.74221 3.10248e-14 3.101e-14 1.48034e-17 0.000477147 0.000403982 0 0 0 0 0 0 0 0 0 0 0 0 0 0 0 0 0 0 0 0 0 0 0 0 0 0 0 0 0 0 0 0 0 0 0 0 0 0 0 0 0 0
2.88297 3.00513e-14 3.00393e-14 1.20484e-17 0.000400929 0.000365042 0 0 0 0 0 0 0 0 0 0 0 0 0 0 0 0 0 0 0 0 0 0 0 0 0 0 0 0 0 0 0 0 0 0 0 0 0 0 0 0 0 0
3.03095 2.9132e-14 2.91222e-14 9.80471e-18 0.000336562 0.000329855 0 0 0 0 0 0 0 0 0 0 0 0 0 0 0 0 0 0 0 0 0 0 0 0 0 0 0 0 0 0 0 0 0 0 0 0 0 0 0 0 0 0
3.18653 2.83296e-14 2.83216e-14 7.97488e-18 0.000281504 0.00029803 0 0 0 0 0 0 0 0 0 0 0 0 0 0 0 0 0 0 0 0 0 0 0 0 0 0 0 0 0 0 0 0 0 0 0 0 0 0 0 0 0 0
3.35009 2.75714e-14 2.75649e-14 6.47803e-18 0.000234955 0.000269196 0 0 0 0 0 0 0 0 0 0 0 0 0 0 0 0 0 0 0 0 0 0 0 0 0 0 0 0 0 0 0 0 0 0 0 0 0 0 0 0 0 0
3.52205 2.67494e-14 2.67441e-14 5.2528e-18 0.000196371 0.000243061 0 0 0 0 0 0 0 0 0 0 0 0 0 0 0 0 0 0 0 0 0 0 0 0 0 0 0 0 0 0 0 0 0 0 0 0 0 0 0 0 0 0
3.70284 2.59403e-14 2.5936e-14 4.25681e-18 0.000164101 0.00021945 0 0 0 0 0 0 0 0 0 0 0 0 0 0 0 0 0 0 0 0 0 0 0 0 0 0 0 0 0 0 0 0 0 0 0 0 0 0 0 0 0 0
3.89291 2.51587e-14 2.51552e-14 3.44277e-18 0.000136842 0.000198053 0 0 0 0 0 0 0 0 0 0 0 0 0 0 0 0 0 0 0 0 0 0 0 0 0 0 0 0 0 0 0 0 0 0 0 0 0 0 0 0 0 0
4.09273 2.44183e-14 2.44156e-14 2.77686e-18 0.00011372 0.000178645 0 0 0 0 0 0 0 0 0 0 0 0 0 0 0 0 0 0 0 0 0 0 0 0 0 0 0 0 0 0 0 0 0 0 0 0 0 0 0 0 0 0
4.30281 2.36438e-14 2.36416e-14 2.23342e-18 9.44613e-05 0.000161054 0 0 0 0 0 0 0 0 0 0 0 0 0 0 0 0 0 0 0 0 0 0 0 0 0 0 0 0 0 0 0 0 0 0 0 0 0 0 0 0 0 0
4.52368 2.29309e-14 2.29291e-14 1.79155e-18 7.81284e-05 0.000145134 0 0 0 0 0 0 0 0 0 0 0 0 0 0 0 0 0 0 0 0 0 0 0 0 0 0 0 0 0 0 0 0 0 0 0 0 0 0 0 0 0 0
4.75588 2.23123e-14 2.23109e-14 1.43115e-18 6.41418e-05 0.000130688 0 0 0 0 0 0 0 0 0 0 0 0 0 0 0 0 0 0 0 0 0 0 0 0 0 0 0 0 0 0 0 0 0 0 0 0 0 0 0 0 0 0
5 2.18478e-14 2.18467e-14 1.13616e-18 5.20036e-05 0.000117552 0 0 0 0 0 0 0 0 0 0 0 0 0 0 0 0 0 0 0 0 0 0 0 0 0 0 0 0 0 0 0 0 0 0 0 0 0 0 0 0 0 0
5.25665 2.1595e-14 2.15941e-14 8.96203e-19 4.15005e-05 0.000105628 0 0 0 0 0 0 0 0 0 0 0 0 0 0 0 0 0 0 0 0 0 0 0 0 0 0 0 0 0 0 0 0 0 0 0 0 0 0 0 0 0 0
5.52648 2.15242e-14 2.15235e-14 7.02213e-19 3.26243e-05 9.48233e-05 0 0 0 0 0 0 0 0 0 0 0 0 0 0 0 0 0 0 0 0 0 0 0 0 0 0 0 0 0 0 0 0 0 0 0 0 0 0 0 0 0 0
5.81015 2.17427e-14 2.17422e-14 5.43646e-19 2.50035e-05 8.49714e-05 0 0 0 0 0 0 0 0 0 0 0 0 0 0 0 0 0 0 0 0 0 0 0 0 0 0 0 0 0 0 0 0 1.4013e-45 0 2.8026e-45 0 7.00649e-45 0 1.54143e-44 0 3.50325e-44 0
6.10839 2.21581e-14 2.21577e-14 4.15508e-19 1.8752e-05 7.60165e-05 0 0 0 0 0 0 0 0 0 0 0 0 0 0 0 0 0 0 0 0 0 0 0 0 1.4013e-45 0 4.2039e-45 0 1.26117e-44 0 3.64338e-44 0 1.00893e-43 0 2.52234e-43 0 5.96953e-43 0 1.33684e-42 0 2.83483e-42 0
6.42193 2.24861e-14 2.24858e-14 3.11818e-19 1.38671e-05 6.78683e-05 0 0 0 0 0 0 0 0 0 0 0 0 0 0 0 0 0 0 1.4013e-45 0 5.60519e-45 0 2.66247e-44 0 1.02295e-43 0 3.48923e-43 0 1.05238e-42 0 2.90629e-42 0 7.54319e-42 0 1.80894e-41 0 4.10314e-41 0 8.82552e-41 0 1.80448e-40 0
6.75157 2.2544e-14 2.25437e-14 2.2534e-19 9.99558e-06 6.03433e-05 0 0 0 0 0 0 0 1.4013e-45 0 0 0 0 0 0 1.4013e-45 0 1.68156e-44 0 1.05097e-43 0 5.14277e-43 0 2.09634e-42 0 7.52357e-42 0 2.40042e-41 0 6.86146e-41 0 1.80427e-40 0 4.46989e-40 0 1.02711e-39 0 2.23836e-39 0 4.63783e-39 0 9.15719e-39 0
7.09813 2.29047e-14 2.29046e-14 1.50909e-19 6.58853e-06 5.32601e-05 0 0 0 0 0 1.4013e-45 0 1.12104e-43 0 0 1.4013e-45 0 1.68156e-44 0 1.84971e-43 0 1.34385e-42 0 7.69733e-42 0 3.48279e-41 0 1.32428e-40 0 4.46448e-40 0 1.34583e-39 0 3.65474e-39 0 9.16733e-39 0 2.17271e-38 0 4.79382e-38 0 1.00571e-37 0 2.011e-37 0 3.84092e-37 0
7.46248 2.82219e-14 2.82218e-14 8.50315e-20 3.01297e-06 4.63571e-05 0 0 0 0 0 1.37327e-43 0 6.43056e-42 2.8026e-45 0 1.10703e-43 0 1.65353e-42 0 1.57828e-41 0 1.03999e-40 0 5.46974e-40 0 2.29902e-39 0 8.1898e-39 0 2.60193e-38 0 7.43219e-38 0 1.92221e-37 0 4.60985e-37 0 1.04749e-36 0 2.22356e-36 0 4.49915e-36 0 8.69712e-36 0 1.60945e-35 0
7.84553 5.48483e-14 5.48482e-14 4.24976e-20 7.7482e-07 3.97831e-05 0 0 0 2.52234e-44 0 1.18592e-41 7.00649e-45 4.91137e-40 5.63322e-43 0 1.52419e-41 0 1.99415e-40 0 1.70459e-39 0 1.02444e-38 0 4.96849e-38 0 1.94695e-37 0 6.51849e-37 0 1.9573e-36 0 5.3116e-36 0 1.31147e-35 0 3.01369e-35 0 6.57894e-35 0 1.34616e-34 0 2.63168e-34 0 4.9261e-34 0 8.84615e-34 0
8.24824 1.14097e-13 1.14097e-13 5.19316e-20 4.55154e-07 3.41893e-05 0 8.40779e-45 0 2.43125e-42 2.8026e-45 9.26309e-40 1.1883e-42 3.39989e-38 7.82023e-41 0 1.80112e-39 0 2.07837e-38 0 1.59988e-37 0 8.80905e-37 0 3.95536e-36 0 1.44996e-35 0 4.57643e-35 0 1.30234e-34 0 3.36606e-34 0 7.95228e-34 0 1.75464e-33 0 3.68716e-33 0 7.28535e-33 0 1.3784e-32 0 2.50236e-32 0 4.36704e-32 0
8.67162 1.74144e-13 1.74144e-13 9.34111e-20 5.36401e-07 2.97655e-05 0 5.92749e-43 0 1.4225e-40 3.0268e-43 4.51082e-38 1.19427e-40 1.47199e-36 6.40889e-39 0 1.26647e-37 0 1.29692e-36 0 9.03655e-36 0 4.57796e-35 0 1.91022e-34 0 6.57218e-34 0 1.96114e-33 0 5.30309e-33 0 1.30856e-32 0 2.96437e-32 0 6.29287e-32 0 1.27528e-31 0 2.43739e-31 0 4.4702e-31 0 7.88241e-31 0 1.33872e-30 0
9.11674 2.5674e-13 2.5674e-13 1.82156e-19 7.09494e-07 2.53675e-05 0 3.35107e-41 1.4013e-45 6.84466e-39 3.16455e-41 1.81466e-36 9.3389e-39 5.28134e-35 4.12597e-37 0 7.04807e-36 0 6.44261e-35 0 4.08308e-34 0 1.91097e-33 0 7.43659e-33 0 2.40879e-32 0 6.81422e-32 0 1.75527e-31 0 4.14435e-31 0 9.02104e-31 0 1.84591e-30 0 3.61403e-30 0 6.6923e-30 0 1.19156e-29 0 2.04372e-29 0 3.38237e-29 0
9.5847 2.88864e-13 2.88864e-13 2.59105e-19 8.9698e-07 2.27192e-05 0 1.23434e-39 8.40779e-44 2.1532e-37 2.02867e-39 4.79479e-35 4.53521e-37 1.24837e-33 1.66533e-35 0 2.47666e-34 0 2.03207e-33 0 1.17683e-32 0 5.10802e-32 0 1.86021e-31 0 5.68939e-31 0 1.52979e-30 0 3.76268e-30 0 8.51907e-30 0 1.78525e-29 0 3.52755e-29 0 6.68355e-29 0 1.20095e-28 0 2.07891e-28 0 3.47297e-28 0 5.60812e-28 0
10.0767 2.58816e-13 2.58816e-13 2.49151e-19 9.62657e-07 2.15777e-05 0 3.10811e-38 5.66825e-42 4.64936e-36 8.39802e-38 8.73524e-34 1.44164e-35 2.04067e-32 4.43971e-34 0 5.78737e-33 0 4.28474e-32 0 2.27749e-31 0 9.20172e-31 0 3.14609e-30 0 9.11113e-30 0 2.33435e-29 0 5.49474e-29 0 1.1954e-28 0 2.41621e-28 0 4.61814e-28 0 8.48107e-28 0 1.48096e-27 0 2.49585e-27 0 4.06632e-27 0 6.41441e-27 0
10.5939 2.17114e-13 2.17114e-13 2.25904e-19 1.04048e-06 2.12055e-05 9.80909e-45 6.32825e-37 2.87652e-40 8.14979e-35 2.66659e-36 1.29757e-32 3.56066e-34 2.72782e-31 9.27586e-33 0 1.06668e-31 0 7.16193e-31 0 3.50863e-30 0 1.32417e-29 0 4.26362e-29 0 1.17228e-28 0 2.86864e-28 0 6.47599e-28 0 1.35641e-27 0 2.64905e-27 0 4.90554e-27 0 8.74545e-27 0 1.48612e-26 0 2.44153e-26 0 3.88415e-26 0 5.9922e-26 0
11.1377 1.70683e-13 1.70683e-13 1.78795e-19 1.04752e-06 2.17335e-05 6.43196e-43 1.04885e-35 1.10608e-38 1.16739e-33 6.56428e-35 1.58184e-31 6.90211e-33 3.00105e-30 1.53349e-31 0 1.56522e-30 0 9.57616e-30 0 4.34116e-29 0 1.5355e-28 0 4.66971e-28 0 1.22207e-27 0 2.86264e-27 0 6.21056e-27 0 1.2547e-26 0 2.37162e-26 0 4.26164e-26 0 7.38605e-26 0 1.22304e-25 0 1.9612e-25 0 3.05008e-25 0 4.6069e-25 0
