# 1.70049e-06 4 37 : grain size, compostion index, size index
# This grain was stochastically heated: Yes
# Heating and cooling timescale: 690.358 21047.6
# Ratio of heating to cooling to determine stochastic cutoff: 100
# Equilibrium emission is recorded even for those grains in the stochastic regime.
# Emission spectrum was computed for: 
# Type: IRSF
# Scale: 1
# Temperature: -1
# Wavelength  CExt  CAbs  CSca  Albedo G EqEmission StEmission
0.05 1.27845e-11 9.07388e-12 3.71063e-12 0.290244 0.653527 0 0
0.0525665 1.31312e-11 9.33576e-12 3.79548e-12 0.289042 0.625939 0 0
0.0552647 1.3587e-11 9.61154e-12 3.97541e-12 0.29259 0.594975 0 0
0.0581015 1.44435e-11 1.00788e-11 4.36465e-12 0.302189 0.562574 0 0
0.0610839 1.57601e-11 1.08503e-11 4.90977e-12 0.311531 0.532903 0 0
0.0642193 1.72236e-11 1.17785e-11 5.44502e-12 0.316138 0.505961 0 0
0.0675157 1.86086e-11 1.26995e-11 5.90915e-12 0.317549 0.479023 0 0
0.0709813 1.97908e-11 1.35006e-11 6.29016e-12 0.317833 0.449793 0 0
0.0746248 2.06808e-11 1.41002e-11 6.58062e-12 0.318199 0.41724 0 0
0.0784553 2.11768e-11 1.44427e-11 6.73405e-12 0.317992 0.382549 0 0
0.0824824 2.11389e-11 1.44977e-11 6.64119e-12 0.314169 0.349461 0 0
0.0867162 2.06866e-11 1.44402e-11 6.24642e-12 0.301955 0.314122 0 0
0.0911674 2.11335e-11 1.47264e-11 6.40709e-12 0.303173 0.279998 0 0
0.095847 2.14853e-11 1.48625e-11 6.6228e-12 0.308248 0.253904 0 0
0.100767 2.13102e-11 1.4729e-11 6.58119e-12 0.308828 0.23337 0 0
0.105939 2.03055e-11 1.40942e-11 6.21129e-12 0.305893 0.219969 0 0
0.111377 1.86558e-11 1.31312e-11 5.52459e-12 0.296132 0.205713 0 0
0.117094 1.69017e-11 1.20484e-11 4.85339e-12 0.287153 0.191149 0 0
0.123105 1.50982e-11 1.08836e-11 4.21463e-12 0.279148 0.177074 0 0
0.129424 1.33133e-11 9.68217e-12 3.63113e-12 0.272744 0.163967 0 0
0.136067 1.16034e-11 8.47811e-12 3.12529e-12 0.269343 0.152342 0 0
0.143051 9.92575e-12 7.1967e-12 2.72905e-12 0.274946 0.143684 0 0
0.150394 7.52342e-12 5.24518e-12 2.27824e-12 0.30282 0.136702 0 0
0.158114 5.13256e-12 3.37359e-12 1.75898e-12 0.342709 0.123952 0 0
0.16623 3.41612e-12 2.10186e-12 1.31427e-12 0.384724 0.108804 0 0
0.174762 2.3366e-12 1.35805e-12 9.78546e-13 0.418791 0.0950363 0 0
0.183733 1.59858e-12 8.68285e-13 7.30292e-13 0.456839 0.083276 0 0
0.193164 1.11897e-12 5.69255e-13 5.49716e-13 0.491269 0.0733876 0 0
0.203079 8.00554e-13 3.83107e-13 4.17447e-13 0.521448 0.0650007 0 0
0.213503 5.93867e-13 2.7513e-13 3.18737e-13 0.536715 0.057765 0 0
0.224463 4.71618e-13 2.26072e-13 2.45546e-13 0.520647 0.0515239 0 0
0.235984 4.01585e-13 2.10111e-13 1.91474e-13 0.476796 0.0461338 0 0
0.248097 3.55861e-13 2.04974e-13 1.50887e-13 0.424006 0.0414285 0 0
0.260832 3.16333e-13 1.96659e-13 1.19674e-13 0.378316 0.0372651 0 0
0.274221 2.82963e-13 1.87618e-13 9.53452e-14 0.336953 0.0335564 0 0
0.288297 2.54958e-13 1.78632e-13 7.63264e-14 0.299368 0.0302506 0 0
0.303095 2.31344e-13 1.70052e-13 6.12919e-14 0.264939 0.0272885 0 0
0.318653 2.11089e-13 1.61766e-13 4.93233e-14 0.233661 0.0246264 0 0
0.335009 1.93628e-13 1.53831e-13 3.97969e-14 0.205533 0.022236 0 0
0.352205 1.78473e-13 1.46302e-13 3.21712e-14 0.180258 0.0200848 0 0
0.370284 1.65147e-13 1.39109e-13 2.60383e-14 0.157667 0.018145 0 0
0.389291 1.53387e-13 1.32279e-13 2.11077e-14 0.137611 0.0163968 0 0
0.409273 1.42873e-13 1.25729e-13 1.71437e-14 0.119993 0.0148227 0 0
0.430281 1.334e-13 1.1947e-13 1.39299e-14 0.104422 0.0134 0 0
0.452368 1.24861e-13 1.13526e-13 1.13342e-14 0.0907746 0.0121165 0 0
0.475588 1.17102e-13 1.07876e-13 9.22678e-15 0.0787924 0.0109563 0 0
0.5 1.10065e-13 1.02545e-13 7.5202e-15 0.0683251 0.00990972 0 0
0.525665 1.03634e-13 9.75038e-14 6.13058e-15 0.0591558 0.00896282 0 0
0.552647 9.77395e-14 9.27427e-14 4.99683e-15 0.0511239 0.00810553 0 0
0.581015 9.22686e-14 8.81877e-14 4.08089e-15 0.0442283 0.00733321 0 0
0.610839 8.72223e-14 8.38888e-14 3.3335e-15 0.0382185 0.00663461 0 2.24009e-320
0.642193 8.2547e-14 7.98248e-14 2.72217e-15 0.0329772 0.00600179 0 1.66516e-307
0.675157 7.82092e-14 7.59857e-14 2.22352e-15 0.0284304 0.00542934 0 3.58841e-295
0.709813 7.41822e-14 7.23641e-14 1.81809e-15 0.0245085 0.00491265 0 2.45402e-283
0.746248 7.04272e-14 6.89407e-14 1.48652e-15 0.0211071 0.00444491 0 5.66303e-272
0.784553 6.69127e-14 6.56976e-14 1.21509e-15 0.0181593 0.00402127 0 4.59972e-261
0.824824 6.35874e-14 6.25938e-14 9.93635e-16 0.0156263 0.00363824 0 1.36781e-250
0.867162 6.04496e-14 5.96363e-14 8.1326e-16 0.0134535 0.00329238 0 1.55507e-240
0.911674 5.74888e-14 5.68233e-14 6.65494e-16 0.0115761 0.00297915 0 7.05158e-231
0.95847 5.46776e-14 5.41331e-14 5.44529e-16 0.00995891 0.00269555 0 1.32301e-221
1.00767 5.20312e-14 5.15856e-14 4.45674e-16 0.00856551 0.00243911 0 1.06078e-212
1.05939 4.95486e-14 4.91838e-14 3.64807e-16 0.00736262 0.00220711 0 3.74894e-204
1.11377 4.72019e-14 4.69034e-14 2.98536e-16 0.00632465 0.00199699 0 6.02456e-196
1.17094 4.49723e-14 4.47281e-14 2.44209e-16 0.0054302 0.00180668 4.39166e-296 4.5419e-188
1.23105 4.28621e-14 4.26623e-14 1.99871e-16 0.00466312 0.00163474 1.0035e-281 1.65538e-180
1.29424 4.09642e-14 4.08007e-14 1.63524e-16 0.00399187 0.001479 4.50999e-268 3.00644e-173
1.36067 3.91894e-14 3.90556e-14 1.33841e-16 0.00341524 0.00133818 4.30905e-255 2.78929e-166
1.43051 3.75061e-14 3.73966e-14 1.09465e-16 0.00291859 0.00121055 9.43526e-243 1.35588e-159
1.50394 3.5909e-14 3.58194e-14 8.95932e-17 0.00249501 0.0010953 5.08795e-231 3.54124e-153
1.58114 3.43841e-14 3.43108e-14 7.33082e-17 0.00213204 0.000990939 7.23305e-220 5.08937e-147
1.6623 3.29262e-14 3.28663e-14 5.99335e-17 0.00182024 0.000896332 2.89317e-209 4.11898e-141
1.74762 3.15558e-14 3.15068e-14 4.90111e-17 0.00155316 0.000810811 3.46672e-199 1.9209e-135
1.83733 3.03061e-14 3.0266e-14 4.00706e-17 0.0013222 0.000733421 1.32147e-189 5.27995e-130
1.93164 2.91398e-14 2.91071e-14 3.27471e-17 0.00112379 0.000663336 1.69339e-180 8.7243e-125
2.03079 2.80401e-14 2.80133e-14 2.67583e-17 0.000954286 0.000599915 7.6908e-172 8.83538e-120
2.13503 2.69995e-14 2.69776e-14 2.18655e-17 0.00080985 0.000542586 1.30226e-163 5.58923e-115
2.24463 2.6031e-14 2.60132e-14 1.78562e-17 0.000685957 0.000490658 8.63109e-156 2.2505e-110
2.35984 2.51068e-14 2.50923e-14 1.45747e-17 0.000580507 0.000443642 2.34229e-148 5.86512e-106
2.48097 2.4234e-14 2.42221e-14 1.18849e-17 0.000490423 0.000401044 2.71985e-141 1.00661e-101
2.60832 2.34271e-14 2.34174e-14 9.69446e-18 0.000413814 0.000362575 1.40961e-134 1.15721e-97
2.74221 2.26617e-14 2.26538e-14 7.90385e-18 0.000348776 0.000327754 3.38908e-128 9.04422e-94
2.88297 2.19516e-14 2.19452e-14 6.43296e-18 0.000293051 0.00029616 3.92736e-122 4.88199e-90
3.03095 2.12809e-14 2.12757e-14 5.23502e-18 0.000245996 0.000267612 2.27202e-116 1.84562e-86
3.18653 2.06955e-14 2.06913e-14 4.25805e-18 0.000205747 0.000241792 6.80413e-111 4.96682e-83
3.35009 2.01423e-14 2.01388e-14 3.45884e-18 0.000171721 0.000218398 1.08697e-105 9.62116e-80
3.52205 1.95423e-14 1.95395e-14 2.80467e-18 0.000143518 0.000197194 9.51374e-101 1.35351e-76
3.70284 1.89516e-14 1.89494e-14 2.27288e-18 0.00011993 0.000178039 4.71024e-96 1.40388e-73
3.89291 1.8381e-14 1.83792e-14 1.83824e-18 0.000100008 0.000160679 1.35712e-91 1.08708e-70
4.09273 1.78405e-14 1.7839e-14 1.48269e-18 8.31082e-05 0.000144933 2.33784e-87 6.36051e-68
4.30281 1.72749e-14 1.72737e-14 1.19253e-18 6.90328e-05 0.000130662 2.46157e-83 2.83435e-65
4.52368 1.67542e-14 1.67532e-14 9.56595e-19 5.70959e-05 0.000117746 1.62905e-79 9.76081e-63
4.75588 1.63025e-14 1.63017e-14 7.64164e-19 4.6874e-05 0.000106026 6.94351e-76 2.6286e-60
5 1.59633e-14 1.59627e-14 6.06656e-19 3.80032e-05 9.5368e-05 1.95372e-72 5.60717e-58
5.25665 1.57788e-14 1.57783e-14 4.78529e-19 3.03274e-05 8.56949e-05 3.71604e-69 9.59362e-56
5.52648 1.57272e-14 1.57268e-14 3.74949e-19 2.38408e-05 7.69289e-05 4.86671e-66 1.32705e-53
5.81015 1.5887e-14 1.58867e-14 2.90282e-19 1.82716e-05 6.8936e-05 4.49432e-63 1.50476e-51
6.10839 1.61906e-14 1.61904e-14 2.21863e-19 1.37032e-05 6.1671e-05 2.96495e-60 1.40388e-49
6.42193 1.64305e-14 1.64303e-14 1.66497e-19 1.01335e-05 5.50604e-05 1.40285e-57 1.07238e-47
6.75157 1.64728e-14 1.64727e-14 1.20323e-19 7.3043e-06 4.89555e-05 4.79845e-55 6.70514e-46
7.09813 1.67365e-14 1.67364e-14 8.05788e-20 4.81455e-06 4.3209e-05 1.23602e-52 3.54671e-44
7.46248 2.0622e-14 2.06219e-14 4.54035e-20 2.2017e-06 3.76086e-05 2.91078e-50 1.91275e-42
7.84553 4.00785e-14 4.00785e-14 2.26921e-20 5.66191e-07 3.22752e-05 8.26501e-48 1.37744e-40
8.24824 8.33722e-14 8.33721e-14 2.77295e-20 3.32599e-07 2.77371e-05 1.9453e-45 9.04729e-39
8.67162 1.27251e-13 1.27251e-13 4.98781e-20 3.91968e-07 2.41481e-05 2.63456e-43 3.7393e-37
9.11674 1.87605e-13 1.87605e-13 9.72635e-20 5.18449e-07 2.05801e-05 2.73486e-41 1.28803e-35
9.5847 2.11076e-13 2.11076e-13 1.38351e-19 6.55456e-07 1.84317e-05 1.73891e-39 2.9388e-34
10.0767 1.8912e-13 1.8912e-13 1.33036e-19 7.03447e-07 1.75056e-05 7.14244e-38 4.66051e-33
10.5939 1.58647e-13 1.58647e-13 1.20622e-19 7.60317e-07 1.72037e-05 2.25121e-36 6.07297e-32
11.1377 1.24718e-13 1.24718e-13 9.54678e-20 7.65466e-07 1.76321e-05 5.50285e-35 6.54223e-31
11.7094 9.95854e-14 9.95853e-14 7.50224e-20 7.53347e-07 1.77356e-05 1.14111e-33 6.34658e-30
12.3105 7.77629e-14 7.77629e-14 5.7511e-20 7.39568e-07 1.76433e-05 1.94996e-32 5.3642e-29
12.9424 6.06912e-14 6.06912e-14 4.28563e-20 7.06137e-07 1.6886e-05 2.82977e-31 4.05577e-28
13.6067 4.85013e-14 4.85012e-14 3.069e-20 6.32766e-07 1.53487e-05 3.60146e-30 2.82292e-27
14.3051 4.45463e-14 4.45463e-14 2.10568e-20 4.72694e-07 1.31489e-05 4.54598e-29 2.03881e-26
15.0394 4.95754e-14 4.95754e-14 1.56664e-20 3.1601e-07 1.11341e-05 6.04379e-28 1.61763e-25
15.8114 5.72238e-14 5.72238e-14 1.29835e-20 2.2689e-07 9.55031e-06 7.29351e-27 1.21162e-24
16.623 6.5764e-14 6.5764e-14 1.18713e-20 1.80514e-07 8.25518e-06 7.71967e-26 8.25564e-24
17.4762 7.25209e-14 7.25208e-14 1.15993e-20 1.59945e-07 7.21868e-06 6.94914e-25 4.94955e-23
18.3733 7.48579e-14 7.48579e-14 1.14445e-20 1.52882e-07 6.43011e-06 5.22089e-24 2.55616e-22
19.3164 7.13778e-14 7.13778e-14 1.082e-20 1.51587e-07 5.90235e-06 3.24867e-23 1.12595e-21
20.3079 6.37835e-14 6.37835e-14 9.53523e-21 1.49494e-07 5.60078e-06 1.7077e-22 4.30577e-21
21.3503 5.69717e-14 5.69717e-14 8.08906e-21 1.41984e-07 5.30665e-06 8.12903e-22 1.52937e-20
22.4463 5.09538e-14 5.09538e-14 6.8131e-21 1.33711e-07 5.0257e-06 3.52737e-21 5.06963e-20
23.5984 4.56795e-14 4.56795e-14 5.6677e-21 1.24075e-07 4.75099e-06 1.4031e-20 1.5745e-19
24.8097 4.11101e-14 4.11101e-14 4.71984e-21 1.1481e-07 4.48054e-06 5.14654e-20 4.60129e-19
26.0832 3.69256e-14 3.69256e-14 3.8989e-21 1.05588e-07 4.22791e-06 1.73776e-19 1.26125e-18
27.4221 3.31169e-14 3.31169e-14 3.22054e-21 9.72476e-08 3.9933e-06 5.42533e-19 3.25253e-18
28.8297 2.98175e-14 2.98175e-14 2.65966e-21 8.9198e-08 3.76005e-06 1.58052e-18 7.95333e-18
30.3095 2.68349e-14 2.68349e-14 2.19529e-21 8.18074e-08 3.5395e-06 4.29321e-18 1.84047e-17
31.8653 2.42057e-14 2.42057e-14 1.80472e-21 7.45576e-08 3.32119e-06 1.09402e-17 4.05064e-17
33.5009 2.17958e-14 2.17958e-14 1.48607e-21 6.81814e-08 3.11901e-06 2.61318e-17 8.46297e-17
35.2206 1.97993e-14 1.97993e-14 1.22097e-21 6.16671e-08 2.9082e-06 5.93127e-17 1.69992e-16
37.0284 1.79544e-14 1.79544e-14 1.00348e-21 5.58901e-08 2.71293e-06 1.26953e-16 3.25485e-16
38.9291 1.62449e-14 1.62449e-14 8.25607e-22 5.08224e-08 2.53328e-06 2.56832e-16 5.94915e-16
40.9273 1.46628e-14 1.46628e-14 6.80107e-22 4.63832e-08 2.36817e-06 4.92307e-16 1.03975e-15
43.0282 1.32267e-14 1.32267e-14 5.58874e-22 4.22534e-08 2.20948e-06 8.98017e-16 1.74388e-15
45.2368 1.19032e-14 1.19032e-14 4.5909e-22 3.85685e-08 2.06123e-06 1.55981e-15 2.80671e-15
47.5588 1.07306e-14 1.07306e-14 3.76685e-22 3.51038e-08 1.91677e-06 2.5963e-15 4.35974e-15
50 9.64127e-15 9.64127e-15 3.09274e-22 3.20782e-08 1.78359e-06 4.12933e-15 6.51319e-15
52.5665 8.67255e-15 8.67255e-15 2.53592e-22 2.92408e-08 1.6548e-06 6.31673e-15 9.41477e-15
55.2648 7.79559e-15 7.79559e-15 2.07799e-22 2.66559e-08 1.53271e-06 9.2945e-15 1.31621e-14
58.1015 7.00399e-15 7.00399e-15 1.70345e-22 2.43212e-08 1.41766e-06 1.31826e-14 1.78261e-14
61.0839 6.29319e-15 6.29319e-15 1.39536e-22 2.21725e-08 1.3085e-06 1.8064e-14 2.34325e-14
64.2193 5.65076e-15 5.65076e-15 1.14247e-22 2.0218e-08 1.20584e-06 2.39378e-14 2.99127e-14
67.5157 5.0764e-15 5.0764e-15 9.35256e-23 1.84236e-08 1.10901e-06 3.07614e-14 3.71712e-14
70.9813 4.5607e-15 4.5607e-15 7.65746e-23 1.67901e-08 1.01844e-06 3.8376e-14 4.49989e-14
74.6248 4.10015e-15 4.10015e-15 6.26605e-23 1.52825e-08 9.33356e-07 4.65735e-14 5.31624e-14
78.4553 3.685e-15 3.685e-15 5.12644e-23 1.39116e-08 8.5466e-07 5.50075e-14 6.13009e-14
82.4824 3.3131e-15 3.3131e-15 4.1957e-23 1.2664e-08 7.81782e-07 6.3353e-14 6.9109e-14
86.7162 2.98096e-15 2.98096e-15 3.4334e-23 1.15177e-08 7.14043e-07 7.12667e-14 7.62808e-14
91.1674 2.68255e-15 2.68255e-15 2.80887e-23 1.04709e-08 6.5122e-07 7.83506e-14 8.2466e-14
95.847 2.41417e-15 2.41417e-15 2.29752e-23 9.51683e-09 5.93378e-07 8.42723e-14 8.7393e-14
100.767 2.1743e-15 2.1743e-15 1.88043e-23 8.64846e-09 5.40372e-07 8.88362e-14 9.09317e-14
105.939 1.962e-15 1.962e-15 1.53847e-23 7.84131e-09 4.91991e-07 9.19821e-14 9.30813e-14
111.377 1.76716e-15 1.76716e-15 1.25845e-23 7.12136e-09 4.47453e-07 9.32873e-14 9.3465e-14
117.094 1.59145e-15 1.59145e-15 1.0297e-23 6.4702e-09 4.0599e-07 9.29184e-14 9.22924e-14
123.105 1.435e-15 1.435e-15 8.42706e-24 5.87249e-09 3.69521e-07 9.11029e-14 8.98151e-14
129.424 1.29616e-15 1.29616e-15 6.89582e-24 5.32021e-09 3.35967e-07 8.80425e-14 8.62431e-14
136.067 1.1676e-15 1.1676e-15 5.64166e-24 4.83185e-09 3.04782e-07 8.35659e-14 8.14125e-14
143.051 1.05601e-15 1.05601e-15 4.61706e-24 4.37218e-09 2.76206e-07 7.84858e-14 7.61122e-14
150.394 9.51228e-16 9.51228e-16 3.7787e-24 3.97244e-09 2.50345e-07 7.24127e-14 6.99535e-14
158.114 8.62725e-16 8.62725e-16 3.09175e-24 3.5837e-09 2.26932e-07 6.63961e-14 6.39387e-14
166.23 7.79088e-16 7.79088e-16 2.52926e-24 3.24644e-09 2.05999e-07 5.98733e-14 5.75097e-14
174.763 7.00111e-16 7.00111e-16 2.07058e-24 2.9575e-09 1.8748e-07 5.31028e-14 5.09029e-14
183.733 6.34429e-16 6.34429e-16 1.69471e-24 2.67123e-09 1.68665e-07 4.69722e-14 4.49558e-14
193.164 5.72616e-16 5.72616e-16 1.38674e-24 2.42176e-09 1.53443e-07 4.09544e-14 3.91508e-14
203.079 5.15993e-16 5.15993e-16 1.13497e-24 2.19958e-09 1.40052e-07 3.53008e-14 3.3719e-14
213.503 4.66915e-16 4.66915e-16 9.29272e-25 1.99024e-09 1.26649e-07 3.02728e-14 2.89017e-14
224.463 4.2044e-16 4.2044e-16 7.6068e-25 1.80925e-09 1.14183e-07 2.5609e-14 2.44431e-14
235.984 3.79903e-16 3.79903e-16 6.22528e-25 1.63865e-09 1.04455e-07 2.15604e-14 2.05784e-14
248.097 3.41836e-16 3.41836e-16 5.09902e-25 1.49166e-09 9.55927e-08 1.79362e-14 1.71221e-14
260.832 3.04203e-16 3.04203e-16 4.17456e-25 1.37229e-09 8.53825e-08 1.465e-14 1.39896e-14
274.221 2.70284e-16 2.70284e-16 3.41572e-25 1.26375e-09 7.50324e-08 1.18653e-14 1.13355e-14
288.297 2.41355e-16 2.41355e-16 2.79358e-25 1.15746e-09 7.23422e-08 9.5962e-15 9.17276e-15
303.095 2.15119e-16 2.15119e-16 2.28614e-25 1.06273e-09 6.35587e-08 7.69983e-15 7.36473e-15
318.653 1.93677e-16 1.93677e-16 1.87038e-25 9.65718e-10 5.91757e-08 6.20546e-15 5.93953e-15
335.009 1.73247e-16 1.73247e-16 1.52979e-25 8.83007e-10 4.78877e-08 4.94242e-15 4.73414e-15
352.206 1.54538e-16 1.54538e-16 1.25145e-25 8.09802e-10 4.85236e-08 3.90585e-15 3.74416e-15
370.284 1.39674e-16 1.39674e-16 1.02411e-25 7.33209e-10 4.33342e-08 3.11291e-15 2.98643e-15
389.291 1.25534e-16 1.25534e-16 8.37822e-26 6.67406e-10 4.42062e-08 2.45624e-15 2.35836e-15
409.273 1.13242e-16 1.13242e-16 6.85252e-26 6.05122e-10 3.68154e-08 1.93725e-15 1.86156e-15
430.282 1.02594e-16 1.02594e-16 5.6075e-26 5.46574e-10 2.93958e-08 1.52858e-15 1.47005e-15
452.368 9.26906e-17 9.26906e-17 4.58845e-26 4.95029e-10 3.03022e-08 1.19844e-15 1.15348e-15
475.588 8.44064e-17 8.44064e-17 3.75408e-26 4.44763e-10 3.46393e-08 9.43828e-16 9.09136e-16
500 7.65288e-17 7.65288e-17 3.07095e-26 4.0128e-10 1.57178e-08 7.37725e-16 7.11158e-16
525.665 6.99211e-17 6.99211e-17 2.51398e-26 3.59545e-10 2.36382e-08 5.79337e-16 5.58895e-16
552.648 6.37426e-17 6.37426e-17 2.05743e-26 3.22772e-10 8.8306e-09 4.52673e-16 4.3702e-16
581.015 5.83858e-17 5.83858e-17 1.68337e-26 2.88319e-10 1.96632e-08 3.54449e-16 3.42434e-16
610.838 5.34297e-17 5.34297e-17 1.37769e-26 2.57851e-10 -4.82982e-10 2.76596e-16 2.67403e-16
642.193 4.90384e-17 4.90384e-17 1.12791e-26 2.30005e-10 -8.46724e-10 2.15978e-16 2.08937e-16
675.157 4.50871e-17 4.50871e-17 9.23166e-27 2.04752e-10 2.02082e-08 1.68573e-16 1.63181e-16
709.813 4.15309e-17 4.15309e-17 7.55398e-27 1.81888e-10 9.96103e-09 1.31548e-16 1.27417e-16
746.247 3.82885e-17 3.82885e-17 6.18445e-27 1.61523e-10 8.75999e-09 1.02547e-16 9.93845e-17
784.553 3.53405e-17 3.53405e-17 5.06279e-27 1.43257e-10 -3.80554e-09 7.98881e-17 7.74677e-17
824.824 3.26445e-17 3.26445e-17 4.14378e-27 1.26937e-10 1.29455e-08 6.21782e-17 6.03264e-17
867.162 3.01239e-17 3.01239e-17 3.39135e-27 1.1258e-10 1.2089e-08 4.82687e-17 4.68549e-17
911.674 2.77668e-17 2.77668e-17 2.77723e-27 1.0002e-10 1.11456e-08 3.73727e-17 3.62957e-17
958.471 2.56267e-17 2.56267e-17 2.27393e-27 8.87331e-11 2.2463e-08 2.8932e-17 2.81112e-17
1007.67 2.36171e-17 2.36171e-17 1.86132e-27 7.88125e-11 5.72427e-08 2.23355e-17 2.17113e-17
1059.39 2.18474e-17 2.18474e-17 1.5238e-27 6.97472e-11 1.41748e-09 1.72864e-17 1.68105e-17
1113.77 2.01652e-17 2.01652e-17 1.24775e-27 6.18766e-11 -4.12436e-09 1.33332e-17 1.29712e-17
1170.94 1.85645e-17 1.85645e-17 1.02142e-27 5.50199e-11 -3.00913e-08 1.0246e-17 9.97162e-18
1231.05 1.7086e-17 1.7086e-17 8.36064e-28 4.89326e-11 -3.32064e-08 7.86319e-18 7.65539e-18
1294.24 1.58036e-17 1.58036e-17 6.84684e-28 4.33246e-11 -1.83324e-08 6.05859e-18 5.9005e-18
1360.67 1.45973e-17 1.45973e-17 5.60621e-28 3.84057e-11 5.22916e-08 4.65738e-18 4.53733e-18
1430.51 1.34498e-17 1.34498e-17 4.58926e-28 3.41213e-11 -7.3642e-09 3.56824e-18 3.47734e-18
1503.94 1.23677e-17 1.23677e-17 3.75647e-28 3.03733e-11 -1.74e-08 2.72606e-18 2.6574e-18
1581.14 1.14681e-17 1.14681e-17 3.07636e-28 2.68254e-11 -9.20546e-08 2.0985e-18 2.04621e-18
1662.3 1.06135e-17 1.06135e-17 2.51868e-28 2.37309e-11 -4.68426e-08 1.61111e-18 1.57138e-18
1747.63 9.80042e-18 9.80042e-18 2.06154e-28 2.10352e-11 -3.01076e-08 1.23326e-18 1.20315e-18
1837.33 9.02769e-18 9.02769e-18 1.68781e-28 1.8696e-11 -1.97474e-08 9.41114e-19 9.18359e-19
1931.64 8.29334e-18 8.29334e-18 1.38214e-28 1.66657e-11 -3.95132e-08 7.15784e-19 6.98636e-19
2030.79 7.62501e-18 7.62501e-18 1.13149e-28 1.48391e-11 -7.53895e-08 5.44532e-19 5.31601e-19
2135.03 7.05692e-18 7.05692e-18 9.25983e-29 1.31216e-11 1.43141e-07 4.16758e-19 4.06944e-19
2244.63 6.51735e-18 6.51735e-18 7.58251e-29 1.16343e-11 8.31725e-08 3.18125e-19 3.10694e-19
2359.84 6.00407e-18 6.00407e-18 6.2082e-29 1.034e-11 5.75731e-08 2.42111e-19 2.365e-19
2480.97 5.51832e-18 5.51832e-18 5.08161e-29 9.20863e-12 -8.02969e-08 1.83743e-19 1.79515e-19
2608.32 5.10484e-18 5.10484e-18 4.15949e-29 8.14813e-12 -2.04809e-07 1.4029e-19 1.37085e-19
2742.21 4.71405e-18 4.71405e-18 3.4065e-29 7.22626e-12 -6.8537e-08 1.0688e-19 1.04455e-19
2882.96 4.3423e-18 4.3423e-18 2.78909e-29 6.42306e-12 -1.70311e-07 8.11907e-20 7.93605e-20
3030.95 3.9982e-18 3.9982e-18 2.28293e-29 5.7099e-12 -7.78122e-09 6.16265e-20 6.02459e-20
3186.53 3.70708e-18 3.70708e-18 1.86898e-29 5.04164e-12 6.7087e-08 4.70867e-20 4.6038e-20
3350.09 3.43034e-18 3.43034e-18 1.53037e-29 4.46127e-12 2.59075e-07 3.58937e-20 3.50988e-20
3522.05 3.16705e-18 3.16705e-18 1.25279e-29 3.95569e-12 -1.61747e-07 2.72904e-20 2.66893e-20
3702.84 2.91653e-18 2.91653e-18 1.02528e-29 3.51542e-12 4.78197e-07 2.069e-20 2.02366e-20
3892.91 2.67861e-18 2.67861e-18 8.39598e-30 3.13445e-12 -1.23228e-07 1.56394e-20 1.52983e-20
4092.73 2.46722e-18 2.46722e-18 6.87428e-30 2.78624e-12 -1.26056e-07 1.18526e-20 1.15953e-20
4302.81 2.28319e-18 2.28319e-18 5.62671e-30 2.46441e-12 -1.3294e-07 9.02254e-21 8.8276e-21
