# 7.0795e-06 1 92 : grain size, compostion index, size index
# Heating and cooling timescale: 0.679844 407740
# Ratio of heating to cooling to determine stochastic cutoff: 100
# Equilibrium emission is recorded even for those grains in the stochastic regime.
# Emission spectrum was computed for: 
# Type: IRSF
# Scales: 0.25 0.5 1 1.5 2 2.5 3 3.5 4 4.5 5 5.5 6 6.5 7 7.5 8 8.5 9 9.5 10
# StochasticallyHeated: 0 0 0 0 0 0 0 0 0 0 0 0 0 0 0 0 0 0 0 0 0
# Temperature: -1
# Wavelength  CExt  CAbs  CSca  Albedo G EqEm1 StEm1 EqEm2 StEm2 EqEm3 StEm3 EqEm4 StEm4 EqEm5 StEm5 EqEm6 StEm6 EqEm7 StEm7 EqEm8 StEm8 EqEm9 StEm9 EqEm10 StEm10 EqEm11 StEm11 EqEm12 StEm12 EqEm13 StEm13 EqEm14 StEm14 EqEm15 StEm15 EqEm16 StEm16 EqEm17 StEm17 EqEm18 StEm18 EqEm19 StEm19 EqEm20 StEm20 EqEm21 StEm21
0.05 1.01005e-10 5.32775e-11 4.77276e-11 0.472527 0.199244 0 0 0 0 0 0 0 0 0 0 0 0 0 0 0 0 0 0 0 0 0 0 0 0 0 0 0 0 0 0 0 0 0 0 0 0 0 0 0 0 0 0
0.0525665 1.1164e-10 5.88873e-11 5.27531e-11 0.472527 0.220223 0 0 0 0 0 0 0 0 0 0 0 0 0 0 0 0 0 0 0 0 0 0 0 0 0 0 0 0 0 0 0 0 0 0 0 0 0 0 0 0 0 0
0.0552647 1.23396e-10 6.50879e-11 5.83077e-11 0.472527 0.243412 0 0 0 0 0 0 0 0 0 0 0 0 0 0 0 0 0 0 0 0 0 0 0 0 0 0 0 0 0 0 0 0 0 0 0 0 0 0 0 0 0 0
0.0581015 1.36389e-10 7.19413e-11 6.44472e-11 0.472527 0.269042 0 0 0 0 0 0 0 0 0 0 0 0 0 0 0 0 0 0 0 0 0 0 0 0 0 0 0 0 0 0 0 0 0 0 0 0 0 0 0 0 0 0
0.0610839 1.5075e-10 7.95164e-11 7.12332e-11 0.472527 0.29737 0 0 0 0 0 0 0 0 0 0 0 0 0 0 0 0 0 0 0 0 0 0 0 0 0 0 0 0 0 0 0 0 0 0 0 0 0 0 0 0 0 0
0.0642193 1.66623e-10 8.78891e-11 7.87337e-11 0.472527 0.328682 0 0 0 0 0 0 0 0 0 0 0 0 0 0 0 0 0 0 0 0 0 0 0 0 0 0 0 0 0 0 0 0 0 0 0 0 0 0 0 0 0 0
0.0675157 1.84167e-10 9.71434e-11 8.7024e-11 0.472527 0.363291 0 0 0 0 0 0 0 0 0 0 0 0 0 0 0 0 0 0 0 0 0 0 0 0 0 0 0 0 0 0 0 0 0 0 0 0 0 0 0 0 0 0
0.0709813 2.03559e-10 1.07372e-10 9.61872e-11 0.472527 0.401543 0 0 0 0 0 0 0 0 0 0 0 0 0 0 0 0 0 0 0 0 0 0 0 0 0 0 0 0 0 0 0 0 0 0 0 0 0 0 0 0 0 0
0.0746248 2.24993e-10 1.18678e-10 1.06315e-10 0.472527 0.443824 0 0 0 0 0 0 0 0 0 0 0 0 0 0 0 0 0 0 0 0 0 0 0 0 0 0 0 0 0 0 0 0 0 0 0 0 0 0 0 0 0 0
0.0784553 2.48684e-10 1.31174e-10 1.1751e-10 0.472527 0.490556 0 0 0 0 0 0 0 0 0 0 0 0 0 0 0 0 0 0 0 0 0 0 0 0 0 0 0 0 0 0 0 0 0 0 0 0 0 0 0 0 0 0
0.0824824 2.74869e-10 1.44986e-10 1.29883e-10 0.472527 0.54221 0 0 0 0 0 0 0 0 0 0 0 0 0 0 0 0 0 0 0 0 0 0 0 0 0 0 0 0 0 0 0 0 0 0 0 0 0 0 0 0 0 0
0.0867162 3.03811e-10 1.60252e-10 1.43559e-10 0.472527 0.599302 0 0 0 0 0 0 0 0 0 0 0 0 0 0 0 0 0 0 0 0 0 0 0 0 0 0 0 0 0 0 0 0 0 0 0 0 0 0 0 0 0 0
0.0911674 3.35801e-10 1.77126e-10 1.58675e-10 0.472527 0.662405 0 0 0 0 0 0 0 0 0 0 0 0 0 0 0 0 0 0 0 0 0 0 0 0 0 0 0 0 0 0 0 0 0 0 0 0 0 0 0 0 0 0
0.095847 3.7116e-10 1.95777e-10 1.75383e-10 0.472527 0.732154 0 0 0 0 0 0 0 0 0 0 0 0 0 0 0 0 0 0 0 0 0 0 0 0 0 0 0 0 0 0 0 0 0 0 0 0 0 0 0 0 0 0
0.100767 4.04878e-10 2.13672e-10 1.91206e-10 0.472256 0.796175 0 0 0 0 0 0 0 0 0 0 0 0 0 0 0 0 0 0 0 0 0 0 0 0 0 0 0 0 0 0 0 0 0 0 0 0 0 0 0 0 0 0
0.105939 4.1082e-10 2.17388e-10 1.93432e-10 0.470843 0.793792 0 0 0 0 0 0 0 0 0 0 0 0 0 0 0 0 0 0 0 0 0 0 0 0 0 0 0 0 0 0 0 0 0 0 0 0 0 0 0 0 0 0
0.111377 4.17058e-10 2.21207e-10 1.95851e-10 0.469601 0.792074 0 0 0 0 0 0 0 0 0 0 0 0 0 0 0 0 0 0 0 0 0 0 0 0 0 0 0 0 0 0 0 0 0 0 0 0 0 0 0 0 0 0
0.117094 4.23685e-10 2.2505e-10 1.98635e-10 0.468827 0.788309 0 0 0 0 0 0 0 0 0 0 0 0 0 0 0 0 0 0 0 0 0 0 0 0 0 0 0 0 0 0 0 0 0 0 0 0 0 0 0 0 0 0
0.123105 4.3086e-10 2.29049e-10 2.0181e-10 0.46839 0.782705 0 0 0 0 0 0 0 0 0 0 0 0 0 0 0 0 0 0 0 0 0 0 0 0 0 0 0 0 0 0 0 0 0 0 0 0 0 0 0 0 0 0
0.129424 4.38597e-10 2.33044e-10 2.05553e-10 0.468661 0.775007 0 0 0 0 0 0 0 0 0 0 0 0 0 0 0 0 0 0 0 0 0 0 0 0 0 0 0 0 0 0 0 0 0 0 0 0 0 0 0 0 0 0
0.136067 4.4807e-10 2.37079e-10 2.1099e-10 0.470887 0.76492 0 0 0 0 0 0 0 0 0 0 0 0 0 0 0 0 0 0 0 0 0 0 0 0 0 0 0 0 0 0 0 0 0 0 0 0 0 0 0 0 0 0
0.143051 4.62043e-10 2.41247e-10 2.20796e-10 0.477869 0.751426 0 0 0 0 0 0 0 0 0 0 0 0 0 0 0 0 0 0 0 0 0 0 0 0 0 0 0 0 0 0 0 0 0 0 0 0 0 0 0 0 0 0
0.150394 4.86796e-10 2.426e-10 2.44196e-10 0.501639 0.732029 0 0 0 0 0 0 0 0 0 0 0 0 0 0 0 0 0 0 0 0 0 0 0 0 0 0 0 0 0 0 0 0 0 0 0 0 0 0 0 0 0 0
0.158114 5.30584e-10 2.33233e-10 2.97351e-10 0.560423 0.694739 0 0 0 0 0 0 0 0 0 0 0 0 0 0 0 0 0 0 0 0 0 0 0 0 0 0 0 0 0 0 0 0 0 0 0 0 0 0 0 0 0 0
0.16623 5.82878e-10 2.01051e-10 3.81827e-10 0.655072 0.645087 0 0 0 0 0 0 0 0 0 0 0 0 0 0 0 0 0 0 0 0 0 0 0 0 0 0 0 0 0 0 0 0 0 0 0 0 0 0 0 0 0 0
0.174762 6.13024e-10 1.60644e-10 4.5238e-10 0.737948 0.602604 0 0 0 0 0 0 0 0 0 0 0 0 0 0 0 0 0 0 0 0 0 0 0 0 0 0 0 0 0 0 0 0 0 0 0 0 0 0 0 0 0 0
0.183733 6.22581e-10 1.29595e-10 4.92986e-10 0.791842 0.594679 0 0 0 0 0 0 0 0 0 0 0 0 0 0 0 0 0 0 0 0 0 0 0 0 0 0 0 0 0 0 0 0 0 0 0 0 0 0 0 0 0 0
0.193164 5.81754e-10 1.04418e-10 4.77336e-10 0.820512 0.623741 0 0 0 0 0 0 0 0 0 0 0 0 0 0 0 0 0 0 0 0 0 0 0 0 0 0 0 0 0 0 0 0 0 0 0 0 0 0 0 0 0 0
0.203079 5.05535e-10 8.85294e-11 4.17005e-10 0.82488 0.620812 0 0 0 0 0 0 0 0 0 0 0 0 0 0 0 0 0 0 0 0 0 0 0 0 0 0 0 0 0 0 0 0 0 0 0 0 0 0 0 0 0 0
0.213503 4.48084e-10 7.80673e-11 3.70017e-10 0.825775 0.585747 0 0 0 0 0 0 0 0 0 0 0 0 0 0 0 0 0 0 0 0 0 0 0 0 0 0 0 0 0 0 0 0 0 0 0 0 0 0 0 0 0 0
0.224463 4.09632e-10 7.19082e-11 3.37724e-10 0.824457 0.549661 0 0 0 0 0 0 0 0 0 0 0 0 0 0 0 0 0 0 0 0 0 0 0 0 0 0 0 0 0 0 0 0 0 0 0 0 0 0 0 0 0 0
0.235984 3.74658e-10 6.88657e-11 3.05792e-10 0.816191 0.53738 0 0 0 0 0 0 0 0 0 0 0 0 0 0 0 0 0 0 0 0 0 0 0 0 0 0 0 0 0 0 0 0 0 0 0 0 0 0 0 0 0 0
0.248097 3.36662e-10 6.61464e-11 2.70515e-10 0.803523 0.544787 0 0 0 0 0 0 0 0 0 0 0 0 0 0 0 0 0 0 0 0 0 0 0 0 0 0 0 0 0 0 0 0 0 0 0 0 0 0 0 0 0 0
0.260832 2.96342e-10 6.26195e-11 2.33723e-10 0.788692 0.561191 0 0 0 0 0 0 0 0 0 0 0 0 0 0 0 0 0 0 0 0 0 0 0 0 0 0 0 0 0 0 0 0 0 0 0 0 0 0 0 0 0 0
0.274221 2.56863e-10 5.79827e-11 1.9888e-10 0.774266 0.574186 0 0 0 0 0 0 0 0 0 0 0 0 0 0 0 0 0 0 0 0 0 0 0 0 0 0 0 0 0 0 0 0 0 0 0 0 0 0 0 0 0 0
0.288297 2.21634e-10 5.28805e-11 1.68753e-10 0.761406 0.571706 0 0 0 0 0 0 0 0 0 0 0 0 0 0 0 0 0 0 0 0 0 0 0 0 0 0 0 0 0 0 0 0 0 0 0 0 0 0 0 0 0 0
0.303095 1.91755e-10 4.79586e-11 1.43797e-10 0.749897 0.548213 0 0 0 0 0 0 0 0 0 0 0 0 0 0 0 0 0 0 0 0 0 0 0 0 0 0 0 0 0 0 0 0 0 0 0 0 0 0 0 0 0 0
0.318653 1.66941e-10 4.3587e-11 1.23354e-10 0.738908 0.506638 0 0 0 0 0 0 0 0 0 0 0 0 0 0 0 0 0 0 0 0 0 0 0 0 0 0 0 0 0 0 0 0 0 0 0 0 0 0 0 0 0 0
0.335009 1.46096e-10 3.98339e-11 1.06262e-10 0.727343 0.455489 0 0 0 0 0 0 0 0 0 0 0 0 0 0 0 0 0 0 0 0 0 0 0 0 0 0 0 0 0 0 0 0 0 0 0 0 0 0 0 0 0 0
0.352205 1.28173e-10 3.66236e-11 9.15498e-11 0.714265 0.403171 0 0 0 0 0 0 0 0 0 0 0 0 0 0 0 0 0 0 0 0 0 0 0 0 0 0 0 0 0 0 0 0 0 0 0 0 0 0 0 0 0 0
0.370284 1.12532e-10 3.38361e-11 7.8696e-11 0.69932 0.354811 0 0 0 0 0 0 0 0 0 0 0 0 0 0 0 0 0 0 0 0 0 0 0 0 0 0 0 0 0 0 0 0 0 0 0 0 0 0 0 0 0 0
0.389291 9.86464e-11 3.13627e-11 6.72836e-11 0.682069 0.312272 0 0 0 0 0 0 0 0 0 0 0 0 0 0 0 0 0 0 0 0 0 0 0 0 0 0 0 0 0 0 0 0 0 0 0 0 0 0 0 0 0 0
0.409273 8.63475e-11 2.91291e-11 5.72184e-11 0.662653 0.27558 0 0 0 0 0 0 0 0 0 0 0 0 0 0 0 0 0 0 0 0 0 0 0 0 0 0 0 0 0 0 0 0 0 0 0 0 0 0 0 0 0 0
0.430281 7.54452e-11 2.70842e-11 4.8361e-11 0.641008 0.244105 0 0 0 0 0 0 0 0 0 0 0 0 0 0 0 0 0 0 0 0 0 0 0 0 0 0 0 0 0 0 0 0 0 0 0 0 0 0 0 0 0 0
0.452368 6.584e-11 2.51941e-11 4.06459e-11 0.617343 0.217143 0 0 0 0 0 0 0 0 0 0 0 0 0 0 0 0 0 0 0 0 0 0 0 0 0 0 0 0 0 0 0 0 0 0 0 0 0 0 0 0 0 0
0.475588 5.74306e-11 2.34401e-11 3.39905e-11 0.591854 0.19381 0 0 0 0 0 0 0 0 0 0 0 0 0 0 0 0 0 0 0 0 0 0 0 0 0 0 0 0 0 0 0 0 0 0 0 0 0 0 0 0 0 0
0.5 5.01197e-11 2.18135e-11 2.83062e-11 0.564772 0.173491 0 0 0 0 0 0 0 0 0 0 0 0 0 0 0 0 0 0 0 0 0 0 0 0 0 0 0 0 0 0 0 0 0 0 0 0 0 0 0 0 0 0
0.525665 4.38005e-11 2.03054e-11 2.34951e-11 0.536412 0.155689 0 0 0 0 0 0 0 0 0 0 0 0 0 0 0 0 0 0 0 0 0 0 0 0 0 0 0 0 0 0 0 0 0 0 0 0 0 0 0 0 0 0
0.552648 3.83556e-11 1.89066e-11 1.94491e-11 0.507072 0.140015 0 0 0 0 0 0 0 0 0 0 0 0 0 0 0 0 0 0 0 0 0 0 0 0 0 0 0 0 0 0 0 0 0 0 0 0 0 0 0 0 0 0
0.581015 3.36654e-11 1.76147e-11 1.60507e-11 0.476771 0.126149 0 0 0 0 0 0 0 0 0 0 0 0 0 0 0 0 0 0 0 0 0 0 0 0 0 0 0 0 0 0 0 0 0 0 0 0 0 0 0 0 0 0
0.610839 2.96422e-11 1.64218e-11 1.32203e-11 0.445998 0.113787 0 0 0 0 0 0 0 0 0 0 0 0 0 0 0 0 0 0 0 0 0 0 0 0 0 0 0 0 0 0 0 0 0 0 0 0 0 0 0 0 0 0
0.642193 2.61931e-11 1.53152e-11 1.08779e-11 0.415297 0.102727 0 0 0 0 0 0 0 0 0 0 0 0 0 0 0 0 0 0 0 0 0 0 0 0 0 0 0 0 0 0 0 0 0 0 0 0 0 0 0 0 0 0
0.675157 2.32362e-11 1.42982e-11 8.93805e-12 0.38466 0.0928377 0 0 0 0 0 0 0 0 0 0 0 0 0 0 0 0 0 0 0 0 0 0 0 0 0 0 0 0 0 0 0 0 0 0 0 0 0 0 0 0 0 0
0.709813 2.06999e-11 1.33646e-11 7.33529e-12 0.354364 0.0839503 0 0 0 0 0 0 0 0 0 0 0 0 0 0 0 0 0 0 0 0 0 0 0 0 0 0 0 0 0 0 0 0 0 0 0 0 0 0 0 0 0 0
0.746248 1.85233e-11 1.25069e-11 6.01641e-12 0.324802 0.0759413 0 0 0 0 0 0 0 0 0 0 0 0 0 0 0 0 0 0 0 0 0 0 0 0 0 0 0 0 0 0 0 0 0 0 0 0 0 0 0 0 0 0
0.784553 1.6645e-11 1.17149e-11 4.93008e-12 0.29619 0.068713 0 0 0 0 0 0 0 0 0 0 0 0 0 0 0 0 0 0 0 0 0 0 0 0 0 0 0 0 0 0 0 0 0 0 0 0 0 0 0 0 0 0
0.824824 1.50231e-11 1.09845e-11 4.03858e-12 0.268824 0.0622017 0 0 0 0 0 0 0 0 0 0 0 0 0 0 0 0 0 0 0 0 0 0 0 0 0 0 0 0 0 0 0 0 0 0 0 0 0 0 0 0 0 0
0.867162 1.36149e-11 1.0308e-11 3.30688e-12 0.242887 0.0563192 0 0 0 0 0 0 0 0 0 0 0 0 0 0 0 0 0 0 0 0 0 0 0 0 0 0 0 0 0 0 0 0 0 0 0 0 0 0 0 0 0 0
0.911674 1.23954e-11 9.68969e-12 2.70568e-12 0.218282 0.0509955 0 0 0 0 0 0 0 0 0 0 0 0 0 0 0 0 0 0 0 0 0 0 0 0 0 0 0 0 0 0 0 0 0 0 0 0 0 0 0 0 0 0
0.95847 1.13336e-11 9.12203e-12 2.21159e-12 0.195136 0.0461764 0 0 0 0 0 0 0 0 0 0 0 0 0 0 0 0 0 0 0 0 0 0 0 0 0 0 0 0 0 0 0 0 0 0 0 0 0 0 0 0 0 0
1.00767 1.03983e-11 8.59546e-12 1.80284e-12 0.173378 0.0418178 0 0 0 0 0 0 0 0 0 0 0 0 0 0 0 0 0 0 0 0 0 0 0 0 0 0 0 0 0 0 0 0 0 0 0 0 0 0 0 0 0 0
1.05939 9.75773e-12 8.28797e-12 1.46976e-12 0.150625 0.0378726 0 0 0 0 0 0 0 0 0 0 0 0 0 0 0 0 0 0 0 0 0 0 0 0 0 0 0 0 0 0 0 0 0 0 0 0 0 0 0 0 0 0
1.11377 9.22894e-12 8.02887e-12 1.20007e-12 0.130034 0.0342969 0 0 0 0 0 0 0 0 0 0 0 0 0 0 0 0 0 0 0 0 0 0 0 0 0 0 0 0 0 0 0 0 0 0 0 0 0 0 0 0 0 0
1.17094 8.79613e-12 7.81416e-12 9.81965e-13 0.111636 0.0310554 0 0 0 0 0 0 0 0 0 0 0 0 0 0 0 0 0 0 0 0 0 0 0 0 0 0 0 0 0 0 0 0 0 0 0 0 0 0 0 0 0 0
1.23105 8.42747e-12 7.62424e-12 8.0323e-13 0.0953109 0.0281198 0 0 0 0 0 0 0 0 0 0 0 0 0 0 0 0 0 0 0 0 0 0 0 0 0 0 0 0 0 0 0 0 0 0 0 0 0 0 0 0 0 0
1.29424 8.08745e-12 7.43004e-12 6.57409e-13 0.0812875 0.0254617 0 0 0 0 0 0 0 0 0 0 0 0 0 0 0 0 0 0 0 0 0 0 0 0 0 0 0 0 0 0 0 0 0 0 0 0 0 0 0 0 0 0
1.36067 7.76669e-12 7.22625e-12 5.40443e-13 0.0695847 0.0230556 0 0 0 0 0 0 0 0 0 0 0 0 0 0 0 0 0 0 0 0 0 0 0 0 0 0 0 0 0 0 0 0 0 0 0 0 0 0 0 0 0 0
1.43051 7.45403e-12 7.01469e-12 4.39334e-13 0.0589391 0.0208714 0 0 0 0 0 0 0 0 0 0 0 0 0 0 0 0 0 0 0 0 0 0 0 0 0 0 0 0 0 0 0 0 0 0 0 0 0 0 0 0 0 0
1.50394 7.16389e-12 6.80504e-12 3.58848e-13 0.0500912 0.0188939 0 0 0 0 0 0 0 0 0 0 0 0 0 0 0 0 0 0 0 0 0 0 0 0 0 0 0 0 0 0 0 0 0 0 0 0 0 0 0 0 0 0
1.58114 6.89981e-12 6.60637e-12 2.93449e-13 0.0425299 0.0171054 0 0 0 0 0 0 0 0 0 0 0 0 0 0 0 0 0 0 0 0 0 0 0 0 0 0 0 0 0 0 0 0 0 0 0 0 0 0 0 0 0 0
1.6623 6.66657e-12 6.42661e-12 2.39957e-13 0.0359941 0.0154824 0 0 0 0 0 0 0 0 0 0 0 0 0 0 0 0 0 0 0 0 0 0 0 0 0 0 0 0 0 0 0 0 0 0 0 0 0 0 0 0 0 0
1.74763 6.46983e-12 6.27363e-12 1.96202e-13 0.0303256 0.0140119 0 0 0 0 0 0 0 0 0 0 0 0 0 0 0 0 0 0 0 0 0 0 0 0 0 0 0 0 0 0 0 0 0 0 0 0 0 0 0 0 0 0
1.83733 6.31633e-12 6.15597e-12 1.60359e-13 0.025388 0.0126788 0 0 0 0 0 0 0 0 0 0 0 0 0 0 0 0 0 0 0 0 0 0 0 0 0 0 0 0 0 0 0 0 0 0 0 0 0 0 0 0 0 0
1.93164 6.20826e-12 6.07724e-12 1.3102e-13 0.0211041 0.0114736 0 0 0 0 0 0 0 0 0 0 0 0 0 0 0 0 0 0 0 0 0 0 0 0 0 0 0 0 0 0 0 0 0 0 0 0 0 0 0 0 0 0
2.03079 6.14376e-12 6.03664e-12 1.07118e-13 0.0174353 0.0103823 0 0 0 0 0 0 0 0 0 0 0 0 0 0 0 0 0 0 0 0 0 0 0 0 0 0 0 0 0 0 0 0 0 0 0 0 0 0 0 0 0 0
2.13503 6.11273e-12 6.02507e-12 8.76616e-14 0.0143408 0.0093926 0 0 0 0 0 0 0 0 0 0 0 0 0 0 0 0 0 0 0 0 0 0 0 0 0 0 0 0 0 0 0 0 0 0 0 0 0 0 0 0 0 0
2.24463 6.0941e-12 6.02229e-12 7.1807e-14 0.011783 0.00849559 0 0 0 0 0 0 0 0 0 0 0 0 0 0 0 0 0 0 0 0 0 0 0 0 0 0 0 0 0 0 0 0 0 0 0 0 0 0 0 0 0 0
2.35984 6.08138e-12 6.02253e-12 5.88555e-14 0.00967798 0.0076848 0 0 0 0 0 0 0 0 0 0 0 0 0 0 0 0 0 0 0 0 0 0 0 0 0 0 0 0 0 0 0 0 0 0 0 0 0 0 0 0 0 0
2.48097 6.08167e-12 6.03341e-12 4.82595e-14 0.00793523 0.0069497 0 0 0 0 0 0 0 0 0 0 0 0 0 0 0 0 0 0 0 0 0 0 0 0 0 0 0 0 0 0 0 0 0 0 0 0 0 0 0 0 0 0
2.60832 6.09546e-12 6.05586e-12 3.95961e-14 0.006496 0.00628399 0 0 0 0 0 0 0 0 0 0 0 0 0 0 0 0 0 0 0 0 0 0 0 0 0 0 0 0 0 0 0 0 0 0 0 0 0 0 0 0 0 0
2.74221 6.1298e-12 6.09729e-12 3.25142e-14 0.00530428 0.00568135 0 0 0 0 0 0 0 0 0 0 0 0 0 0 0 0 0 0 0 0 0 0 0 0 0 0 0 0 0 0 0 0 0 0 0 0 0 0 0 0 0 0
2.88297 6.18562e-12 6.15888e-12 2.67438e-14 0.00432354 0.00513535 0 0 0 0 0 0 0 0 0 0 0 0 0 0 0 0 0 0 0 0 0 0 0 0 0 0 0 0 0 0 0 0 0 0 0 0 0 0 0 0 0 0
3.03095 6.26106e-12 6.23898e-12 2.20835e-14 0.00352712 0.00464141 0 0 0 0 0 0 0 0 0 0 0 0 0 0 0 0 0 0 0 0 0 0 0 0 0 0 0 0 0 0 0 0 0 0 0 0 0 0 0 0 0 0
3.18653 6.27972e-12 6.26144e-12 1.82793e-14 0.00291084 0.00419406 0 0 0 0 0 0 0 0 0 0 0 0 0 0 0 0 0 0 0 0 0 0 0 0 0 0 0 0 0 0 0 0 0 0 0 0 0 0 0 0 0 0
3.35009 6.42719e-12 6.41225e-12 1.49421e-14 0.00232482 0.00378871 0 0 0 0 0 0 0 0 0 0 0 0 0 0 0 0 0 0 0 0 0 0 0 0 0 0 0 0 0 0 0 0 0 0 0 0 0 0 0 0 0 0
3.52205 6.39803e-12 6.38503e-12 1.30024e-14 0.00203225 0.00342167 0 0 0 0 0 0 0 0 0 0 0 0 0 0 0 0 0 0 0 0 0 0 0 0 0 0 0 0 0 0 0 0 0 0 0 0 0 0 0 0 0 0
3.70284 5.96515e-12 5.95457e-12 1.05756e-14 0.0017729 0.00308962 0 0 0 0 0 0 0 0 0 0 0 0 0 0 0 0 0 0 0 0 0 0 0 0 0 0 0 0 0 0 0 0 0 0 0 0 0 0 0 0 0 0
3.89291 5.83703e-12 5.82836e-12 8.66474e-15 0.00148444 0.00278862 0 0 0 0 0 0 0 0 0 0 0 0 0 0 0 0 0 0 0 0 0 0 0 0 0 0 0 0 0 0 0 0 0 0 0 0 0 0 0 0 0 0
4.09273 5.73589e-12 5.72879e-12 7.10405e-15 0.00123853 0.00251558 0 0 0 0 0 0 0 0 0 0 0 0 0 0 0 0 0 0 0 0 0 0 0 0 0 0 0 0 0 0 0 0 0 0 0 0 0 0 0 0 0 0
4.30281 5.6619e-12 5.65608e-12 5.82694e-15 0.00102915 0.00226811 0 0 0 0 0 0 0 0 0 0 0 0 0 0 0 0 0 0 0 0 0 0 0 0 0 0 0 0 0 0 0 0 0 0 0 0 0 0 0 0 0 0
4.52368 5.61695e-12 5.61216e-12 4.78457e-15 0.00085181 0.00204413 0 0 0 0 0 0 0 0 0 0 0 0 0 0 0 0 0 0 0 0 0 0 0 0 0 0 0 0 0 0 0 0 0 0 0 0 0 0 0 0 0 0
4.75588 5.59368e-12 5.58974e-12 3.9352e-15 0.000703509 0.00184088 0 0 0 0 0 0 0 0 0 0 0 0 0 0 0 0 0 0 0 0 0 0 0 0 0 0 0 0 0 0 0 0 0 0 0 0 0 0 0 0 0 0
5 5.57617e-12 5.57293e-12 3.24333e-15 0.000581641 0.00165605 0 0 0 0 0 0 0 0 0 0 0 0 0 0 0 0 0 0 0 0 0 0 0 0 0 0 0 0 0 0 0 0 0 0 0 0 0 0 0 0 0 0
5.25665 5.551e-12 5.54832e-12 2.67595e-15 0.000482066 0.00148806 0 0 0 0 0 0 0 0 0 0 0 0 0 0 0 0 0 0 0 0 0 0 0 0 0 0 0 0 0 0 0 0 0 0 0 0 0 0 0 0 0 0
5.52648 5.51878e-12 5.51657e-12 2.20783e-15 0.000400057 0.00133599 0 0 0 0 0 0 0 0 0 0 0 0 0 0 0 0 0 0 0 0 0 0 0 0 0 0 0 0 0 0 0 0 0 0 0 0 0 0 0 0 0 0
5.81015 5.47558e-12 5.47376e-12 1.81952e-15 0.000332297 0.00119736 0 0 0 0 0 0 0 0 0 0 0 0 0 0 0 0 0 0 0 0 0 0 0 0 0 0 0 0 0 0 0 0 0 0 0 0 0 0 1.4013e-45 0 2.8026e-45 0
6.10839 5.42749e-12 5.42599e-12 1.4964e-15 0.000275708 0.00107134 0 0 0 0 0 0 0 0 0 0 0 0 0 0 0 0 0 0 0 0 0 0 0 0 0 0 0 0 0 0 1.4013e-45 0 5.60519e-45 0 1.68156e-44 0 4.48416e-44 0 1.10703e-43 0 2.57839e-43 0
6.42193 5.37292e-12 5.3717e-12 1.22625e-15 0.000228227 0.00095636 0 0 0 0 0 0 0 0 0 0 0 0 0 0 0 0 0 0 0 0 0 0 1.4013e-45 0 5.60519e-45 0 2.24208e-44 0 7.84727e-44 0 2.39622e-43 0 6.89439e-43 0 1.81048e-42 0 4.45753e-42 0 1.05532e-41 0 2.35348e-41 0
6.75157 5.33329e-12 5.33229e-12 9.96923e-16 0.000186925 0.000850391 0 0 0 0 0 0 0 0 0 0 0 0 0 0 0 0 1.4013e-45 0 5.60519e-45 0 3.36312e-44 0 1.58347e-43 0 6.51604e-43 0 2.33877e-42 0 7.56701e-42 0 2.16879e-41 0 5.93632e-41 0 1.48781e-40 0 3.50574e-40 0 7.95748e-40 0 1.70651e-39 0
7.09813 5.24567e-12 5.24486e-12 8.10023e-16 0.000154417 0.000750598 0 0 0 0 0 0 0 0 0 0 0 0 1.4013e-45 0 9.80909e-45 0 8.96831e-44 0 6.10966e-43 0 3.2356e-42 0 1.43227e-41 0 5.50654e-41 0 1.85773e-40 0 5.67482e-40 0 1.5449e-39 0 4.02581e-39 0 9.6473e-39 0 2.18003e-38 0 4.75419e-38 0 9.82273e-38 0
7.46248 5.17444e-12 5.1738e-12 6.41931e-16 0.000124058 0.00065346 0 0 0 0 0 0 0 0 0 0 4.2039e-45 0 8.26766e-44 0 1.00473e-42 0 8.30129e-42 0 5.13352e-41 0 2.50411e-40 0 1.03065e-39 0 3.71027e-39 0 1.17958e-38 0 3.41208e-38 0 8.84568e-38 0 2.19976e-37 0 5.05123e-37 0 1.0969e-36 0 2.30276e-36 0 4.59216e-36 0
7.84553 5.10035e-12 5.09986e-12 4.85826e-16 9.52535e-05 0.000560804 0 0 0 0 0 0 0 0 1.12104e-44 0 4.30199e-43 0 7.58523e-42 0 8.12193e-41 0 6.05173e-40 0 3.42379e-39 0 1.54577e-38 0 5.93753e-38 0 2.00788e-37 0 6.03301e-37 0 1.65693e-36 0 4.10032e-36 0 9.75315e-36 0 2.1505e-35 0 4.49642e-35 0 9.10382e-35 0 1.75532e-34 0
8.24824 5.68288e-12 5.68252e-12 3.57381e-16 6.28872e-05 0.000482071 0 0 0 0 0 0 1.12104e-44 0 1.23454e-42 0 4.04191e-41 0 6.1977e-40 0 5.91081e-39 0 3.99286e-38 0 2.07571e-37 0 8.70647e-37 0 3.1316e-36 0 9.97848e-36 0 2.8414e-35 0 7.42814e-35 0 1.75866e-34 0 4.00991e-34 0 8.50674e-34 0 1.71574e-33 0 3.35621e-33 0 6.26702e-33 0
8.67162 6.90033e-12 6.90002e-12 3.09858e-16 4.49049e-05 0.000419551 0 0 0 0 1.4013e-45 0 1.36627e-42 0 1.19227e-40 0 3.29375e-39 0 4.42022e-38 0 3.77607e-37 0 2.32365e-36 0 1.11455e-35 0 4.35888e-35 0 1.47285e-34 0 4.43488e-34 0 1.19994e-33 0 2.99318e-33 0 6.79451e-33 0 1.48811e-32 0 3.0431e-32 0 5.93099e-32 0 1.12279e-31 0 2.03362e-31 0
9.11674 9.46999e-12 9.46962e-12 3.68569e-16 3.89197e-05 0.000357941 0 0 0 0 2.5924e-43 0 1.48036e-40 0 1.03876e-38 0 2.44042e-37 0 2.88506e-36 0 2.21956e-35 0 1.24989e-34 0 5.55334e-34 0 2.03194e-33 0 6.46958e-33 0 1.84598e-32 0 4.75775e-32 0 1.13499e-31 0 2.47533e-31 0 5.21779e-31 0 1.03039e-30 0 1.94384e-30 0 3.56698e-30 0 6.27588e-30 0
9.5847 1.1546e-11 1.15454e-11 5.11338e-16 4.42872e-05 0.000320264 0 0 0 0 2.7153e-41 0 1.13744e-38 0 6.48542e-37 0 1.30603e-35 0 1.36858e-34 0 9.53056e-34 0 4.93257e-33 0 2.03767e-32 0 6.9982e-32 0 2.10569e-31 0 5.70839e-31 0 1.40479e-30 0 3.21193e-30 0 6.74334e-30 0 1.37062e-29 0 2.61819e-29 0 4.78855e-29 0 8.53044e-29 0 1.46004e-28 0
10.0767 1.11795e-11 1.11789e-11 5.62743e-16 5.0337e-05 0.000304056 0 0 3.50325e-44 0 1.79533e-39 0 5.60056e-37 0 2.62124e-35 0 4.55883e-34 0 4.25946e-33 0 2.69806e-32 0 1.28869e-31 0 4.96743e-31 0 1.60628e-30 0 4.58006e-30 0 1.18262e-29 0 2.78514e-29 0 6.11598e-29 0 1.23836e-28 0 2.43136e-28 0 4.49999e-28 0 7.9912e-28 0 1.384e-27 0 2.30746e-27 0
10.5939 9.51971e-12 9.51921e-12 4.99599e-16 5.24805e-05 0.000298973 0 0 2.81941e-42 0 8.39099e-38 0 1.97756e-35 0 7.67105e-34 0 1.16049e-32 0 9.72211e-32 0 5.62751e-31 0 2.49033e-30 0 8.9873e-30 0 2.74431e-29 0 7.43475e-29 0 1.83284e-28 0 4.13967e-28 0 8.74793e-28 0 1.71131e-27 0 3.25106e-27 0 5.83891e-27 0 1.00822e-26 0 1.69994e-26 0 2.76436e-26 0
11.1377 7.95355e-12 7.95313e-12 4.19903e-16 5.27944e-05 0.000306185 2.8026e-45 0 1.73698e-40 0 3.12596e-36 0 5.64253e-34 0 1.83076e-32 0 2.42559e-31 0 1.83174e-30 0 9.73171e-30 0 4.00491e-29 0 1.35754e-28 0 3.92542e-28 0 1.01295e-27 0 2.38953e-27 0 5.18654e-27 0 1.0567e-26 0 2.00054e-26 0 3.68329e-26 0 6.42876e-26 0 1.08086e-25 0 1.77652e-25 0 2.82112e-25 0
11.7094 6.38676e-12 6.38643e-12 3.28328e-16 5.14076e-05 0.000308039 2.22806e-43 0 8.23518e-39 0 9.1856e-35 0 1.28655e-32 0 3.52212e-31 0 4.11339e-30 0 2.81435e-29 0 1.37813e-28 0 5.29291e-28 0 1.69032e-27 0 4.64077e-27 0 1.14338e-26 0 2.58653e-26 0 5.40567e-26 0 1.06374e-25 0 1.95207e-25 0 3.48852e-25 0 5.92547e-25 0 9.71288e-25 0 1.55816e-24 0 2.41912e-24 0
12.3105 5.12964e-12 5.12939e-12 2.44636e-16 4.76907e-05 0.000306423 1.4282e-41 0 3.16126e-37 0 2.23709e-33 0 2.46156e-31 0 5.73335e-30 0 5.93868e-29 0 3.69906e-28 0 1.67617e-27 0 6.02824e-27 0 1.81905e-26 0 4.7539e-26 0 1.1208e-25 0 2.4364e-25 0 4.91191e-25 0 9.35151e-25 0 1.66598e-24 0 2.89405e-24 0 4.79019e-24 0 7.66477e-24 0 1.20155e-23 0 1.82582e-23 0
