# 0.00012589 1 142 : grain size, compostion index, size index
# Heating and cooling timescale: 0.000146045 3.14794e+09
# Ratio of heating to cooling to determine stochastic cutoff: 100
# Equilibrium emission is recorded even for those grains in the stochastic regime.
# Emission spectrum was computed for: 
# Type: IRSF
# Scales: 0.25 0.5 1 1.5 2 2.5 3 3.5 4 4.5 5 5.5 6 6.5 7 7.5 8 8.5 9 9.5 10
# StochasticallyHeated: 0 0 0 0 0 0 0 0 0 0 0 0 0 0 0 0 0 0 0 0 0
# Temperature: -1
# Wavelength  CExt  CAbs  CSca  Albedo G EqEm1 StEm1 EqEm2 StEm2 EqEm3 StEm3 EqEm4 StEm4 EqEm5 StEm5 EqEm6 StEm6 EqEm7 StEm7 EqEm8 StEm8 EqEm9 StEm9 EqEm10 StEm10 EqEm11 StEm11 EqEm12 StEm12 EqEm13 StEm13 EqEm14 StEm14 EqEm15 StEm15 EqEm16 StEm16 EqEm17 StEm17 EqEm18 StEm18 EqEm19 StEm19 EqEm20 StEm20 EqEm21 StEm21
0.05 2.6016e-08 1.15762e-08 1.44398e-08 0.555034 0.214855 0 0 0 0 0 0 0 0 0 0 0 0 0 0 0 0 0 0 0 0 0 0 0 0 0 0 0 0 0 0 0 0 0 0 0 0 0 0 0 0 0 0
0.0525665 2.87554e-08 1.27952e-08 1.59602e-08 0.555034 0.237479 0 0 0 0 0 0 0 0 0 0 0 0 0 0 0 0 0 0 0 0 0 0 0 0 0 0 0 0 0 0 0 0 0 0 0 0 0 0 0 0 0 0
0.0552647 3.17832e-08 1.41424e-08 1.76407e-08 0.555034 0.262484 0 0 0 0 0 0 0 0 0 0 0 0 0 0 0 0 0 0 0 0 0 0 0 0 0 0 0 0 0 0 0 0 0 0 0 0 0 0 0 0 0 0
0.0581015 3.51298e-08 1.56316e-08 1.94982e-08 0.555034 0.290122 0 0 0 0 0 0 0 0 0 0 0 0 0 0 0 0 0 0 0 0 0 0 0 0 0 0 0 0 0 0 0 0 0 0 0 0 0 0 0 0 0 0
0.0610839 3.88288e-08 1.72775e-08 2.15513e-08 0.555034 0.320671 0 0 0 0 0 0 0 0 0 0 0 0 0 0 0 0 0 0 0 0 0 0 0 0 0 0 0 0 0 0 0 0 0 0 0 0 0 0 0 0 0 0
0.0642193 4.29173e-08 1.90967e-08 2.38205e-08 0.555034 0.354436 0 0 0 0 0 0 0 0 0 0 0 0 0 0 0 0 0 0 0 0 0 0 0 0 0 0 0 0 0 0 0 0 0 0 0 0 0 0 0 0 0 0
0.0675157 4.74363e-08 2.11075e-08 2.63287e-08 0.555034 0.391756 0 0 0 0 0 0 0 0 0 0 0 0 0 0 0 0 0 0 0 0 0 0 0 0 0 0 0 0 0 0 0 0 0 0 0 0 0 0 0 0 0 0
0.0709813 5.24311e-08 2.333e-08 2.9101e-08 0.555034 0.433006 0 0 0 0 0 0 0 0 0 0 0 0 0 0 0 0 0 0 0 0 0 0 0 0 0 0 0 0 0 0 0 0 0 0 0 0 0 0 0 0 0 0
0.0746248 5.79518e-08 2.57866e-08 3.21652e-08 0.555034 0.4786 0 0 0 0 0 0 0 0 0 0 0 0 0 0 0 0 0 0 0 0 0 0 0 0 0 0 0 0 0 0 0 0 0 0 0 0 0 0 0 0 0 0
0.0784553 6.40538e-08 2.85018e-08 3.5552e-08 0.555034 0.528994 0 0 0 0 0 0 0 0 0 0 0 0 0 0 0 0 0 0 0 0 0 0 0 0 0 0 0 0 0 0 0 0 0 0 0 0 0 0 0 0 0 0
0.0824824 7.07984e-08 3.15029e-08 3.92955e-08 0.555034 0.584694 0 0 0 0 0 0 0 0 0 0 0 0 0 0 0 0 0 0 0 0 0 0 0 0 0 0 0 0 0 0 0 0 0 0 0 0 0 0 0 0 0 0
0.0867162 7.82532e-08 3.482e-08 4.34331e-08 0.555034 0.64626 0 0 0 0 0 0 0 0 0 0 0 0 0 0 0 0 0 0 0 0 0 0 0 0 0 0 0 0 0 0 0 0 0 0 0 0 0 0 0 0 0 0
0.0911674 8.64928e-08 3.84864e-08 4.80064e-08 0.555034 0.714308 0 0 0 0 0 0 0 0 0 0 0 0 0 0 0 0 0 0 0 0 0 0 0 0 0 0 0 0 0 0 0 0 0 0 0 0 0 0 0 0 0 0
0.095847 9.56001e-08 4.25388e-08 5.30613e-08 0.555034 0.789521 0 0 0 0 0 0 0 0 0 0 0 0 0 0 0 0 0 0 0 0 0 0 0 0 0 0 0 0 0 0 0 0 0 0 0 0 0 0 0 0 0 0
0.100767 1.04093e-07 4.63249e-08 5.77681e-08 0.554966 0.859444 0 0 0 0 0 0 0 0 0 0 0 0 0 0 0 0 0 0 0 0 0 0 0 0 0 0 0 0 0 0 0 0 0 0 0 0 0 0 0 0 0 0
0.105939 1.04291e-07 4.64615e-08 5.78293e-08 0.5545 0.863083 0 0 0 0 0 0 0 0 0 0 0 0 0 0 0 0 0 0 0 0 0 0 0 0 0 0 0 0 0 0 0 0 0 0 0 0 0 0 0 0 0 0
0.111377 1.04491e-07 4.66255e-08 5.78658e-08 0.553786 0.8678 0 0 0 0 0 0 0 0 0 0 0 0 0 0 0 0 0 0 0 0 0 0 0 0 0 0 0 0 0 0 0 0 0 0 0 0 0 0 0 0 0 0
0.117094 1.04691e-07 4.67815e-08 5.79099e-08 0.553149 0.870758 0 0 0 0 0 0 0 0 0 0 0 0 0 0 0 0 0 0 0 0 0 0 0 0 0 0 0 0 0 0 0 0 0 0 0 0 0 0 0 0 0 0
0.123105 1.04893e-07 4.69926e-08 5.79003e-08 0.551995 0.872556 0 0 0 0 0 0 0 0 0 0 0 0 0 0 0 0 0 0 0 0 0 0 0 0 0 0 0 0 0 0 0 0 0 0 0 0 0 0 0 0 0 0
0.129424 1.05086e-07 4.72283e-08 5.78576e-08 0.550574 0.873342 0 0 0 0 0 0 0 0 0 0 0 0 0 0 0 0 0 0 0 0 0 0 0 0 0 0 0 0 0 0 0 0 0 0 0 0 0 0 0 0 0 0
0.136067 1.05294e-07 4.73991e-08 5.78948e-08 0.54984 0.872938 0 0 0 0 0 0 0 0 0 0 0 0 0 0 0 0 0 0 0 0 0 0 0 0 0 0 0 0 0 0 0 0 0 0 0 0 0 0 0 0 0 0
0.143051 1.05501e-07 4.76676e-08 5.78336e-08 0.54818 0.870544 0 0 0 0 0 0 0 0 0 0 0 0 0 0 0 0 0 0 0 0 0 0 0 0 0 0 0 0 0 0 0 0 0 0 0 0 0 0 0 0 0 0
0.150394 1.05728e-07 4.80821e-08 5.76463e-08 0.54523 0.871489 0 0 0 0 0 0 0 0 0 0 0 0 0 0 0 0 0 0 0 0 0 0 0 0 0 0 0 0 0 0 0 0 0 0 0 0 0 0 0 0 0 0
0.158114 1.05993e-07 4.86141e-08 5.73791e-08 0.541347 0.877454 0 0 0 0 0 0 0 0 0 0 0 0 0 0 0 0 0 0 0 0 0 0 0 0 0 0 0 0 0 0 0 0 0 0 0 0 0 0 0 0 0 0
0.16623 1.06306e-07 4.91808e-08 5.71249e-08 0.537364 0.884842 0 0 0 0 0 0 0 0 0 0 0 0 0 0 0 0 0 0 0 0 0 0 0 0 0 0 0 0 0 0 0 0 0 0 0 0 0 0 0 0 0 0
0.174762 1.06624e-07 4.97027e-08 5.69215e-08 0.533851 0.891545 0 0 0 0 0 0 0 0 0 0 0 0 0 0 0 0 0 0 0 0 0 0 0 0 0 0 0 0 0 0 0 0 0 0 0 0 0 0 0 0 0 0
0.183733 1.06945e-07 4.99043e-08 5.70404e-08 0.533364 0.897512 0 0 0 0 0 0 0 0 0 0 0 0 0 0 0 0 0 0 0 0 0 0 0 0 0 0 0 0 0 0 0 0 0 0 0 0 0 0 0 0 0 0
0.193164 1.07915e-07 4.88841e-08 5.90308e-08 0.547012 0.902518 0 0 0 0 0 0 0 0 0 0 0 0 0 0 0 0 0 0 0 0 0 0 0 0 0 0 0 0 0 0 0 0 0 0 0 0 0 0 0 0 0 0
0.203079 1.08088e-07 4.91067e-08 5.89812e-08 0.545678 0.9062 0 0 0 0 0 0 0 0 0 0 0 0 0 0 0 0 0 0 0 0 0 0 0 0 0 0 0 0 0 0 0 0 0 0 0 0 0 0 0 0 0 0
0.213503 1.07911e-07 4.97127e-08 5.8198e-08 0.539317 0.907642 0 0 0 0 0 0 0 0 0 0 0 0 0 0 0 0 0 0 0 0 0 0 0 0 0 0 0 0 0 0 0 0 0 0 0 0 0 0 0 0 0 0
0.224463 1.07788e-07 5.01539e-08 5.76341e-08 0.534699 0.906766 0 0 0 0 0 0 0 0 0 0 0 0 0 0 0 0 0 0 0 0 0 0 0 0 0 0 0 0 0 0 0 0 0 0 0 0 0 0 0 0 0 0
0.235984 1.07711e-07 5.06042e-08 5.71066e-08 0.530185 0.905273 0 0 0 0 0 0 0 0 0 0 0 0 0 0 0 0 0 0 0 0 0 0 0 0 0 0 0 0 0 0 0 0 0 0 0 0 0 0 0 0 0 0
0.248097 1.07719e-07 5.10109e-08 5.67081e-08 0.526445 0.908781 0 0 0 0 0 0 0 0 0 0 0 0 0 0 0 0 0 0 0 0 0 0 0 0 0 0 0 0 0 0 0 0 0 0 0 0 0 0 0 0 0 0
0.260832 1.07844e-07 5.13751e-08 5.64689e-08 0.523617 0.905894 0 0 0 0 0 0 0 0 0 0 0 0 0 0 0 0 0 0 0 0 0 0 0 0 0 0 0 0 0 0 0 0 0 0 0 0 0 0 0 0 0 0
0.274221 1.08045e-07 5.16956e-08 5.63499e-08 0.521539 0.908655 0 0 0 0 0 0 0 0 0 0 0 0 0 0 0 0 0 0 0 0 0 0 0 0 0 0 0 0 0 0 0 0 0 0 0 0 0 0 0 0 0 0
0.288297 1.08312e-07 5.19822e-08 5.63298e-08 0.52007 0.903797 0 0 0 0 0 0 0 0 0 0 0 0 0 0 0 0 0 0 0 0 0 0 0 0 0 0 0 0 0 0 0 0 0 0 0 0 0 0 0 0 0 0
0.303095 1.08628e-07 5.22491e-08 5.63788e-08 0.519008 0.904581 0 0 0 0 0 0 0 0 0 0 0 0 0 0 0 0 0 0 0 0 0 0 0 0 0 0 0 0 0 0 0 0 0 0 0 0 0 0 0 0 0 0
0.318653 1.08988e-07 5.25024e-08 5.64858e-08 0.518275 0.903379 0 0 0 0 0 0 0 0 0 0 0 0 0 0 0 0 0 0 0 0 0 0 0 0 0 0 0 0 0 0 0 0 0 0 0 0 0 0 0 0 0 0
0.335009 1.09383e-07 5.27501e-08 5.66331e-08 0.517749 0.897004 0 0 0 0 0 0 0 0 0 0 0 0 0 0 0 0 0 0 0 0 0 0 0 0 0 0 0 0 0 0 0 0 0 0 0 0 0 0 0 0 0 0
0.352205 1.09813e-07 5.29973e-08 5.68152e-08 0.517384 0.897966 0 0 0 0 0 0 0 0 0 0 0 0 0 0 0 0 0 0 0 0 0 0 0 0 0 0 0 0 0 0 0 0 0 0 0 0 0 0 0 0 0 0
0.370284 1.10268e-07 5.32449e-08 5.70233e-08 0.517133 0.897986 0 0 0 0 0 0 0 0 0 0 0 0 0 0 0 0 0 0 0 0 0 0 0 0 0 0 0 0 0 0 0 0 0 0 0 0 0 0 0 0 0 0
0.389291 1.10754e-07 5.35e-08 5.72544e-08 0.516949 0.88999 0 0 0 0 0 0 0 0 0 0 0 0 0 0 0 0 0 0 0 0 0 0 0 0 0 0 0 0 0 0 0 0 0 0 0 0 0 0 0 0 0 0
0.409273 1.11264e-07 5.37604e-08 5.75037e-08 0.516822 0.880973 0 0 0 0 0 0 0 0 0 0 0 0 0 0 0 0 0 0 0 0 0 0 0 0 0 0 0 0 0 0 0 0 0 0 0 0 0 0 0 0 0 0
0.430281 1.11803e-07 5.40303e-08 5.77724e-08 0.516735 0.881991 0 0 0 0 0 0 0 0 0 0 0 0 0 0 0 0 0 0 0 0 0 0 0 0 0 0 0 0 0 0 0 0 0 0 0 0 0 0 0 0 0 0
0.452368 1.12368e-07 5.43101e-08 5.80578e-08 0.516676 0.884971 0 0 0 0 0 0 0 0 0 0 0 0 0 0 0 0 0 0 0 0 0 0 0 0 0 0 0 0 0 0 0 0 0 0 0 0 0 0 0 0 0 0
0.475588 1.12958e-07 5.4598e-08 5.83604e-08 0.516654 0.881911 0 0 0 0 0 0 0 0 0 0 0 0 0 0 0 0 0 0 0 0 0 0 0 0 0 0 0 0 0 0 0 0 0 0 0 0 0 0 0 0 0 0
0.5 1.13714e-07 5.48684e-08 5.88459e-08 0.517489 0.870547 0 0 0 0 0 0 0 0 0 0 0 0 0 0 0 0 0 0 0 0 0 0 0 0 0 0 0 0 0 0 0 0 0 0 0 0 0 0 0 0 0 0
0.525665 1.15274e-07 5.50234e-08 6.02505e-08 0.522673 0.856843 0 0 0 0 0 0 0 0 0 0 0 0 0 0 0 0 0 0 0 0 0 0 0 0 0 0 0 0 0 0 0 0 0 0 0 0 0 0 0 0 0 0
0.552648 1.18119e-07 5.52212e-08 6.28977e-08 0.532495 0.851125 0 0 0 0 0 0 0 0 0 0 0 0 0 0 0 0 0 0 0 0 0 0 0 0 0 0 0 0 0 0 0 0 0 0 0 0 0 0 0 0 0 0
0.581015 1.21026e-07 5.53661e-08 6.56602e-08 0.542529 0.853115 0 0 0 0 0 0 0 0 0 0 0 0 0 0 0 0 0 0 0 0 0 0 0 0 0 0 0 0 0 0 0 0 0 0 0 0 0 0 0 0 0 0
0.610839 1.22569e-07 5.55174e-08 6.70512e-08 0.54705 0.854962 0 0 0 0 0 0 0 0 0 0 0 0 0 0 0 0 0 0 0 0 0 0 0 0 0 0 0 0 0 0 0 0 0 0 0 0 0 0 0 0 0 0
0.642193 1.22273e-07 5.567e-08 6.66029e-08 0.544707 0.84627 0 0 0 0 0 0 0 0 0 0 0 0 0 0 0 0 0 0 0 0 0 0 0 0 0 0 0 0 0 0 0 0 0 0 0 0 0 0 0 0 0 0
0.675157 1.20831e-07 5.57849e-08 6.50464e-08 0.538324 0.829414 0 0 0 0 0 0 0 0 0 0 0 0 0 0 0 0 0 0 0 0 0 0 0 0 0 0 0 0 0 0 0 0 0 0 0 0 0 0 0 0 0 0
0.709813 1.1938e-07 5.58203e-08 6.35599e-08 0.532416 0.812412 0 0 0 0 0 0 0 0 0 0 0 0 0 0 0 0 0 0 0 0 0 0 0 0 0 0 0 0 0 0 0 0 0 0 0 0 0 0 0 0 0 0
0.746248 1.19196e-07 5.59517e-08 6.32442e-08 0.53059 0.790898 0 0 0 0 0 0 0 0 0 0 0 0 0 0 0 0 0 0 0 0 0 0 0 0 0 0 0 0 0 0 0 0 0 0 0 0 0 0 0 0 0 0
0.784553 1.20426e-07 5.59709e-08 6.44547e-08 0.535224 0.79068 0 0 0 0 0 0 0 0 0 0 0 0 0 0 0 0 0 0 0 0 0 0 0 0 0 0 0 0 0 0 0 0 0 0 0 0 0 0 0 0 0 0
0.824824 1.225e-07 5.58743e-08 6.66254e-08 0.543882 0.797322 0 0 0 0 0 0 0 0 0 0 0 0 0 0 0 0 0 0 0 0 0 0 0 0 0 0 0 0 0 0 0 0 0 0 0 0 0 0 0 0 0 0
0.867162 1.24963e-07 5.56233e-08 6.93396e-08 0.554882 0.818469 0 0 0 0 0 0 0 0 0 0 0 0 0 0 0 0 0 0 0 0 0 0 0 0 0 0 0 0 0 0 0 0 0 0 0 0 0 0 0 0 0 0
0.911674 1.26931e-07 5.56548e-08 7.12766e-08 0.561536 0.824498 0 0 0 0 0 0 0 0 0 0 0 0 0 0 0 0 0 0 0 0 0 0 0 0 0 0 0 0 0 0 0 0 0 0 0 0 0 0 0 0 0 0
0.95847 1.2733e-07 5.51701e-08 7.21596e-08 0.566715 0.843934 0 0 0 0 0 0 0 0 0 0 0 0 0 0 0 0 0 0 0 0 0 0 0 0 0 0 0 0 0 0 0 0 0 0 0 0 0 0 0 0 0 0
1.00767 1.26377e-07 5.48693e-08 7.15075e-08 0.565827 0.820933 0 0 0 0 0 0 0 0 0 0 0 0 0 0 0 0 0 0 0 0 0 0 0 0 0 0 0 0 0 0 0 0 0 0 0 0 0 0 0 0 0 0
1.05939 1.24828e-07 5.46119e-08 7.02164e-08 0.562504 0.824181 0 0 0 0 0 0 0 0 0 0 0 0 0 0 0 0 0 0 0 0 0 0 0 0 0 0 0 0 0 0 0 0 0 0 0 0 0 0 0 0 0 0
1.11377 1.22714e-07 5.48447e-08 6.78698e-08 0.553071 0.778058 0 0 0 0 0 0 0 0 0 0 0 0 0 0 0 0 0 0 0 0 0 0 0 0 0 0 0 0 0 0 0 0 0 0 0 0 0 0 0 0 0 0
1.17094 1.22472e-07 5.4616e-08 6.78557e-08 0.554052 0.740109 0 0 0 0 0 0 0 0 0 0 0 0 0 0 0 0 0 0 0 0 0 0 0 0 0 0 0 0 0 0 0 0 0 0 0 0 0 0 0 0 0 0
1.23105 1.22772e-07 5.4682e-08 6.80902e-08 0.554606 0.687138 0 0 0 0 0 0 0 0 0 0 0 0 0 0 0 0 0 0 0 0 0 0 0 0 0 0 0 0 0 0 0 0 0 0 0 0 0 0 0 0 0 0
1.29424 1.25274e-07 5.43407e-08 7.09334e-08 0.566226 0.60984 0 0 0 0 0 0 0 0 0 0 0 0 0 0 0 0 0 0 0 0 0 0 0 0 0 0 0 0 0 0 0 0 0 0 0 0 0 0 0 0 0 0
1.36067 1.29454e-07 5.47592e-08 7.46948e-08 0.576999 0.551826 0 0 0 0 0 0 0 0 0 0 0 0 0 0 0 0 0 0 0 0 0 0 0 0 0 0 0 0 0 0 0 0 0 0 0 0 0 0 0 0 0 0
1.43051 1.34488e-07 5.39114e-08 8.05768e-08 0.599137 0.529349 0 0 0 0 0 0 0 0 0 0 0 0 0 0 0 0 0 0 0 0 0 0 0 0 0 0 0 0 0 0 0 0 0 0 0 0 0 0 0 0 0 0
1.50394 1.42232e-07 5.35259e-08 8.87057e-08 0.623671 0.47714 0 0 0 0 0 0 0 0 0 0 0 0 0 0 0 0 0 0 0 0 0 0 0 0 0 0 0 0 0 0 0 0 0 0 0 0 0 0 0 0 0 0
1.58114 1.49138e-07 5.33265e-08 9.58114e-08 0.642435 0.525279 0 0 0 0 0 0 0 0 0 0 0 0 0 0 0 0 0 0 0 0 0 0 0 0 0 0 0 0 0 0 0 0 0 0 0 0 0 0 0 0 0 0
1.6623 1.55876e-07 5.28213e-08 1.03055e-07 0.661133 0.546604 0 0 0 0 0 0 0 0 0 0 0 0 0 0 0 0 0 0 0 0 0 0 0 0 0 0 0 0 0 0 0 0 0 0 0 0 0 0 0 0 0 0
1.74763 1.63503e-07 5.26018e-08 1.10901e-07 0.678283 0.558661 0 0 0 0 0 0 0 0 0 0 0 0 0 0 0 0 0 0 0 0 0 0 0 0 0 0 0 0 0 0 0 0 0 0 0 0 0 0 0 0 0 0
1.83733 1.69396e-07 5.23323e-08 1.17064e-07 0.691066 0.616459 0 0 0 0 0 0 0 0 0 0 0 0 0 0 0 0 0 0 0 0 0 0 0 0 0 0 0 0 0 0 0 0 0 0 0 0 0 0 0 0 0 0
1.93164 1.73473e-07 5.20883e-08 1.21385e-07 0.699733 0.637692 0 0 0 0 0 0 0 0 0 0 0 0 0 0 0 0 0 0 0 0 0 0 0 0 0 0 0 0 0 0 0 0 0 0 0 0 0 0 0 0 0 0
2.03079 1.7587e-07 5.17848e-08 1.24085e-07 0.705551 0.639594 0 0 0 0 0 0 0 0 0 0 0 0 0 0 0 0 0 0 0 0 0 0 0 0 0 0 0 0 0 0 0 0 0 0 0 0 0 0 0 0 0 0
2.13503 1.76626e-07 5.1567e-08 1.25059e-07 0.708044 0.659572 0 0 0 0 0 0 0 0 0 0 0 0 0 0 0 0 0 0 0 0 0 0 0 0 0 0 0 0 0 0 0 0 0 0 0 0 0 0 0 0 0 0
2.24463 1.76418e-07 5.18693e-08 1.24549e-07 0.705987 0.69022 0 0 0 0 0 0 0 0 0 0 0 0 0 0 0 0 0 0 0 0 0 0 0 0 0 0 0 0 0 0 0 0 0 0 0 0 0 0 0 0 0 0
2.35984 1.74838e-07 5.24409e-08 1.22397e-07 0.70006 0.700723 0 0 0 0 0 0 0 0 0 0 0 0 0 0 0 0 0 0 0 0 0 0 0 0 0 0 0 0 0 0 0 0 0 0 0 0 0 0 0 0 0 0
2.48097 1.7104e-07 5.24187e-08 1.18621e-07 0.693529 0.692626 0 0 0 0 0 0 0 0 0 0 0 0 0 0 0 0 0 0 0 0 0 0 0 0 0 0 0 0 0 0 0 0 0 0 0 0 0 0 0 0 0 0
2.60832 1.65725e-07 5.17329e-08 1.13992e-07 0.687839 0.677516 0 0 0 0 0 0 0 0 0 0 0 0 0 0 0 0 0 0 0 0 0 0 0 0 0 0 0 0 0 0 0 0 0 0 0 0 0 0 0 0 0 0
2.74221 1.6027e-07 5.12175e-08 1.09052e-07 0.680429 0.679293 0 0 0 0 0 0 0 0 0 0 0 0 0 0 0 0 0 0 0 0 0 0 0 0 0 0 0 0 0 0 0 0 0 0 0 0 0 0 0 0 0 0
2.88297 1.55131e-07 5.14615e-08 1.03669e-07 0.66827 0.691089 0 0 0 0 0 0 0 0 0 0 0 0 0 0 0 0 0 0 0 0 0 0 0 0 0 0 0 0 0 0 0 0 0 0 0 0 0 0 0 0 0 0
3.03095 1.49778e-07 5.22376e-08 9.75406e-08 0.651234 0.701524 0 0 0 0 0 0 0 0 0 0 0 0 0 0 0 0 0 0 0 0 0 0 0 0 0 0 0 0 0 0 0 0 0 0 0 0 0 0 0 0 0 0
3.18653 1.43774e-07 5.2624e-08 9.11497e-08 0.63398 0.699407 0 0 0 0 0 0 0 0 0 0 0 0 0 0 0 0 0 0 0 0 0 0 0 0 0 0 0 0 0 0 0 0 0 0 0 0 0 0 0 0 0 0
3.35009 1.354e-07 5.26488e-08 8.27512e-08 0.611161 0.67819 0 0 0 0 0 0 0 0 0 0 0 0 0 0 0 0 0 0 0 0 0 0 0 0 0 0 0 0 0 0 0 0 0 0 0 0 0 0 0 0 0 0
3.52205 1.3284e-07 5.29194e-08 7.99203e-08 0.60163 0.645833 0 0 0 0 0 0 0 0 0 0 0 0 0 0 0 0 0 0 0 0 0 0 0 0 0 0 0 0 0 0 0 0 0 0 0 0 0 0 0 0 0 0
3.70284 1.25484e-07 5.00233e-08 7.54609e-08 0.601358 0.616541 0 0 0 0 0 0 0 0 0 0 0 0 0 0 0 0 0 0 0 0 0 0 0 0 0 0 0 0 0 0 0 0 0 0 0 0 0 0 0 0 0 0
3.89291 1.18759e-07 4.8755e-08 7.00043e-08 0.589464 0.598645 0 0 0 0 0 0 0 0 0 0 0 0 0 0 0 0 0 0 0 0 0 0 0 0 0 0 0 0 0 0 0 0 0 0 0 0 0 0 0 0 0 0
4.09273 1.1258e-07 4.79756e-08 6.46041e-08 0.573852 0.594651 0 0 0 0 0 0 0 0 0 0 0 0 0 0 0 0 0 0 0 0 0 0 0 0 0 0 0 0 0 0 0 0 0 0 0 0 0 0 0 0 0 0
4.30281 1.06552e-07 4.74892e-08 5.90624e-08 0.554308 0.6009 0 0 0 0 0 0 0 0 0 0 0 0 0 0 0 0 0 0 0 0 0 0 0 0 0 0 0 0 0 0 0 0 0 0 0 0 0 0 0 0 0 0
4.52368 1.00489e-07 4.7062e-08 5.34265e-08 0.531668 0.607811 0 0 0 0 0 0 0 0 0 0 0 0 0 0 0 0 0 0 0 0 0 0 0 0 0 0 0 0 0 0 0 0 0 0 0 0 0 0 0 0 0 0
4.75588 9.44478e-08 4.65069e-08 4.79409e-08 0.507591 0.603505 0 0 0 0 0 0 0 0 0 0 0 0 0 0 0 0 0 0 0 0 0 0 0 0 0 0 0 0 0 0 0 0 0 0 0 0 0 0 0 0 0 0
5 8.86169e-08 4.57447e-08 4.28722e-08 0.483792 0.580384 0 0 0 0 0 0 0 0 0 0 0 0 0 0 0 0 0 0 0 0 0 0 0 0 0 0 0 0 0 0 0 0 0 0 0 0 0 0 0 0 0 0
5.25665 8.3066e-08 4.47663e-08 3.82997e-08 0.461076 0.539011 0 0 0 0 0 0 0 0 0 0 0 0 0 0 0 0 0 0 0 0 0 0 0 0 0 0 0 0 0 0 0 0 0 0 0 0 0 0 0 0 0 0
5.52648 7.7838e-08 4.36624e-08 3.41756e-08 0.43906 0.486491 0 0 0 0 0 0 0 0 0 0 0 0 0 0 0 0 0 0 0 0 0 0 0 0 0 0 0 0 0 0 0 0 0 0 0 0 0 0 0 0 0 0
5.81015 7.29158e-08 4.2491e-08 3.04247e-08 0.417259 0.430772 0 0 0 0 0 0 0 0 0 0 0 0 0 0 0 0 0 0 0 0 0 0 0 0 0 0 0 0 0 0 0 0 0 0 0 0 0 0 0 0 0 0
6.10839 6.82784e-08 4.13282e-08 2.69502e-08 0.39471 0.377663 0 0 0 0 0 0 0 0 0 0 0 0 0 0 0 0 0 0 0 0 0 0 0 0 0 0 0 0 0 0 0 0 0 0 0 0 0 0 0 0 0 0
6.42193 6.38527e-08 4.0173e-08 2.36797e-08 0.370849 0.329597 0 0 0 0 0 0 0 0 0 0 0 0 0 0 0 0 0 0 0 0 0 0 0 0 0 0 0 0 0 0 0 0 0 0 0 0 0 0 0 0 0 0
6.75157 5.95675e-08 3.90833e-08 2.04841e-08 0.343881 0.286904 0 0 0 0 0 0 0 0 0 0 0 0 0 0 0 0 0 0 0 0 0 0 0 0 0 0 0 0 0 0 0 0 1.4013e-45 0 2.8026e-45 0 8.40779e-45 0 2.10195e-44 0 5.32493e-44 0
7.09813 5.54961e-08 3.78533e-08 1.76428e-08 0.317911 0.248953 0 0 0 0 0 0 0 0 0 0 0 0 0 0 0 0 0 0 0 0 0 0 0 0 1.4013e-45 0 4.2039e-45 0 1.54143e-44 0 5.04467e-44 0 1.61149e-43 0 4.73639e-43 0 1.27518e-42 0 3.27624e-42 0 7.79262e-42 0
7.46248 5.11653e-08 3.65172e-08 1.46481e-08 0.286289 0.215443 0 0 0 0 0 0 0 0 0 0 0 0 0 0 0 0 0 0 1.4013e-45 0 5.60519e-45 0 3.22299e-44 0 1.5134e-43 0 6.2638e-43 0 2.2659e-42 0 7.23771e-42 0 2.18504e-41 0 6.07113e-41 0 1.55903e-40 0 3.82253e-40 0 8.7176e-40 0
7.84553 4.6325e-08 3.48704e-08 1.14546e-08 0.247265 0.188301 0 0 0 0 0 0 0 0 0 0 0 0 0 0 1.4013e-45 0 1.68156e-44 0 1.4013e-43 0 8.632e-43 0 4.55702e-42 0 2.00932e-41 0 7.73979e-41 0 2.62829e-40 0 7.93094e-40 0 2.26876e-39 0 5.9969e-39 0 1.47067e-38 0 3.45141e-38 0 7.56068e-38 0
8.24824 4.45364e-08 3.62035e-08 8.33288e-09 0.187103 0.168239 0 0 0 0 0 0 0 0 0 0 0 0 1.68156e-44 0 2.5924e-43 0 2.591e-42 0 1.98774e-41 0 1.12545e-40 0 5.47382e-40 0 2.24488e-39 0 8.09623e-39 0 2.59005e-38 0 7.40527e-38 0 2.01242e-37 0 5.07278e-37 0 1.19073e-36 0 2.68044e-36 0 5.65122e-36 0
8.67162 4.80839e-08 4.10264e-08 7.05748e-09 0.146774 0.150664 0 0 0 0 0 0 0 0 1.4013e-45 0 1.13505e-43 0 2.77737e-42 0 3.868e-41 0 3.45605e-40 0 2.40023e-39 0 1.24869e-38 0 5.62183e-38 0 2.15207e-37 0 7.29032e-37 0 2.2035e-36 0 5.98511e-36 0 1.549e-35 0 3.73228e-35 0 8.4033e-35 0 1.81818e-34 0 3.69622e-34 0
9.11674 5.98787e-08 5.18636e-08 8.01509e-09 0.133855 0.132703 0 0 0 0 0 0 2.8026e-45 0 4.16186e-43 0 1.95215e-41 0 4.09319e-40 0 5.01293e-39 0 4.02481e-38 0 2.54288e-37 0 1.22055e-36 0 5.10598e-36 0 1.8306e-35 0 5.8427e-35 0 1.67312e-34 0 4.3281e-34 0 1.06933e-33 0 2.46825e-33 0 5.34141e-33 0 1.11295e-32 0 2.18552e-32 0
9.5847 7.468e-08 6.32723e-08 1.14078e-08 0.152755 0.117298 0 0 0 0 0 0 4.65231e-43 0 6.48717e-41 0 2.5225e-39 0 4.55889e-38 0 4.94046e-37 0 3.58305e-36 0 2.06892e-35 0 9.19847e-35 0 3.58833e-34 0 1.20874e-33 0 3.6454e-33 0 9.9163e-33 0 2.44888e-32 0 5.789e-32 0 1.28276e-31 0 2.67326e-31 0 5.37398e-31 0 1.02109e-30 0
10.0767 8.10666e-08 6.70949e-08 1.39716e-08 0.172348 0.106253 0 0 0 0 5.46506e-44 0 6.2568e-41 0 6.85403e-39 0 2.22895e-37 0 3.49748e-36 0 3.37392e-35 0 2.2213e-34 0 1.17739e-33 0 4.86693e-33 0 1.77651e-32 0 5.63973e-32 0 1.61162e-31 0 4.17492e-31 0 9.86498e-31 0 2.2361e-30 0 4.76606e-30 0 9.58268e-30 0 1.86181e-29 0 3.42842e-29 0
10.5939 7.71608e-08 6.32647e-08 1.38962e-08 0.180093 0.0988755 0 0 0 0 7.11019e-42 0 5.83359e-39 0 5.08102e-37 0 1.39404e-35 0 1.91229e-34 0 1.65148e-33 0 9.9171e-33 0 4.84544e-32 0 1.86886e-31 0 6.40376e-31 0 1.92146e-30 0 5.21639e-30 0 1.28995e-29 0 2.92273e-29 0 6.36547e-29 0 1.30753e-28 0 2.5408e-28 0 4.779e-28 0 8.54177e-28 0
11.1377 6.97621e-08 5.70287e-08 1.27333e-08 0.182525 0.097069 0 0 4.2039e-45 0 6.94174e-40 0 4.10455e-37 0 2.8745e-35 0 6.70908e-34 0 8.09868e-33 0 6.29532e-32 0 3.46354e-31 0 1.56614e-30 0 5.65525e-30 0 1.82472e-29 0 5.18911e-29 0 1.3417e-28 0 3.17439e-28 0 6.91088e-28 0 1.44901e-27 0 2.87362e-27 0 5.40581e-27 0 9.85896e-27 0 1.71289e-26 0
11.7094 5.85717e-08 4.80026e-08 1.0569e-08 0.180446 0.095926 0 0 5.66125e-43 0 4.97355e-38 0 2.15345e-35 0 1.22556e-33 0 2.45268e-32 0 2.62166e-31 0 1.84373e-30 0 9.3335e-30 0 3.92068e-29 0 1.32971e-28 0 4.05193e-28 0 1.09496e-27 0 2.70282e-27 0 6.13144e-27 0 1.2851e-26 0 2.59883e-26 0 4.98446e-26 0 9.09181e-26 0 1.6102e-25 0 2.7231e-25 0
12.3105 4.69368e-08 3.8833e-08 8.10376e-09 0.172653 0.0954469 0 0 5.40383e-41 0 2.72328e-36 0 8.76673e-34 0 4.09584e-32 0 7.08129e-31 0 6.74236e-30 0 4.31095e-29 0 2.01619e-28 0 7.89614e-28 0 2.52298e-27 0 7.28104e-27 0 1.87435e-26 0 4.42701e-26 0 9.64909e-26 0 1.95061e-25 0 3.81134e-25 0 7.08124e-25 0 1.25429e-24 0 2.16026e-24 0 3.56082e-24 0
12.9424 3.97588e-08 3.39076e-08 5.85118e-09 0.147167 0.0920516 3.64338e-44 0 4.35714e-39 0 1.2942e-34 0 3.14274e-32 0 1.21703e-30 0 1.83079e-29 0 1.56154e-28 0 9.11956e-28 0 3.95569e-27 0 1.4493e-26 0 4.37549e-26 0 1.19904e-25 0 2.94741e-25 0 6.67539e-25 0 1.40065e-24 0 2.73584e-24 0 5.17362e-24 0 9.3259e-24 0 1.60641e-23 0 2.69425e-23 0 4.33395e-23 0
13.6067 3.63812e-08 3.18611e-08 4.52015e-09 0.124244 0.0840484 4.47575e-42 0 2.99432e-37 0 5.37921e-33 0 9.98999e-31 0 3.23613e-29 0 4.26462e-28 0 3.27601e-27 0 1.75528e-26 0 7.0873e-26 0 2.43716e-25 0 6.97143e-25 0 1.81867e-24 0 4.27847e-24 0 9.31089e-24 0 1.88422e-23 0 3.56202e-23 0 6.52964e-23 0 1.14365e-22 0 1.91834e-22 0 3.1372e-22 0 4.93071e-22 0
