# 0.00035215 1 88 : grain size, compostion index, size index
# Heating and cooling timescale: 2.06302e-05 2.54397e+16
# Ratio of heating to cooling to determine stochastic cutoff: 100
# Equilibrium emission is recorded even for those grains in the stochastic regime.
# Emission spectrum was computed for: 
# Type: ISRF
# Scales: 0.25 0.5 1 1.5 2 2.5 3 3.5 4 4.5 5 5.5 6 6.5 7 7.5 8 8.5 9 9.5 10
# StochasticallyHeated: 0 0 0 0 0 0 0 0 0 0 0 0 0 0 0 0 0 0 0 0 0
# Temperature: -1
# Wavelength  CExt  CAbs  CSca  Albedo G EqEm1 StEm1 EqEm2 StEm2 EqEm3 StEm3 EqEm4 StEm4 EqEm5 StEm5 EqEm6 StEm6 EqEm7 StEm7 EqEm8 StEm8 EqEm9 StEm9 EqEm10 StEm10 EqEm11 StEm11 EqEm12 StEm12 EqEm13 StEm13 EqEm14 StEm14 EqEm15 StEm15 EqEm16 StEm16 EqEm17 StEm17 EqEm18 StEm18 EqEm19 StEm19 EqEm20 StEm20 EqEm21 StEm21
0.05 7.90216e-07 3.33149e-07 4.57067e-07 0.578407 0.932355 0 0 0 0 0 0 0 0 0 0 0 0 0 0 0 0 0 0 0 0 0 0 0 0 0 0 0 0 0 0 0 0 0 0 0 0 0 0 0 0 0 0
0.0525665 7.90733e-07 3.30419e-07 4.60314e-07 0.582136 0.926632 0 0 0 0 0 0 0 0 0 0 0 0 0 0 0 0 0 0 0 0 0 0 0 0 0 0 0 0 0 0 0 0 0 0 0 0 0 0 0 0 0 0
0.0552647 7.91297e-07 3.25752e-07 4.65544e-07 0.588331 0.917884 0 0 0 0 0 0 0 0 0 0 0 0 0 0 0 0 0 0 0 0 0 0 0 0 0 0 0 0 0 0 0 0 0 0 0 0 0 0 0 0 0 0
0.0581015 7.91985e-07 3.18636e-07 4.73348e-07 0.597674 0.904284 0 0 0 0 0 0 0 0 0 0 0 0 0 0 0 0 0 0 0 0 0 0 0 0 0 0 0 0 0 0 0 0 0 0 0 0 0 0 0 0 0 0
0.0610839 7.92808e-07 3.1157e-07 4.81237e-07 0.607004 0.889039 0 0 0 0 0 0 0 0 0 0 0 0 0 0 0 0 0 0 0 0 0 0 0 0 0 0 0 0 0 0 0 0 0 0 0 0 0 0 0 0 0 0
0.0642193 7.93693e-07 3.06813e-07 4.8688e-07 0.613436 0.876646 0 0 0 0 0 0 0 0 0 0 0 0 0 0 0 0 0 0 0 0 0 0 0 0 0 0 0 0 0 0 0 0 0 0 0 0 0 0 0 0 0 0
0.0675157 7.94596e-07 3.04355e-07 4.90241e-07 0.616969 0.867909 0 0 0 0 0 0 0 0 0 0 0 0 0 0 0 0 0 0 0 0 0 0 0 0 0 0 0 0 0 0 0 0 0 0 0 0 0 0 0 0 0 0
0.0709813 7.95513e-07 3.03769e-07 4.91744e-07 0.618147 0.862404 0 0 0 0 0 0 0 0 0 0 0 0 0 0 0 0 0 0 0 0 0 0 0 0 0 0 0 0 0 0 0 0 0 0 0 0 0 0 0 0 0 0
0.0746248 7.96424e-07 3.04743e-07 4.91681e-07 0.617361 0.859726 0 0 0 0 0 0 0 0 0 0 0 0 0 0 0 0 0 0 0 0 0 0 0 0 0 0 0 0 0 0 0 0 0 0 0 0 0 0 0 0 0 0
0.0784553 7.97299e-07 3.07458e-07 4.89841e-07 0.614376 0.860358 0 0 0 0 0 0 0 0 0 0 0 0 0 0 0 0 0 0 0 0 0 0 0 0 0 0 0 0 0 0 0 0 0 0 0 0 0 0 0 0 0 0
0.0824824 7.98067e-07 3.12601e-07 4.85466e-07 0.608302 0.86581 0 0 0 0 0 0 0 0 0 0 0 0 0 0 0 0 0 0 0 0 0 0 0 0 0 0 0 0 0 0 0 0 0 0 0 0 0 0 0 0 0 0
0.0867162 7.98696e-07 3.14849e-07 4.83847e-07 0.605796 0.868753 0 0 0 0 0 0 0 0 0 0 0 0 0 0 0 0 0 0 0 0 0 0 0 0 0 0 0 0 0 0 0 0 0 0 0 0 0 0 0 0 0 0
0.0911674 7.9961e-07 3.12518e-07 4.87091e-07 0.609161 0.862352 0 0 0 0 0 0 0 0 0 0 0 0 0 0 0 0 0 0 0 0 0 0 0 0 0 0 0 0 0 0 0 0 0 0 0 0 0 0 0 0 0 0
0.095847 8.00576e-07 3.12746e-07 4.8783e-07 0.609348 0.8591 0 0 0 0 0 0 0 0 0 0 0 0 0 0 0 0 0 0 0 0 0 0 0 0 0 0 0 0 0 0 0 0 0 0 0 0 0 0 0 0 0 0
0.100767 8.01436e-07 3.14245e-07 4.87191e-07 0.607898 0.858621 0 0 0 0 0 0 0 0 0 0 0 0 0 0 0 0 0 0 0 0 0 0 0 0 0 0 0 0 0 0 0 0 0 0 0 0 0 0 0 0 0 0
0.105939 8.02147e-07 3.17891e-07 4.84256e-07 0.6037 0.862447 0 0 0 0 0 0 0 0 0 0 0 0 0 0 0 0 0 0 0 0 0 0 0 0 0 0 0 0 0 0 0 0 0 0 0 0 0 0 0 0 0 0
0.111377 8.02789e-07 3.21542e-07 4.81247e-07 0.599469 0.867414 0 0 0 0 0 0 0 0 0 0 0 0 0 0 0 0 0 0 0 0 0 0 0 0 0 0 0 0 0 0 0 0 0 0 0 0 0 0 0 0 0 0
0.117094 8.03482e-07 3.24076e-07 4.79406e-07 0.596661 0.870522 0 0 0 0 0 0 0 0 0 0 0 0 0 0 0 0 0 0 0 0 0 0 0 0 0 0 0 0 0 0 0 0 0 0 0 0 0 0 0 0 0 0
0.123105 8.04212e-07 3.25949e-07 4.78264e-07 0.594698 0.87247 0 0 0 0 0 0 0 0 0 0 0 0 0 0 0 0 0 0 0 0 0 0 0 0 0 0 0 0 0 0 0 0 0 0 0 0 0 0 0 0 0 0
0.129424 8.04973e-07 3.27283e-07 4.7769e-07 0.593423 0.873405 0 0 0 0 0 0 0 0 0 0 0 0 0 0 0 0 0 0 0 0 0 0 0 0 0 0 0 0 0 0 0 0 0 0 0 0 0 0 0 0 0 0
0.136067 8.05772e-07 3.28021e-07 4.77751e-07 0.592911 0.873138 0 0 0 0 0 0 0 0 0 0 0 0 0 0 0 0 0 0 0 0 0 0 0 0 0 0 0 0 0 0 0 0 0 0 0 0 0 0 0 0 0 0
0.143051 8.06585e-07 3.2781e-07 4.78774e-07 0.593582 0.870807 0 0 0 0 0 0 0 0 0 0 0 0 0 0 0 0 0 0 0 0 0 0 0 0 0 0 0 0 0 0 0 0 0 0 0 0 0 0 0 0 0 0
0.150394 8.07225e-07 3.29333e-07 4.77892e-07 0.592018 0.871958 0 0 0 0 0 0 0 0 0 0 0 0 0 0 0 0 0 0 0 0 0 0 0 0 0 0 0 0 0 0 0 0 0 0 0 0 0 0 0 0 0 0
0.158114 8.07833e-07 3.33114e-07 4.74719e-07 0.587645 0.878252 0 0 0 0 0 0 0 0 0 0 0 0 0 0 0 0 0 0 0 0 0 0 0 0 0 0 0 0 0 0 0 0 0 0 0 0 0 0 0 0 0 0
0.16623 8.08572e-07 3.37418e-07 4.71154e-07 0.582699 0.885925 0 0 0 0 0 0 0 0 0 0 0 0 0 0 0 0 0 0 0 0 0 0 0 0 0 0 0 0 0 0 0 0 0 0 0 0 0 0 0 0 0 0
0.174762 8.09443e-07 3.41364e-07 4.68079e-07 0.578273 0.892891 0 0 0 0 0 0 0 0 0 0 0 0 0 0 0 0 0 0 0 0 0 0 0 0 0 0 0 0 0 0 0 0 0 0 0 0 0 0 0 0 0 0
0.183733 8.10399e-07 3.44984e-07 4.65415e-07 0.574304 0.899114 0 0 0 0 0 0 0 0 0 0 0 0 0 0 0 0 0 0 0 0 0 0 0 0 0 0 0 0 0 0 0 0 0 0 0 0 0 0 0 0 0 0
0.193164 8.11425e-07 3.48197e-07 4.63229e-07 0.570883 0.904386 0 0 0 0 0 0 0 0 0 0 0 0 0 0 0 0 0 0 0 0 0 0 0 0 0 0 0 0 0 0 0 0 0 0 0 0 0 0 0 0 0 0
0.203079 8.12507e-07 3.51078e-07 4.61428e-07 0.567907 0.908857 0 0 0 0 0 0 0 0 0 0 0 0 0 0 0 0 0 0 0 0 0 0 0 0 0 0 0 0 0 0 0 0 0 0 0 0 0 0 0 0 0 0
0.213503 8.13637e-07 3.53749e-07 4.59888e-07 0.565225 0.912776 0 0 0 0 0 0 0 0 0 0 0 0 0 0 0 0 0 0 0 0 0 0 0 0 0 0 0 0 0 0 0 0 0 0 0 0 0 0 0 0 0 0
0.224463 8.14797e-07 3.5613e-07 4.58667e-07 0.562921 0.915995 0 0 0 0 0 0 0 0 0 0 0 0 0 0 0 0 0 0 0 0 0 0 0 0 0 0 0 0 0 0 0 0 0 0 0 0 0 0 0 0 0 0
0.235984 8.15989e-07 3.58204e-07 4.57786e-07 0.561019 0.918476 0 0 0 0 0 0 0 0 0 0 0 0 0 0 0 0 0 0 0 0 0 0 0 0 0 0 0 0 0 0 0 0 0 0 0 0 0 0 0 0 0 0
0.248097 8.1729e-07 3.60021e-07 4.57269e-07 0.559494 0.920339 0 0 0 0 0 0 0 0 0 0 0 0 0 0 0 0 0 0 0 0 0 0 0 0 0 0 0 0 0 0 0 0 0 0 0 0 0 0 0 0 0 0
0.260832 8.18545e-07 3.61683e-07 4.56861e-07 0.558139 0.921789 0 0 0 0 0 0 0 0 0 0 0 0 0 0 0 0 0 0 0 0 0 0 0 0 0 0 0 0 0 0 0 0 0 0 0 0 0 0 0 0 0 0
0.274221 8.19716e-07 3.63258e-07 4.56458e-07 0.556849 0.922953 0 0 0 0 0 0 0 0 0 0 0 0 0 0 0 0 0 0 0 0 0 0 0 0 0 0 0 0 0 0 0 0 0 0 0 0 0 0 0 0 0 0
0.288297 8.2127e-07 3.64758e-07 4.56511e-07 0.55586 0.92394 0 0 0 0 0 0 0 0 0 0 0 0 0 0 0 0 0 0 0 0 0 0 0 0 0 0 0 0 0 0 0 0 0 0 0 0 0 0 0 0 0 0
0.303095 8.22734e-07 3.66202e-07 4.56532e-07 0.554896 0.92471 0 0 0 0 0 0 0 0 0 0 0 0 0 0 0 0 0 0 0 0 0 0 0 0 0 0 0 0 0 0 0 0 0 0 0 0 0 0 0 0 0 0
0.318653 8.24173e-07 3.67613e-07 4.56559e-07 0.553961 0.925322 0 0 0 0 0 0 0 0 0 0 0 0 0 0 0 0 0 0 0 0 0 0 0 0 0 0 0 0 0 0 0 0 0 0 0 0 0 0 0 0 0 0
0.335009 8.25438e-07 3.6899e-07 4.56449e-07 0.552977 0.925757 0 0 0 0 0 0 0 0 0 0 0 0 0 0 0 0 0 0 0 0 0 0 0 0 0 0 0 0 0 0 0 0 0 0 0 0 0 0 0 0 0 0
0.352205 8.26652e-07 3.70344e-07 4.56308e-07 0.551995 0.926061 0 0 0 0 0 0 0 0 0 0 0 0 0 0 0 0 0 0 0 0 0 0 0 0 0 0 0 0 0 0 0 0 0 0 0 0 0 0 0 0 0 0
0.370284 8.28665e-07 3.7168e-07 4.56985e-07 0.551471 0.926384 0 0 0 0 0 0 0 0 0 0 0 0 0 0 0 0 0 0 0 0 0 0 0 0 0 0 0 0 0 0 0 0 0 0 0 0 0 0 0 0 0 0
0.389291 8.31533e-07 3.72977e-07 4.58557e-07 0.551459 0.926703 0 0 0 0 0 0 0 0 0 0 0 0 0 0 0 0 0 0 0 0 0 0 0 0 0 0 0 0 0 0 0 0 0 0 0 0 0 0 0 0 0 0
0.409273 8.31736e-07 3.74238e-07 4.57497e-07 0.550052 0.926463 0 0 0 0 0 0 0 0 0 0 0 0 0 0 0 0 0 0 0 0 0 0 0 0 0 0 0 0 0 0 0 0 0 0 0 0 0 0 0 0 0 0
0.430281 8.33409e-07 3.75468e-07 4.57941e-07 0.549479 0.926364 0 0 0 0 0 0 0 0 0 0 0 0 0 0 0 0 0 0 0 0 0 0 0 0 0 0 0 0 0 0 0 0 0 0 0 0 0 0 0 0 0 0
0.452368 8.37349e-07 3.76639e-07 4.6071e-07 0.5502 0.926467 0 0 0 0 0 0 0 0 0 0 0 0 0 0 0 0 0 0 0 0 0 0 0 0 0 0 0 0 0 0 0 0 0 0 0 0 0 0 0 0 0 0
0.475588 8.35449e-07 3.77767e-07 4.57681e-07 0.547827 0.925548 0 0 0 0 0 0 0 0 0 0 0 0 0 0 0 0 0 0 0 0 0 0 0 0 0 0 0 0 0 0 0 0 0 0 0 0 0 0 0 0 0 0
0.5 8.4234e-07 3.78784e-07 4.63556e-07 0.550319 0.925864 0 0 0 0 0 0 0 0 0 0 0 0 0 0 0 0 0 0 0 0 0 0 0 0 0 0 0 0 0 0 0 0 0 0 0 0 0 0 0 0 0 0
0.525665 8.38595e-07 3.79774e-07 4.5882e-07 0.54713 0.92436 0 0 0 0 0 0 0 0 0 0 0 0 0 0 0 0 0 0 0 0 0 0 0 0 0 0 0 0 0 0 0 0 0 0 0 0 0 0 0 0 0 0
0.552648 8.47677e-07 3.80749e-07 4.66928e-07 0.550832 0.924822 0 0 0 0 0 0 0 0 0 0 0 0 0 0 0 0 0 0 0 0 0 0 0 0 0 0 0 0 0 0 0 0 0 0 0 0 0 0 0 0 0 0
0.581015 8.42427e-07 3.81591e-07 4.60836e-07 0.547034 0.922775 0 0 0 0 0 0 0 0 0 0 0 0 0 0 0 0 0 0 0 0 0 0 0 0 0 0 0 0 0 0 0 0 0 0 0 0 0 0 0 0 0 0
0.610839 8.50301e-07 3.8221e-07 4.68091e-07 0.5505 0.922583 0 0 0 0 0 0 0 0 0 0 0 0 0 0 0 0 0 0 0 0 0 0 0 0 0 0 0 0 0 0 0 0 0 0 0 0 0 0 0 0 0 0
0.642193 8.52335e-07 3.82622e-07 4.69713e-07 0.551089 0.92126 0 0 0 0 0 0 0 0 0 0 0 0 0 0 0 0 0 0 0 0 0 0 0 0 0 0 0 0 0 0 0 0 0 0 0 0 0 0 0 0 0 0
0.675157 8.46244e-07 3.82929e-07 4.63315e-07 0.547496 0.918414 0 0 0 0 0 0 0 0 0 0 0 0 0 0 0 0 0 0 0 0 0 0 0 0 0 0 0 0 0 0 0 0 0 0 0 0 0 0 0 0 0 0
0.709813 8.63399e-07 3.83517e-07 4.79882e-07 0.555805 0.919637 0 0 0 0 0 0 0 0 0 0 0 0 0 0 0 0 0 0 0 0 0 0 0 0 0 0 0 0 0 0 0 0 0 0 0 0 0 0 0 0 0 0
0.746248 8.56812e-07 3.83629e-07 4.73183e-07 0.55226 0.916237 0 0 0 0 0 0 0 0 0 0 0 0 0 0 0 0 0 0 0 0 0 0 0 0 0 0 0 0 0 0 0 0 0 0 0 0 0 0 0 0 0 0
0.784553 8.51291e-07 3.83388e-07 4.67903e-07 0.549639 0.912443 0 0 0 0 0 0 0 0 0 0 0 0 0 0 0 0 0 0 0 0 0 0 0 0 0 0 0 0 0 0 0 0 0 0 0 0 0 0 0 0 0 0
0.824824 8.73895e-07 3.83371e-07 4.90524e-07 0.561307 0.914152 0 0 0 0 0 0 0 0 0 0 0 0 0 0 0 0 0 0 0 0 0 0 0 0 0 0 0 0 0 0 0 0 0 0 0 0 0 0 0 0 0 0
0.867162 8.72743e-07 3.828e-07 4.89944e-07 0.561384 0.91099 0 0 0 0 0 0 0 0 0 0 0 0 0 0 0 0 0 0 0 0 0 0 0 0 0 0 0 0 0 0 0 0 0 0 0 0 0 0 0 0 0 0
0.911674 8.53662e-07 3.82365e-07 4.71296e-07 0.552088 0.904609 0 0 0 0 0 0 0 0 0 0 0 0 0 0 0 0 0 0 0 0 0 0 0 0 0 0 0 0 0 0 0 0 0 0 0 0 0 0 0 0 0 0
0.95847 8.6823e-07 3.82749e-07 4.85481e-07 0.559161 0.904585 0 0 0 0 0 0 0 0 0 0 0 0 0 0 0 0 0 0 0 0 0 0 0 0 0 0 0 0 0 0 0 0 0 0 0 0 0 0 0 0 0 0
1.00767 8.95617e-07 3.80299e-07 5.15318e-07 0.575377 0.90532 0 0 0 0 0 0 0 0 0 0 0 0 0 0 0 0 0 0 0 0 0 0 0 0 0 0 0 0 0 0 0 0 0 0 0 0 0 0 0 0 0 0
1.05939 8.87588e-07 3.80033e-07 5.07555e-07 0.571836 0.898854 0 0 0 0 0 0 0 0 0 0 0 0 0 0 0 0 0 0 0 0 0 0 0 0 0 0 0 0 0 0 0 0 0 0 0 0 0 0 0 0 0 0
1.11377 8.59368e-07 3.76927e-07 4.82441e-07 0.561391 0.887504 0 0 0 0 0 0 0 0 0 0 0 0 0 0 0 0 0 0 0 0 0 0 0 0 0 0 0 0 0 0 0 0 0 0 0 0 0 0 0 0 0 0
1.17094 8.66769e-07 3.77295e-07 4.89474e-07 0.564711 0.884465 0 0 0 0 0 0 0 0 0 0 0 0 0 0 0 0 0 0 0 0 0 0 0 0 0 0 0 0 0 0 0 0 0 0 0 0 0 0 0 0 0 0
1.23105 9.03225e-07 3.74313e-07 5.28912e-07 0.585582 0.888804 0 0 0 0 0 0 0 0 0 0 0 0 0 0 0 0 0 0 0 0 0 0 0 0 0 0 0 0 0 0 0 0 0 0 0 0 0 0 0 0 0 0
1.29424 9.27391e-07 3.7193e-07 5.55461e-07 0.59895 0.890258 0 0 0 0 0 0 0 0 0 0 0 0 0 0 0 0 0 0 0 0 0 0 0 0 0 0 0 0 0 0 0 0 0 0 0 0 0 0 0 0 0 0
1.36067 9.09516e-07 3.70749e-07 5.38767e-07 0.592366 0.882692 0 0 0 0 0 0 0 0 0 0 0 0 0 0 0 0 0 0 0 0 0 0 0 0 0 0 0 0 0 0 0 0 0 0 0 0 0 0 0 0 0 0
1.43051 8.74004e-07 3.71427e-07 5.02576e-07 0.575028 0.869191 0 0 0 0 0 0 0 0 0 0 0 0 0 0 0 0 0 0 0 0 0 0 0 0 0 0 0 0 0 0 0 0 0 0 0 0 0 0 0 0 0 0
1.50394 8.62524e-07 3.70568e-07 4.91956e-07 0.570368 0.859192 0 0 0 0 0 0 0 0 0 0 0 0 0 0 0 0 0 0 0 0 0 0 0 0 0 0 0 0 0 0 0 0 0 0 0 0 0 0 0 0 0 0
1.58114 8.95955e-07 3.67953e-07 5.28003e-07 0.589318 0.85789 0 0 0 0 0 0 0 0 0 0 0 0 0 0 0 0 0 0 0 0 0 0 0 0 0 0 0 0 0 0 0 0 0 0 0 0 0 0 0 0 0 0
1.6623 9.50638e-07 3.63777e-07 5.8686e-07 0.617333 0.861003 0 0 0 0 0 0 0 0 0 0 0 0 0 0 0 0 0 0 0 0 0 0 0 0 0 0 0 0 0 0 0 0 0 0 0 0 0 0 0 0 0 0
1.74763 9.82423e-07 3.58938e-07 6.23485e-07 0.63464 0.862508 0 0 0 0 0 0 0 0 0 0 0 0 0 0 0 0 0 0 0 0 0 0 0 0 0 0 0 0 0 0 0 0 0 0 0 0 0 0 0 0 0 0
1.83733 9.67463e-07 3.53975e-07 6.13488e-07 0.634121 0.851843 0 0 0 0 0 0 0 0 0 0 0 0 0 0 0 0 0 0 0 0 0 0 0 0 0 0 0 0 0 0 0 0 0 0 0 0 0 0 0 0 0 0
1.93164 9.19075e-07 3.51777e-07 5.67298e-07 0.617249 0.829231 0 0 0 0 0 0 0 0 0 0 0 0 0 0 0 0 0 0 0 0 0 0 0 0 0 0 0 0 0 0 0 0 0 0 0 0 0 0 0 0 0 0
2.03079 8.74342e-07 3.55081e-07 5.19261e-07 0.593888 0.813951 0 0 0 0 0 0 0 0 0 0 0 0 0 0 0 0 0 0 0 0 0 0 0 0 0 0 0 0 0 0 0 0 0 0 0 0 0 0 0 0 0 0
2.13503 8.60641e-07 3.52063e-07 5.08578e-07 0.590929 0.80024 0 0 0 0 0 0 0 0 0 0 0 0 0 0 0 0 0 0 0 0 0 0 0 0 0 0 0 0 0 0 0 0 0 0 0 0 0 0 0 0 0 0
2.24463 8.77929e-07 3.48407e-07 5.29522e-07 0.603149 0.806167 0 0 0 0 0 0 0 0 0 0 0 0 0 0 0 0 0 0 0 0 0 0 0 0 0 0 0 0 0 0 0 0 0 0 0 0 0 0 0 0 0 0
2.35984 9.26421e-07 3.47783e-07 5.78638e-07 0.624595 0.821638 0 0 0 0 0 0 0 0 0 0 0 0 0 0 0 0 0 0 0 0 0 0 0 0 0 0 0 0 0 0 0 0 0 0 0 0 0 0 0 0 0 0
2.48097 1.00139e-06 3.45111e-07 6.56278e-07 0.655368 0.843646 0 0 0 0 0 0 0 0 0 0 0 0 0 0 0 0 0 0 0 0 0 0 0 0 0 0 0 0 0 0 0 0 0 0 0 0 0 0 0 0 0 0
2.60832 1.07576e-06 3.51863e-07 7.239e-07 0.672918 0.845373 0 0 0 0 0 0 0 0 0 0 0 0 0 0 0 0 0 0 0 0 0 0 0 0 0 0 0 0 0 0 0 0 0 0 0 0 0 0 0 0 0 0
2.74221 1.08841e-06 3.5289e-07 7.35521e-07 0.675775 0.856029 0 0 0 0 0 0 0 0 0 0 0 0 0 0 0 0 0 0 0 0 0 0 0 0 0 0 0 0 0 0 0 0 0 0 0 0 0 0 0 0 0 0
2.88297 1.09875e-06 3.53614e-07 7.45136e-07 0.678167 0.829056 0 0 0 0 0 0 0 0 0 0 0 0 0 0 0 0 0 0 0 0 0 0 0 0 0 0 0 0 0 0 0 0 0 0 0 0 0 0 0 0 0 0
3.03095 1.0314e-06 3.55965e-07 6.75437e-07 0.654873 0.82064 0 0 0 0 0 0 0 0 0 0 0 0 0 0 0 0 0 0 0 0 0 0 0 0 0 0 0 0 0 0 0 0 0 0 0 0 0 0 0 0 0 0
3.18653 9.79897e-07 3.52763e-07 6.27133e-07 0.639999 0.765772 0 0 0 0 0 0 0 0 0 0 0 0 0 0 0 0 0 0 0 0 0 0 0 0 0 0 0 0 0 0 0 0 0 0 0 0 0 0 0 0 0 0
3.35009 8.91907e-07 3.55379e-07 5.36528e-07 0.601552 0.71753 0 0 0 0 0 0 0 0 0 0 0 0 0 0 0 0 0 0 0 0 0 0 0 0 0 0 0 0 0 0 0 0 0 0 0 0 0 0 0 0 0 0
3.52205 8.66457e-07 3.5295e-07 5.13507e-07 0.592651 0.65946 0 0 0 0 0 0 0 0 0 0 0 0 0 0 0 0 0 0 0 0 0 0 0 0 0 0 0 0 0 0 0 0 0 0 0 0 0 0 0 0 0 0
3.70284 8.15871e-07 3.58194e-07 4.57677e-07 0.560968 0.57743 0 0 0 0 0 0 0 0 0 0 0 0 0 0 0 0 0 0 0 0 0 0 0 0 0 0 0 0 0 0 0 0 0 0 0 0 0 0 0 0 0 0
3.89291 8.45107e-07 3.35494e-07 5.09613e-07 0.603016 0.58447 0 0 0 0 0 0 0 0 0 0 0 0 0 0 0 0 0 0 0 0 0 0 0 0 0 0 0 0 0 0 0 0 0 0 0 0 0 0 0 0 0 0
4.09273 9.06293e-07 3.61241e-07 5.45052e-07 0.601409 0.579558 0 0 0 0 0 0 0 0 0 0 0 0 0 0 0 0 0 0 0 0 0 0 0 0 0 0 0 0 0 0 0 0 0 0 0 0 0 0 0 0 0 0
4.30281 9.35598e-07 3.17356e-07 6.18242e-07 0.660799 0.597141 0 0 0 0 0 0 0 0 0 0 0 0 0 0 0 0 0 0 0 0 0 0 0 0 0 0 0 0 0 0 0 0 0 0 0 0 0 0 0 0 0 0
4.52368 1.10267e-06 3.2435e-07 7.78324e-07 0.705851 0.653784 0 0 0 0 0 0 0 0 0 0 0 0 0 0 0 0 0 0 0 0 0 0 0 0 0 0 0 0 0 0 0 0 0 0 0 0 0 0 0 0 0 0
4.75588 1.20305e-06 3.36513e-07 8.66539e-07 0.720284 0.674379 0 0 0 0 0 0 0 0 0 0 0 0 0 0 0 0 0 0 0 0 0 0 0 0 0 0 0 0 0 0 0 0 0 0 0 0 0 0 0 0 0 0
5 1.26987e-06 2.92261e-07 9.77606e-07 0.769849 0.709936 0 0 0 0 0 0 0 0 0 0 0 0 0 0 0 0 0 0 0 0 0 0 0 0 0 0 0 0 0 0 0 0 0 0 0 0 0 0 0 0 0 0
5.25665 1.43736e-06 3.0039e-07 1.13697e-06 0.791013 0.738785 0 0 0 0 0 0 0 0 0 0 0 0 0 0 0 0 0 0 0 0 0 0 0 0 0 0 0 0 0 0 0 0 0 0 0 0 0 0 0 0 0 0
5.52648 1.48382e-06 3.06735e-07 1.17708e-06 0.793279 0.749816 0 0 0 0 0 0 0 0 0 0 0 0 0 0 0 0 0 0 0 0 0 0 0 0 0 0 0 0 0 0 0 0 0 0 0 0 0 0 0 0 0 0
5.81015 1.45633e-06 2.78156e-07 1.17817e-06 0.809001 0.767644 0 0 0 0 0 0 0 0 0 0 0 0 0 0 0 0 0 0 0 0 0 0 0 0 0 0 0 0 0 0 0 0 0 0 0 0 0 0 0 0 0 0
6.10839 1.47618e-06 2.75112e-07 1.20107e-06 0.813632 0.783369 0 0 0 0 0 0 0 0 0 0 0 0 0 0 0 0 0 0 0 0 0 0 0 0 0 0 0 0 0 0 0 0 0 0 0 0 0 0 0 0 0 0
6.42193 1.40991e-06 2.76551e-07 1.13336e-06 0.803851 0.78653 0 0 0 0 0 0 0 0 0 0 0 0 0 0 0 0 0 0 0 0 0 0 0 0 0 0 0 0 0 0 0 0 0 0 0 0 0 0 0 0 0 0
6.75157 1.24248e-06 2.53772e-07 9.88707e-07 0.795754 0.784884 0 0 0 0 0 0 0 0 0 0 0 0 0 0 0 0 0 0 0 0 0 0 0 0 0 0 0 0 0 0 0 0 0 0 0 0 0 0 0 0 0 0
7.09813 1.04395e-06 2.34586e-07 8.09368e-07 0.775291 0.793843 0 0 0 0 0 0 0 0 0 0 0 0 0 0 0 0 0 0 0 0 0 0 0 0 0 0 0 0 0 0 0 0 0 0 0 0 0 0 0 0 0 0
7.46248 7.45489e-07 2.43019e-07 5.0247e-07 0.674014 0.801961 0 0 0 0 0 0 0 0 0 0 0 0 0 0 0 0 0 0 0 0 0 0 0 0 0 0 0 0 0 0 0 0 0 0 0 0 0 0 0 0 0 0
7.84553 5.30951e-07 3.19424e-07 2.11527e-07 0.398393 0.79435 0 0 0 0 0 0 0 0 0 0 0 0 0 0 0 0 0 0 0 0 0 0 0 0 0 0 0 0 0 0 0 0 0 0 0 0 0 0 1.4013e-45 0 2.8026e-45 0
8.24824 5.93408e-07 4.23018e-07 1.7039e-07 0.287139 0.78034 0 0 0 0 0 0 0 0 0 0 0 0 0 0 0 0 0 0 0 0 0 0 0 0 0 0 0 0 1.4013e-45 0 4.2039e-45 0 1.26117e-44 0 3.92364e-44 0 1.05097e-43 0 2.73253e-43 0 6.474e-43 0
8.67162 7.11128e-07 4.83517e-07 2.27611e-07 0.320071 0.752892 0 0 0 0 0 0 0 0 0 0 0 0 0 0 0 0 0 0 0 0 0 0 4.2039e-45 0 1.82169e-44 0 7.42688e-44 0 2.67648e-43 0 8.71608e-43 0 2.61202e-42 0 7.2335e-42 0 1.85924e-41 0 4.6149e-41 0 1.05025e-40 0
9.11674 8.52913e-07 5.35525e-07 3.17387e-07 0.372122 0.714226 0 0 0 0 0 0 0 0 0 0 0 0 0 0 0 0 2.8026e-45 0 2.38221e-44 0 1.5134e-43 0 7.62306e-43 0 3.38694e-42 0 1.28555e-41 0 4.37541e-41 0 1.34399e-40 0 3.81581e-40 0 1.00548e-39 0 2.4681e-39 0 5.86001e-39 0 1.28113e-38 0
9.5847 9.87337e-07 5.81467e-07 4.0587e-07 0.411075 0.683392 0 0 0 0 0 0 0 0 0 0 0 0 4.2039e-45 0 5.74532e-44 0 5.74532e-43 0 4.27676e-42 0 2.46811e-41 0 1.15084e-40 0 4.75435e-40 0 1.69104e-39 0 5.42158e-39 0 1.57654e-38 0 4.25373e-38 0 1.06908e-37 0 2.51165e-37 0 5.7169e-37 0 1.20301e-36 0
10.0767 1.05085e-06 6.01559e-07 4.49291e-07 0.42755 0.661646 0 0 0 0 0 0 0 0 0 0 2.8026e-44 0 6.7963e-43 0 9.23175e-42 0 8.31236e-41 0 5.60968e-40 0 2.97196e-39 0 1.28546e-38 0 4.95513e-38 0 1.65658e-37 0 5.01743e-37 0 1.38493e-36 0 3.55995e-36 0 8.55352e-36 0 1.92745e-35 0 4.21447e-35 0 8.55217e-35 0
10.5939 1.10398e-06 6.14161e-07 4.89818e-07 0.443684 0.639231 0 0 0 0 0 0 0 0 1.03696e-43 0 4.66072e-42 0 9.52168e-41 0 1.13893e-39 0 9.21151e-39 0 5.66313e-38 0 2.76572e-37 0 1.11371e-36 0 4.01936e-36 0 1.26684e-35 0 3.63491e-35 0 9.54797e-35 0 2.34374e-34 0 5.39539e-34 0 1.16851e-33 0 2.45927e-33 0 4.82097e-33 0
11.1377 1.13457e-06 6.25683e-07 5.08885e-07 0.448528 0.626242 0 0 0 0 0 0 1.21913e-43 0 1.56623e-41 0 5.86645e-40 0 1.03428e-38 0 1.09597e-37 0 8.00404e-37 0 4.50325e-36 0 2.0354e-35 0 7.65733e-35 0 2.59566e-34 0 7.73521e-34 0 2.10811e-33 0 5.28242e-33 0 1.24105e-32 0 2.74299e-32 0 5.72069e-32 0 1.16103e-31 0 2.20241e-31 0
11.7094 1.15926e-06 6.36341e-07 5.22919e-07 0.45108 0.61281 0 0 0 0 1.82169e-44 0 1.80669e-41 0 1.83404e-39 0 5.75569e-38 0 8.82085e-37 0 8.32952e-36 0 5.5204e-35 0 2.85469e-34 0 1.19866e-33 0 4.22698e-33 0 1.34995e-32 0 3.81405e-32 0 9.89802e-32 0 2.37143e-31 0 5.34387e-31 0 1.13625e-30 0 2.28618e-30 0 4.48226e-30 0 8.24094e-30 0
12.3105 1.18172e-06 6.428e-07 5.38919e-07 0.456047 0.596527 0 0 0 0 2.84323e-42 0 2.06311e-39 0 1.67134e-37 0 4.4328e-36 0 5.94586e-35 0 5.03171e-34 0 3.04063e-33 0 1.45115e-32 0 5.68103e-32 0 1.88381e-31 0 5.68461e-31 0 1.52668e-30 0 3.78172e-30 0 8.68208e-30 0 1.88037e-29 0 3.85357e-29 0 7.49337e-29 0 1.42163e-28 0 2.5372e-28 0
12.9424 1.19791e-06 6.35748e-07 5.6216e-07 0.469285 0.572073 0 0 2.8026e-45 0 3.43793e-40 0 1.80889e-37 0 1.18242e-35 0 2.67227e-34 0 3.15766e-33 0 2.40758e-32 0 1.33256e-31 0 5.89245e-31 0 2.1581e-30 0 6.74936e-30 0 1.92978e-29 0 4.93864e-29 0 1.17035e-28 0 2.58004e-28 0 5.38095e-28 0 1.06479e-27 0 2.00437e-27 0 3.68562e-27 0 6.39432e-27 0
13.6067 1.19488e-06 6.05342e-07 5.89539e-07 0.493387 0.541647 0 0 4.316e-43 0 3.12715e-38 0 1.21173e-35 0 6.45853e-34 0 1.25351e-32 0 1.31296e-31 0 9.06555e-31 0 4.61549e-30 0 1.89804e-29 0 6.52463e-29 0 1.93005e-28 0 5.24251e-28 0 1.28149e-27 0 2.91156e-27 0 6.17557e-27 0 1.24258e-26 0 2.37825e-26 0 4.34068e-26 0 7.74772e-26 0 1.30851e-25 0
14.3051 1.12147e-06 5.75807e-07 5.45659e-07 0.486558 0.530137 0 0 5.3482e-41 0 2.24685e-36 0 6.50824e-34 0 2.85683e-32 0 4.79727e-31 0 4.48033e-30 0 2.81503e-29 0 1.32372e-28 0 5.08045e-28 0 1.64426e-27 0 4.61304e-27 0 1.19335e-26 0 2.79249e-26 0 6.0954e-26 0 1.24626e-25 0 2.42343e-25 0 4.49365e-25 0 7.9642e-25 0 1.38189e-24 0 2.2749e-24 0
15.0394 1.00822e-06 5.69452e-07 4.38764e-07 0.435188 0.509556 6.44597e-44 0 5.37352e-39 0 1.34245e-34 0 2.94841e-32 0 1.07601e-30 0 1.57439e-29 0 1.31842e-28 0 7.57282e-28 0 3.30177e-27 0 1.18668e-26 0 3.62658e-26 0 9.67478e-26 0 2.38929e-25 0 5.36369e-25 0 1.127e-24 0 2.22518e-24 0 4.18875e-24 0 7.53635e-24 0 1.29888e-23 0 2.19389e-23 0 3.5248e-23 0
