# 8.4139e-05 1 135 : grain size, compostion index, size index
# Heating and cooling timescale: 0.000396059 1.76436e+08
# Ratio of heating to cooling to determine stochastic cutoff: 100
# Equilibrium emission is recorded even for those grains in the stochastic regime.
# Emission spectrum was computed for: 
# Type: IRSF
# Scales: 0.25 0.5 1 1.5 2 2.5 3 3.5 4 4.5 5 5.5 6 6.5 7 7.5 8 8.5 9 9.5 10
# StochasticallyHeated: 0 0 0 0 0 0 0 0 0 0 0 0 0 0 0 0 0 0 0 0 0
# Temperature: -1
# Wavelength  CExt  CAbs  CSca  Albedo G EqEm1 StEm1 EqEm2 StEm2 EqEm3 StEm3 EqEm4 StEm4 EqEm5 StEm5 EqEm6 StEm6 EqEm7 StEm7 EqEm8 StEm8 EqEm9 StEm9 EqEm10 StEm10 EqEm11 StEm11 EqEm12 StEm12 EqEm13 StEm13 EqEm14 StEm14 EqEm15 StEm15 EqEm16 StEm16 EqEm17 StEm17 EqEm18 StEm18 EqEm19 StEm19 EqEm20 StEm20 EqEm21 StEm21
0.05 1.1797e-08 5.249e-09 6.54799e-09 0.555056 0.214813 0 0 0 0 0 0 0 0 0 0 0 0 0 0 0 0 0 0 0 0 0 0 0 0 0 0 0 0 0 0 0 0 0 0 0 0 0 0 0 0 0 0
0.0525665 1.30392e-08 5.8017e-09 7.23746e-09 0.555056 0.237432 0 0 0 0 0 0 0 0 0 0 0 0 0 0 0 0 0 0 0 0 0 0 0 0 0 0 0 0 0 0 0 0 0 0 0 0 0 0 0 0 0 0
0.0552647 1.44121e-08 6.41259e-09 7.99953e-09 0.555056 0.262432 0 0 0 0 0 0 0 0 0 0 0 0 0 0 0 0 0 0 0 0 0 0 0 0 0 0 0 0 0 0 0 0 0 0 0 0 0 0 0 0 0 0
0.0581015 1.59296e-08 7.0878e-09 8.84184e-09 0.555056 0.290065 0 0 0 0 0 0 0 0 0 0 0 0 0 0 0 0 0 0 0 0 0 0 0 0 0 0 0 0 0 0 0 0 0 0 0 0 0 0 0 0 0 0
0.0610839 1.7607e-08 7.83411e-09 9.77285e-09 0.555056 0.320608 0 0 0 0 0 0 0 0 0 0 0 0 0 0 0 0 0 0 0 0 0 0 0 0 0 0 0 0 0 0 0 0 0 0 0 0 0 0 0 0 0 0
0.0642193 1.94609e-08 8.65901e-09 1.08019e-08 0.555056 0.354366 0 0 0 0 0 0 0 0 0 0 0 0 0 0 0 0 0 0 0 0 0 0 0 0 0 0 0 0 0 0 0 0 0 0 0 0 0 0 0 0 0 0
0.0675157 2.151e-08 9.57076e-09 1.19393e-08 0.555056 0.391679 0 0 0 0 0 0 0 0 0 0 0 0 0 0 0 0 0 0 0 0 0 0 0 0 0 0 0 0 0 0 0 0 0 0 0 0 0 0 0 0 0 0
0.0709813 2.37749e-08 1.05785e-08 1.31964e-08 0.555056 0.432921 0 0 0 0 0 0 0 0 0 0 0 0 0 0 0 0 0 0 0 0 0 0 0 0 0 0 0 0 0 0 0 0 0 0 0 0 0 0 0 0 0 0
0.0746248 2.62783e-08 1.16924e-08 1.45859e-08 0.555056 0.478506 0 0 0 0 0 0 0 0 0 0 0 0 0 0 0 0 0 0 0 0 0 0 0 0 0 0 0 0 0 0 0 0 0 0 0 0 0 0 0 0 0 0
0.0784553 2.90453e-08 1.29235e-08 1.61218e-08 0.555056 0.52889 0 0 0 0 0 0 0 0 0 0 0 0 0 0 0 0 0 0 0 0 0 0 0 0 0 0 0 0 0 0 0 0 0 0 0 0 0 0 0 0 0 0
0.0824824 3.21036e-08 1.42843e-08 1.78193e-08 0.555056 0.584579 0 0 0 0 0 0 0 0 0 0 0 0 0 0 0 0 0 0 0 0 0 0 0 0 0 0 0 0 0 0 0 0 0 0 0 0 0 0 0 0 0 0
0.0867162 3.5484e-08 1.57884e-08 1.96956e-08 0.555056 0.646133 0 0 0 0 0 0 0 0 0 0 0 0 0 0 0 0 0 0 0 0 0 0 0 0 0 0 0 0 0 0 0 0 0 0 0 0 0 0 0 0 0 0
0.0911674 3.92203e-08 1.74508e-08 2.17694e-08 0.555056 0.714168 0 0 0 0 0 0 0 0 0 0 0 0 0 0 0 0 0 0 0 0 0 0 0 0 0 0 0 0 0 0 0 0 0 0 0 0 0 0 0 0 0 0
0.095847 4.335e-08 1.92883e-08 2.40617e-08 0.555056 0.789366 0 0 0 0 0 0 0 0 0 0 0 0 0 0 0 0 0 0 0 0 0 0 0 0 0 0 0 0 0 0 0 0 0 0 0 0 0 0 0 0 0 0
0.100767 4.7208e-08 2.10081e-08 2.61999e-08 0.554989 0.859261 0 0 0 0 0 0 0 0 0 0 0 0 0 0 0 0 0 0 0 0 0 0 0 0 0 0 0 0 0 0 0 0 0 0 0 0 0 0 0 0 0 0
0.105939 4.73408e-08 2.10895e-08 2.62513e-08 0.554518 0.86276 0 0 0 0 0 0 0 0 0 0 0 0 0 0 0 0 0 0 0 0 0 0 0 0 0 0 0 0 0 0 0 0 0 0 0 0 0 0 0 0 0 0
0.111377 4.74741e-08 2.11823e-08 2.62918e-08 0.553813 0.867328 0 0 0 0 0 0 0 0 0 0 0 0 0 0 0 0 0 0 0 0 0 0 0 0 0 0 0 0 0 0 0 0 0 0 0 0 0 0 0 0 0 0
0.117094 4.7608e-08 2.12725e-08 2.63355e-08 0.553174 0.870157 0 0 0 0 0 0 0 0 0 0 0 0 0 0 0 0 0 0 0 0 0 0 0 0 0 0 0 0 0 0 0 0 0 0 0 0 0 0 0 0 0 0
0.123105 4.77419e-08 2.13879e-08 2.63539e-08 0.552009 0.871832 0 0 0 0 0 0 0 0 0 0 0 0 0 0 0 0 0 0 0 0 0 0 0 0 0 0 0 0 0 0 0 0 0 0 0 0 0 0 0 0 0 0
0.129424 4.78716e-08 2.15137e-08 2.63578e-08 0.550595 0.872499 0 0 0 0 0 0 0 0 0 0 0 0 0 0 0 0 0 0 0 0 0 0 0 0 0 0 0 0 0 0 0 0 0 0 0 0 0 0 0 0 0 0
0.136067 4.80098e-08 2.16112e-08 2.63985e-08 0.549858 0.87198 0 0 0 0 0 0 0 0 0 0 0 0 0 0 0 0 0 0 0 0 0 0 0 0 0 0 0 0 0 0 0 0 0 0 0 0 0 0 0 0 0 0
0.143051 4.81489e-08 2.17538e-08 2.6395e-08 0.548196 0.869474 0 0 0 0 0 0 0 0 0 0 0 0 0 0 0 0 0 0 0 0 0 0 0 0 0 0 0 0 0 0 0 0 0 0 0 0 0 0 0 0 0 0
0.150394 4.82999e-08 2.1964e-08 2.63359e-08 0.545258 0.870254 0 0 0 0 0 0 0 0 0 0 0 0 0 0 0 0 0 0 0 0 0 0 0 0 0 0 0 0 0 0 0 0 0 0 0 0 0 0 0 0 0 0
0.158114 4.84783e-08 2.22332e-08 2.6245e-08 0.541378 0.876022 0 0 0 0 0 0 0 0 0 0 0 0 0 0 0 0 0 0 0 0 0 0 0 0 0 0 0 0 0 0 0 0 0 0 0 0 0 0 0 0 0 0
0.16623 4.86856e-08 2.25222e-08 2.61634e-08 0.537395 0.883214 0 0 0 0 0 0 0 0 0 0 0 0 0 0 0 0 0 0 0 0 0 0 0 0 0 0 0 0 0 0 0 0 0 0 0 0 0 0 0 0 0 0
0.174762 4.88998e-08 2.27933e-08 2.61064e-08 0.533876 0.889731 0 0 0 0 0 0 0 0 0 0 0 0 0 0 0 0 0 0 0 0 0 0 0 0 0 0 0 0 0 0 0 0 0 0 0 0 0 0 0 0 0 0
0.183733 4.91143e-08 2.29181e-08 2.61961e-08 0.533371 0.895461 0 0 0 0 0 0 0 0 0 0 0 0 0 0 0 0 0 0 0 0 0 0 0 0 0 0 0 0 0 0 0 0 0 0 0 0 0 0 0 0 0 0
0.193164 4.97627e-08 2.25418e-08 2.72209e-08 0.547014 0.899847 0 0 0 0 0 0 0 0 0 0 0 0 0 0 0 0 0 0 0 0 0 0 0 0 0 0 0 0 0 0 0 0 0 0 0 0 0 0 0 0 0 0
0.203079 4.98772e-08 2.26609e-08 2.72163e-08 0.545667 0.899612 0 0 0 0 0 0 0 0 0 0 0 0 0 0 0 0 0 0 0 0 0 0 0 0 0 0 0 0 0 0 0 0 0 0 0 0 0 0 0 0 0 0
0.213503 4.97587e-08 2.29232e-08 2.68356e-08 0.539313 0.891808 0 0 0 0 0 0 0 0 0 0 0 0 0 0 0 0 0 0 0 0 0 0 0 0 0 0 0 0 0 0 0 0 0 0 0 0 0 0 0 0 0 0
0.224463 4.96773e-08 2.31153e-08 2.65621e-08 0.534692 0.888327 0 0 0 0 0 0 0 0 0 0 0 0 0 0 0 0 0 0 0 0 0 0 0 0 0 0 0 0 0 0 0 0 0 0 0 0 0 0 0 0 0 0
0.235984 4.9625e-08 2.33155e-08 2.63095e-08 0.530166 0.8828 0 0 0 0 0 0 0 0 0 0 0 0 0 0 0 0 0 0 0 0 0 0 0 0 0 0 0 0 0 0 0 0 0 0 0 0 0 0 0 0 0 0
0.248097 4.96309e-08 2.3504e-08 2.61268e-08 0.526423 0.883997 0 0 0 0 0 0 0 0 0 0 0 0 0 0 0 0 0 0 0 0 0 0 0 0 0 0 0 0 0 0 0 0 0 0 0 0 0 0 0 0 0 0
0.260832 4.97145e-08 2.36844e-08 2.603e-08 0.523591 0.885653 0 0 0 0 0 0 0 0 0 0 0 0 0 0 0 0 0 0 0 0 0 0 0 0 0 0 0 0 0 0 0 0 0 0 0 0 0 0 0 0 0 0
0.274221 4.98493e-08 2.38522e-08 2.59971e-08 0.521514 0.878572 0 0 0 0 0 0 0 0 0 0 0 0 0 0 0 0 0 0 0 0 0 0 0 0 0 0 0 0 0 0 0 0 0 0 0 0 0 0 0 0 0 0
0.288297 5.00276e-08 2.40108e-08 2.60168e-08 0.520048 0.872378 0 0 0 0 0 0 0 0 0 0 0 0 0 0 0 0 0 0 0 0 0 0 0 0 0 0 0 0 0 0 0 0 0 0 0 0 0 0 0 0 0 0
0.303095 5.02379e-08 2.41646e-08 2.60733e-08 0.518997 0.874066 0 0 0 0 0 0 0 0 0 0 0 0 0 0 0 0 0 0 0 0 0 0 0 0 0 0 0 0 0 0 0 0 0 0 0 0 0 0 0 0 0 0
0.318653 5.0473e-08 2.43167e-08 2.61564e-08 0.518225 0.875323 0 0 0 0 0 0 0 0 0 0 0 0 0 0 0 0 0 0 0 0 0 0 0 0 0 0 0 0 0 0 0 0 0 0 0 0 0 0 0 0 0 0
0.335009 5.07579e-08 2.44544e-08 2.63036e-08 0.518216 0.869361 0 0 0 0 0 0 0 0 0 0 0 0 0 0 0 0 0 0 0 0 0 0 0 0 0 0 0 0 0 0 0 0 0 0 0 0 0 0 0 0 0 0
0.352205 5.13325e-08 2.45344e-08 2.67981e-08 0.52205 0.856881 0 0 0 0 0 0 0 0 0 0 0 0 0 0 0 0 0 0 0 0 0 0 0 0 0 0 0 0 0 0 0 0 0 0 0 0 0 0 0 0 0 0
0.370284 5.26378e-08 2.46344e-08 2.80034e-08 0.532002 0.848641 0 0 0 0 0 0 0 0 0 0 0 0 0 0 0 0 0 0 0 0 0 0 0 0 0 0 0 0 0 0 0 0 0 0 0 0 0 0 0 0 0 0
0.389291 5.40398e-08 2.47095e-08 2.93304e-08 0.542755 0.847415 0 0 0 0 0 0 0 0 0 0 0 0 0 0 0 0 0 0 0 0 0 0 0 0 0 0 0 0 0 0 0 0 0 0 0 0 0 0 0 0 0 0
0.409273 5.4774e-08 2.47842e-08 2.99898e-08 0.547519 0.849182 0 0 0 0 0 0 0 0 0 0 0 0 0 0 0 0 0 0 0 0 0 0 0 0 0 0 0 0 0 0 0 0 0 0 0 0 0 0 0 0 0 0
0.430281 5.46161e-08 2.48648e-08 2.97512e-08 0.544734 0.844779 0 0 0 0 0 0 0 0 0 0 0 0 0 0 0 0 0 0 0 0 0 0 0 0 0 0 0 0 0 0 0 0 0 0 0 0 0 0 0 0 0 0
0.452368 5.39337e-08 2.49216e-08 2.90121e-08 0.537922 0.827872 0 0 0 0 0 0 0 0 0 0 0 0 0 0 0 0 0 0 0 0 0 0 0 0 0 0 0 0 0 0 0 0 0 0 0 0 0 0 0 0 0 0
0.475588 5.32926e-08 2.49466e-08 2.8346e-08 0.531894 0.809472 0 0 0 0 0 0 0 0 0 0 0 0 0 0 0 0 0 0 0 0 0 0 0 0 0 0 0 0 0 0 0 0 0 0 0 0 0 0 0 0 0 0
0.5 5.32454e-08 2.49891e-08 2.82563e-08 0.530681 0.790796 0 0 0 0 0 0 0 0 0 0 0 0 0 0 0 0 0 0 0 0 0 0 0 0 0 0 0 0 0 0 0 0 0 0 0 0 0 0 0 0 0 0
0.525665 5.38685e-08 2.50045e-08 2.8864e-08 0.535824 0.788044 0 0 0 0 0 0 0 0 0 0 0 0 0 0 0 0 0 0 0 0 0 0 0 0 0 0 0 0 0 0 0 0 0 0 0 0 0 0 0 0 0 0
0.552648 5.48399e-08 2.4977e-08 2.98629e-08 0.544547 0.795738 0 0 0 0 0 0 0 0 0 0 0 0 0 0 0 0 0 0 0 0 0 0 0 0 0 0 0 0 0 0 0 0 0 0 0 0 0 0 0 0 0 0
0.581015 5.58998e-08 2.48335e-08 3.10663e-08 0.555751 0.813472 0 0 0 0 0 0 0 0 0 0 0 0 0 0 0 0 0 0 0 0 0 0 0 0 0 0 0 0 0 0 0 0 0 0 0 0 0 0 0 0 0 0
0.610839 5.671e-08 2.48407e-08 3.18693e-08 0.561969 0.821009 0 0 0 0 0 0 0 0 0 0 0 0 0 0 0 0 0 0 0 0 0 0 0 0 0 0 0 0 0 0 0 0 0 0 0 0 0 0 0 0 0 0
0.642193 5.6847e-08 2.46254e-08 3.22217e-08 0.566813 0.836587 0 0 0 0 0 0 0 0 0 0 0 0 0 0 0 0 0 0 0 0 0 0 0 0 0 0 0 0 0 0 0 0 0 0 0 0 0 0 0 0 0 0
0.675157 5.64199e-08 2.44592e-08 3.19607e-08 0.566479 0.820132 0 0 0 0 0 0 0 0 0 0 0 0 0 0 0 0 0 0 0 0 0 0 0 0 0 0 0 0 0 0 0 0 0 0 0 0 0 0 0 0 0 0
0.709813 5.57609e-08 2.41761e-08 3.15847e-08 0.566432 0.81825 0 0 0 0 0 0 0 0 0 0 0 0 0 0 0 0 0 0 0 0 0 0 0 0 0 0 0 0 0 0 0 0 0 0 0 0 0 0 0 0 0 0
0.746248 5.47338e-08 2.40268e-08 3.0707e-08 0.561025 0.771197 0 0 0 0 0 0 0 0 0 0 0 0 0 0 0 0 0 0 0 0 0 0 0 0 0 0 0 0 0 0 0 0 0 0 0 0 0 0 0 0 0 0
0.784553 5.44774e-08 2.36206e-08 3.08569e-08 0.566415 0.735315 0 0 0 0 0 0 0 0 0 0 0 0 0 0 0 0 0 0 0 0 0 0 0 0 0 0 0 0 0 0 0 0 0 0 0 0 0 0 0 0 0 0
0.824824 5.4384e-08 2.33297e-08 3.10543e-08 0.571019 0.673786 0 0 0 0 0 0 0 0 0 0 0 0 0 0 0 0 0 0 0 0 0 0 0 0 0 0 0 0 0 0 0 0 0 0 0 0 0 0 0 0 0 0
0.867162 5.53809e-08 2.28157e-08 3.25653e-08 0.588023 0.590514 0 0 0 0 0 0 0 0 0 0 0 0 0 0 0 0 0 0 0 0 0 0 0 0 0 0 0 0 0 0 0 0 0 0 0 0 0 0 0 0 0 0
0.911674 5.73729e-08 2.27082e-08 3.46647e-08 0.6042 0.560465 0 0 0 0 0 0 0 0 0 0 0 0 0 0 0 0 0 0 0 0 0 0 0 0 0 0 0 0 0 0 0 0 0 0 0 0 0 0 0 0 0 0
0.95847 5.9553e-08 2.20091e-08 3.75438e-08 0.630428 0.514394 0 0 0 0 0 0 0 0 0 0 0 0 0 0 0 0 0 0 0 0 0 0 0 0 0 0 0 0 0 0 0 0 0 0 0 0 0 0 0 0 0 0
1.00767 6.35893e-08 2.15451e-08 4.20442e-08 0.661184 0.488577 0 0 0 0 0 0 0 0 0 0 0 0 0 0 0 0 0 0 0 0 0 0 0 0 0 0 0 0 0 0 0 0 0 0 0 0 0 0 0 0 0 0
1.05939 6.71215e-08 2.13955e-08 4.5726e-08 0.681242 0.526259 0 0 0 0 0 0 0 0 0 0 0 0 0 0 0 0 0 0 0 0 0 0 0 0 0 0 0 0 0 0 0 0 0 0 0 0 0 0 0 0 0 0
1.11377 7.06118e-08 2.11279e-08 4.9484e-08 0.700788 0.528118 0 0 0 0 0 0 0 0 0 0 0 0 0 0 0 0 0 0 0 0 0 0 0 0 0 0 0 0 0 0 0 0 0 0 0 0 0 0 0 0 0 0
1.17094 7.45902e-08 2.10444e-08 5.35458e-08 0.717867 0.564265 0 0 0 0 0 0 0 0 0 0 0 0 0 0 0 0 0 0 0 0 0 0 0 0 0 0 0 0 0 0 0 0 0 0 0 0 0 0 0 0 0 0
1.23105 7.75667e-08 2.08748e-08 5.66919e-08 0.730879 0.610292 0 0 0 0 0 0 0 0 0 0 0 0 0 0 0 0 0 0 0 0 0 0 0 0 0 0 0 0 0 0 0 0 0 0 0 0 0 0 0 0 0 0
1.29424 7.97899e-08 2.06707e-08 5.91192e-08 0.740936 0.622983 0 0 0 0 0 0 0 0 0 0 0 0 0 0 0 0 0 0 0 0 0 0 0 0 0 0 0 0 0 0 0 0 0 0 0 0 0 0 0 0 0 0
1.36067 8.13128e-08 2.03531e-08 6.09597e-08 0.749694 0.63239 0 0 0 0 0 0 0 0 0 0 0 0 0 0 0 0 0 0 0 0 0 0 0 0 0 0 0 0 0 0 0 0 0 0 0 0 0 0 0 0 0 0
1.43051 8.21239e-08 1.98896e-08 6.22343e-08 0.757809 0.661637 0 0 0 0 0 0 0 0 0 0 0 0 0 0 0 0 0 0 0 0 0 0 0 0 0 0 0 0 0 0 0 0 0 0 0 0 0 0 0 0 0 0
1.50394 8.25525e-08 1.97233e-08 6.28293e-08 0.761082 0.679571 0 0 0 0 0 0 0 0 0 0 0 0 0 0 0 0 0 0 0 0 0 0 0 0 0 0 0 0 0 0 0 0 0 0 0 0 0 0 0 0 0 0
1.58114 8.22655e-08 1.97192e-08 6.25463e-08 0.760298 0.689278 0 0 0 0 0 0 0 0 0 0 0 0 0 0 0 0 0 0 0 0 0 0 0 0 0 0 0 0 0 0 0 0 0 0 0 0 0 0 0 0 0 0
1.6623 8.05753e-08 1.93607e-08 6.12146e-08 0.759719 0.682521 0 0 0 0 0 0 0 0 0 0 0 0 0 0 0 0 0 0 0 0 0 0 0 0 0 0 0 0 0 0 0 0 0 0 0 0 0 0 0 0 0 0
1.74763 7.79169e-08 1.86466e-08 5.92702e-08 0.760685 0.673119 0 0 0 0 0 0 0 0 0 0 0 0 0 0 0 0 0 0 0 0 0 0 0 0 0 0 0 0 0 0 0 0 0 0 0 0 0 0 0 0 0 0
1.83733 7.52888e-08 1.80852e-08 5.72036e-08 0.759789 0.674671 0 0 0 0 0 0 0 0 0 0 0 0 0 0 0 0 0 0 0 0 0 0 0 0 0 0 0 0 0 0 0 0 0 0 0 0 0 0 0 0 0 0
1.93164 7.28442e-08 1.79872e-08 5.4857e-08 0.753073 0.682683 0 0 0 0 0 0 0 0 0 0 0 0 0 0 0 0 0 0 0 0 0 0 0 0 0 0 0 0 0 0 0 0 0 0 0 0 0 0 0 0 0 0
2.03079 6.99077e-08 1.8156e-08 5.17517e-08 0.740286 0.691661 0 0 0 0 0 0 0 0 0 0 0 0 0 0 0 0 0 0 0 0 0 0 0 0 0 0 0 0 0 0 0 0 0 0 0 0 0 0 0 0 0 0
2.13503 6.60188e-08 1.81789e-08 4.78399e-08 0.72464 0.689377 0 0 0 0 0 0 0 0 0 0 0 0 0 0 0 0 0 0 0 0 0 0 0 0 0 0 0 0 0 0 0 0 0 0 0 0 0 0 0 0 0 0
2.24463 6.16079e-08 1.78739e-08 4.3734e-08 0.709876 0.669764 0 0 0 0 0 0 0 0 0 0 0 0 0 0 0 0 0 0 0 0 0 0 0 0 0 0 0 0 0 0 0 0 0 0 0 0 0 0 0 0 0 0
2.35984 5.73949e-08 1.74113e-08 3.99836e-08 0.69664 0.640086 0 0 0 0 0 0 0 0 0 0 0 0 0 0 0 0 0 0 0 0 0 0 0 0 0 0 0 0 0 0 0 0 0 0 0 0 0 0 0 0 0 0
2.48097 5.37627e-08 1.70627e-08 3.67e-08 0.682629 0.610987 0 0 0 0 0 0 0 0 0 0 0 0 0 0 0 0 0 0 0 0 0 0 0 0 0 0 0 0 0 0 0 0 0 0 0 0 0 0 0 0 0 0
2.60832 5.06303e-08 1.69327e-08 3.36976e-08 0.665563 0.590621 0 0 0 0 0 0 0 0 0 0 0 0 0 0 0 0 0 0 0 0 0 0 0 0 0 0 0 0 0 0 0 0 0 0 0 0 0 0 0 0 0 0
2.74221 4.77181e-08 1.69826e-08 3.07355e-08 0.644106 0.583155 0 0 0 0 0 0 0 0 0 0 0 0 0 0 0 0 0 0 0 0 0 0 0 0 0 0 0 0 0 0 0 0 0 0 0 0 0 0 0 0 0 0
2.88297 4.48513e-08 1.7095e-08 2.77563e-08 0.618852 0.586895 0 0 0 0 0 0 0 0 0 0 0 0 0 0 0 0 0 0 0 0 0 0 0 0 0 0 0 0 0 0 0 0 0 0 0 0 0 0 0 0 0 0
3.03095 4.20404e-08 1.71733e-08 2.48671e-08 0.591505 0.594128 0 0 0 0 0 0 0 0 0 0 0 0 0 0 0 0 0 0 0 0 0 0 0 0 0 0 0 0 0 0 0 0 0 0 0 0 0 0 0 0 0 0
3.18653 3.92697e-08 1.70369e-08 2.22328e-08 0.566157 0.594859 0 0 0 0 0 0 0 0 0 0 0 0 0 0 0 0 0 0 0 0 0 0 0 0 0 0 0 0 0 0 0 0 0 0 0 0 0 0 0 0 0 0
3.35009 3.62581e-08 1.68921e-08 1.9366e-08 0.534116 0.581152 0 0 0 0 0 0 0 0 0 0 0 0 0 0 0 0 0 0 0 0 0 0 0 0 0 0 0 0 0 0 0 0 0 0 0 0 0 0 0 0 0 0
3.52205 3.51663e-08 1.68701e-08 1.82962e-08 0.520277 0.550624 0 0 0 0 0 0 0 0 0 0 0 0 0 0 0 0 0 0 0 0 0 0 0 0 0 0 0 0 0 0 0 0 0 0 0 0 0 0 0 0 0 0
3.70284 3.18353e-08 1.55645e-08 1.62707e-08 0.511091 0.506874 0 0 0 0 0 0 0 0 0 0 0 0 0 0 0 0 0 0 0 0 0 0 0 0 0 0 0 0 0 0 0 0 0 0 0 0 0 0 0 0 0 0
3.89291 2.92148e-08 1.48645e-08 1.43504e-08 0.491201 0.456357 0 0 0 0 0 0 0 0 0 0 0 0 0 0 0 0 0 0 0 0 0 0 0 0 0 0 0 0 0 0 0 0 0 0 0 0 0 0 0 0 0 0
4.09273 2.6886e-08 1.42648e-08 1.26212e-08 0.469435 0.405047 0 0 0 0 0 0 0 0 0 0 0 0 0 0 0 0 0 0 0 0 0 0 0 0 0 0 0 0 0 0 0 0 0 0 0 0 0 0 0 0 0 0
4.30281 2.48174e-08 1.37702e-08 1.10472e-08 0.445138 0.356998 0 0 0 0 0 0 0 0 0 0 0 0 0 0 0 0 0 0 0 0 0 0 0 0 0 0 0 0 0 0 0 0 0 0 0 0 0 0 0 0 0 0
4.52368 2.2996e-08 1.33781e-08 9.61795e-09 0.418244 0.314175 0 0 0 0 0 0 0 0 0 0 0 0 0 0 0 0 0 0 0 0 0 0 0 0 0 0 0 0 0 0 0 0 0 0 0 0 0 0 0 0 0 0
4.75588 2.13974e-08 1.30669e-08 8.3305e-09 0.389323 0.276782 0 0 0 0 0 0 0 0 0 0 0 0 0 0 0 0 0 0 0 0 0 0 0 0 0 0 0 0 0 0 0 0 0 0 0 0 0 0 0 0 0 0
5 1.99817e-08 1.27967e-08 7.18508e-09 0.359582 0.24433 0 0 0 0 0 0 0 0 0 0 0 0 0 0 0 0 0 0 0 0 0 0 0 0 0 0 0 0 0 0 0 0 0 0 0 0 0 0 0 0 0 0
5.25665 1.86957e-08 1.25285e-08 6.16724e-09 0.329874 0.216208 0 0 0 0 0 0 0 0 0 0 0 0 0 0 0 0 0 0 0 0 0 0 0 0 0 0 0 0 0 0 0 0 0 0 0 0 0 0 0 0 0 0
5.52648 1.75202e-08 1.22569e-08 5.26329e-09 0.300412 0.191842 0 0 0 0 0 0 0 0 0 0 0 0 0 0 0 0 0 0 0 0 0 0 0 0 0 0 0 0 0 0 0 0 0 0 0 0 0 0 0 0 0 0
5.81015 1.6433e-08 1.19693e-08 4.46365e-09 0.271627 0.170448 0 0 0 0 0 0 0 0 0 0 0 0 0 0 0 0 0 0 0 0 0 0 0 0 0 0 0 0 0 0 0 0 0 0 0 0 0 0 0 0 0 0
6.10839 1.54333e-08 1.16745e-08 3.75877e-09 0.24355 0.151588 0 0 0 0 0 0 0 0 0 0 0 0 0 0 0 0 0 0 0 0 0 0 0 0 0 0 0 0 0 0 0 0 0 0 0 0 0 0 0 0 0 0
6.42193 1.45064e-08 1.13667e-08 3.1397e-09 0.216435 0.134785 0 0 0 0 0 0 0 0 0 0 0 0 0 0 0 0 0 0 0 0 0 0 0 0 0 0 0 0 0 0 0 0 0 0 1.4013e-45 0 4.2039e-45 0 1.12104e-44 0 2.8026e-44 0
6.75157 1.36683e-08 1.10792e-08 2.5891e-09 0.189424 0.119603 0 0 0 0 0 0 0 0 0 0 0 0 0 0 0 0 0 0 0 0 0 0 0 0 0 0 1.4013e-45 0 7.00649e-45 0 2.52234e-44 0 8.26766e-44 0 2.41023e-43 0 6.53005e-43 0 1.63812e-42 0 3.93625e-42 0
7.09813 1.28505e-08 1.07202e-08 2.13024e-09 0.165771 0.105602 0 0 0 0 0 0 0 0 0 0 0 0 0 0 0 0 0 0 0 0 2.8026e-45 0 1.68156e-44 0 7.56701e-44 0 3.09687e-43 0 1.14486e-42 0 3.64338e-42 0 1.09806e-41 0 3.05539e-41 0 7.88104e-41 0 1.89161e-40 0 4.35343e-40 0
7.46248 1.2062e-08 1.03625e-08 1.69955e-09 0.140901 0.0924295 0 0 0 0 0 0 0 0 0 0 0 0 0 0 1.4013e-45 0 8.40779e-45 0 7.14662e-44 0 4.52619e-43 0 2.32475e-42 0 1.00557e-41 0 3.82232e-41 0 1.32525e-40 0 3.98542e-40 0 1.13809e-39 0 3.01228e-39 0 7.41872e-39 0 1.70612e-38 0 3.76994e-38 0
7.84553 1.12441e-08 9.95765e-09 1.28641e-09 0.114408 0.0804917 0 0 0 0 0 0 0 0 0 0 0 0 8.40779e-45 0 1.20512e-43 0 1.21913e-42 0 9.22195e-42 0 5.3786e-41 0 2.54821e-40 0 1.02615e-39 0 3.65449e-39 0 1.19242e-38 0 3.39828e-38 0 9.21963e-38 0 2.32698e-37 0 5.48421e-37 0 1.21098e-36 0 2.57424e-36 0
8.24824 1.15684e-08 1.06382e-08 9.3027e-10 0.0804145 0.0705615 0 0 0 0 0 0 0 0 1.4013e-45 0 5.04467e-44 0 1.23454e-42 0 1.67581e-41 0 1.5113e-40 0 1.03597e-39 0 5.54348e-39 0 2.43426e-38 0 9.15808e-38 0 3.06542e-37 0 9.44092e-37 0 2.55646e-36 0 6.60588e-36 0 1.5936e-35 0 3.60182e-35 0 7.65152e-35 0 1.56773e-34 0
8.67162 1.32517e-08 1.24576e-08 7.94094e-10 0.0599239 0.0621431 0 0 0 0 0 0 1.4013e-45 0 1.7236e-43 0 8.02944e-42 0 1.66102e-40 0 1.98617e-39 0 1.60884e-38 0 1.00391e-37 0 4.94953e-37 0 2.02197e-36 0 7.13046e-36 0 2.25001e-35 0 6.55931e-35 0 1.69184e-34 0 4.17371e-34 0 9.64489e-34 0 2.09484e-33 0 4.28943e-33 0 8.48617e-33 0
9.11674 1.74396e-08 1.6511e-08 9.28656e-10 0.0532498 0.053597 0 0 0 0 0 0 2.12997e-43 0 2.88724e-41 0 1.11143e-39 0 1.98308e-38 0 2.10072e-37 0 1.53642e-36 0 8.76733e-36 0 3.99859e-35 0 1.52502e-34 0 5.05703e-34 0 1.50868e-33 0 4.17429e-33 0 1.028e-32 0 2.42666e-32 0 5.38298e-32 0 1.12572e-31 0 2.22578e-31 0 4.25919e-31 0
9.5847 2.17006e-08 2.03804e-08 1.32017e-09 0.0608358 0.0472673 0 0 0 0 2.94273e-44 0 3.27554e-41 0 3.50202e-39 0 1.12802e-37 0 1.74854e-36 0 1.65066e-35 0 1.09549e-34 0 5.74167e-34 0 2.43165e-33 0 8.68731e-33 0 2.71697e-32 0 7.6844e-32 0 2.02309e-31 0 4.76779e-31 0 1.07924e-30 0 2.30271e-30 0 4.64518e-30 0 8.88385e-30 0 1.64697e-29 0
10.0767 2.22521e-08 2.07184e-08 1.53369e-09 0.0689233 0.0437338 0 0 0 0 4.05115e-42 0 3.24565e-39 0 2.76233e-37 0 7.51015e-36 0 1.01833e-34 0 8.61525e-34 0 5.21299e-33 0 2.51995e-32 0 9.94599e-32 0 3.33913e-31 0 9.8777e-31 0 2.65543e-30 0 6.66831e-30 0 1.50709e-29 0 3.27808e-29 0 6.74016e-29 0 1.31387e-28 0 2.43446e-28 0 4.37924e-28 0
10.5939 1.97941e-08 1.83725e-08 1.42162e-09 0.0718204 0.0418858 0 0 2.8026e-45 0 3.83335e-40 0 2.21605e-37 0 1.51819e-35 0 3.51291e-34 0 4.19398e-33 0 3.19689e-32 0 1.77164e-31 0 7.92991e-31 0 2.92694e-30 0 9.26229e-30 0 2.59863e-29 0 6.65663e-29 0 1.59813e-28 0 3.47092e-28 0 7.26854e-28 0 1.44283e-27 0 2.72235e-27 0 4.89459e-27 0 8.55582e-27 0
11.1377 1.69483e-08 1.57213e-08 1.22698e-09 0.0723952 0.0422533 0 0 3.19496e-43 0 2.75301e-38 0 1.1667e-35 0 6.50242e-34 0 1.29064e-32 0 1.36515e-31 0 9.42356e-31 0 4.80346e-30 0 1.99834e-29 0 6.92028e-29 0 2.07015e-28 0 5.52272e-28 0 1.3512e-27 0 3.10817e-27 0 6.49969e-27 0 1.31287e-26 0 2.52029e-26 0 4.61019e-26 0 8.05475e-26 0 1.37011e-25 0
11.7094 1.3701e-08 1.27293e-08 9.71723e-10 0.0709235 0.042377 0 0 3.00705e-41 0 1.48864e-36 0 4.69539e-34 0 2.15049e-32 0 3.68897e-31 0 3.47751e-30 0 2.18442e-29 0 1.02835e-28 0 3.99051e-28 0 1.3006e-27 0 3.68798e-27 0 9.37849e-27 0 2.19648e-26 0 4.8512e-26 0 9.78577e-26 0 1.90993e-25 0 3.55155e-25 0 6.30784e-25 0 1.07246e-24 0 1.77755e-24 0
12.3105 1.08651e-08 1.01403e-08 7.24763e-10 0.0667057 0.0423433 1.96182e-44 0 2.18212e-39 0 6.37254e-35 0 1.51771e-32 0 5.76718e-31 0 8.61123e-30 0 7.27539e-29 0 4.17792e-28 0 1.82354e-27 0 6.62294e-27 0 2.03758e-26 0 5.49109e-26 0 1.33417e-25 0 2.99752e-25 0 6.36916e-25 0 1.24151e-24 0 2.34527e-24 0 4.23096e-24 0 7.30671e-24 0 1.21051e-23 0 1.95747e-23 0
12.9424 9.5132e-09 8.99151e-09 5.21697e-10 0.0548393 0.0407784 2.17341e-42 0 1.39692e-37 0 2.46936e-33 0 4.50206e-31 0 1.43237e-29 0 1.87427e-28 0 1.42683e-27 0 7.5234e-27 0 3.0558e-26 0 1.0421e-25 0 3.03491e-25 0 7.79236e-25 0 1.813e-24 0 3.91547e-24 0 8.01906e-24 0 1.51299e-23 0 2.77072e-23 0 4.85657e-23 0 8.16633e-23 0 1.31999e-22 0 2.08499e-22 0
13.6067 8.96871e-09 8.56588e-09 4.02834e-10 0.0449155 0.0372486 2.05676e-40 0 7.70143e-36 0 8.44517e-32 0 1.19414e-29 0 3.20872e-28 0 3.70325e-27 0 2.5532e-26 0 1.24129e-25 0 4.70829e-25 0 1.5123e-24 0 4.18029e-24 0 1.02503e-23 0 2.28854e-23 0 4.76012e-23 0 9.41362e-23 0 1.72191e-22 0 3.06152e-22 0 5.22122e-22 0 8.55954e-22 0 1.35149e-21 0 2.08763e-21 0
