# 0.00033497 1 159 : grain size, compostion index, size index
# Heating and cooling timescale: 1.82358e-05 1.43151e+15
# Ratio of heating to cooling to determine stochastic cutoff: 100
# Equilibrium emission is recorded even for those grains in the stochastic regime.
# Emission spectrum was computed for: 
# Type: IRSF
# Scales: 0.25 0.5 1 1.5 2 2.5 3 3.5 4 4.5 5 5.5 6 6.5 7 7.5 8 8.5 9 9.5 10
# StochasticallyHeated: 0 0 0 0 0 0 0 0 0 0 0 0 0 0 0 0 0 0 0 0 0
# Temperature: -1
# Wavelength  CExt  CAbs  CSca  Albedo G EqEm1 StEm1 EqEm2 StEm2 EqEm3 StEm3 EqEm4 StEm4 EqEm5 StEm5 EqEm6 StEm6 EqEm7 StEm7 EqEm8 StEm8 EqEm9 StEm9 EqEm10 StEm10 EqEm11 StEm11 EqEm12 StEm12 EqEm13 StEm13 EqEm14 StEm14 EqEm15 StEm15 EqEm16 StEm16 EqEm17 StEm17 EqEm18 StEm18 EqEm19 StEm19 EqEm20 StEm20 EqEm21 StEm21
0.05 1.80668e-07 8.0395e-08 1.00273e-07 0.555012 0.214663 0 0 0 0 0 0 0 0 0 0 0 0 0 0 0 0 0 0 0 0 0 0 0 0 0 0 0 0 0 0 0 0 0 0 0 0 0 0 0 0 0 0
0.0525665 1.99691e-07 8.88602e-08 1.10831e-07 0.555012 0.237266 0 0 0 0 0 0 0 0 0 0 0 0 0 0 0 0 0 0 0 0 0 0 0 0 0 0 0 0 0 0 0 0 0 0 0 0 0 0 0 0 0 0
0.0552647 2.20718e-07 9.82167e-08 1.22501e-07 0.555012 0.262249 0 0 0 0 0 0 0 0 0 0 0 0 0 0 0 0 0 0 0 0 0 0 0 0 0 0 0 0 0 0 0 0 0 0 0 0 0 0 0 0 0 0
0.0581015 2.43958e-07 1.08558e-07 1.354e-07 0.555012 0.289863 0 0 0 0 0 0 0 0 0 0 0 0 0 0 0 0 0 0 0 0 0 0 0 0 0 0 0 0 0 0 0 0 0 0 0 0 0 0 0 0 0 0
0.0610839 2.69646e-07 1.19989e-07 1.49657e-07 0.555012 0.320384 0 0 0 0 0 0 0 0 0 0 0 0 0 0 0 0 0 0 0 0 0 0 0 0 0 0 0 0 0 0 0 0 0 0 0 0 0 0 0 0 0 0
0.0642193 2.98038e-07 1.32623e-07 1.65415e-07 0.555012 0.354119 0 0 0 0 0 0 0 0 0 0 0 0 0 0 0 0 0 0 0 0 0 0 0 0 0 0 0 0 0 0 0 0 0 0 0 0 0 0 0 0 0 0
0.0675157 3.2942e-07 1.46588e-07 1.82832e-07 0.555012 0.391406 0 0 0 0 0 0 0 0 0 0 0 0 0 0 0 0 0 0 0 0 0 0 0 0 0 0 0 0 0 0 0 0 0 0 0 0 0 0 0 0 0 0
0.0709813 3.64106e-07 1.62023e-07 2.02083e-07 0.555012 0.432619 0 0 0 0 0 0 0 0 0 0 0 0 0 0 0 0 0 0 0 0 0 0 0 0 0 0 0 0 0 0 0 0 0 0 0 0 0 0 0 0 0 0
0.0746248 4.02445e-07 1.79083e-07 2.23362e-07 0.555012 0.478171 0 0 0 0 0 0 0 0 0 0 0 0 0 0 0 0 0 0 0 0 0 0 0 0 0 0 0 0 0 0 0 0 0 0 0 0 0 0 0 0 0 0
0.0784553 4.44821e-07 1.9794e-07 2.46881e-07 0.555012 0.528521 0 0 0 0 0 0 0 0 0 0 0 0 0 0 0 0 0 0 0 0 0 0 0 0 0 0 0 0 0 0 0 0 0 0 0 0 0 0 0 0 0 0
0.0824824 4.91658e-07 2.18782e-07 2.72876e-07 0.555012 0.584171 0 0 0 0 0 0 0 0 0 0 0 0 0 0 0 0 0 0 0 0 0 0 0 0 0 0 0 0 0 0 0 0 0 0 0 0 0 0 0 0 0 0
0.0867162 5.43427e-07 2.41819e-07 3.01609e-07 0.555012 0.645682 0 0 0 0 0 0 0 0 0 0 0 0 0 0 0 0 0 0 0 0 0 0 0 0 0 0 0 0 0 0 0 0 0 0 0 0 0 0 0 0 0 0
0.0911674 6.00648e-07 2.67281e-07 3.33367e-07 0.555012 0.713669 0 0 0 0 0 0 0 0 0 0 0 0 0 0 0 0 0 0 0 0 0 0 0 0 0 0 0 0 0 0 0 0 0 0 0 0 0 0 0 0 0 0
0.095847 6.63893e-07 2.95424e-07 3.68469e-07 0.555012 0.788815 0 0 0 0 0 0 0 0 0 0 0 0 0 0 0 0 0 0 0 0 0 0 0 0 0 0 0 0 0 0 0 0 0 0 0 0 0 0 0 0 0 0
0.100767 7.22749e-07 3.21664e-07 4.01085e-07 0.554943 0.858691 0 0 0 0 0 0 0 0 0 0 0 0 0 0 0 0 0 0 0 0 0 0 0 0 0 0 0 0 0 0 0 0 0 0 0 0 0 0 0 0 0 0
0.105939 7.23273e-07 3.22241e-07 4.01033e-07 0.554469 0.862517 0 0 0 0 0 0 0 0 0 0 0 0 0 0 0 0 0 0 0 0 0 0 0 0 0 0 0 0 0 0 0 0 0 0 0 0 0 0 0 0 0 0
0.111377 7.23814e-07 3.22997e-07 4.00817e-07 0.553757 0.867432 0 0 0 0 0 0 0 0 0 0 0 0 0 0 0 0 0 0 0 0 0 0 0 0 0 0 0 0 0 0 0 0 0 0 0 0 0 0 0 0 0 0
0.117094 7.24341e-07 3.2369e-07 4.0065e-07 0.553124 0.870556 0 0 0 0 0 0 0 0 0 0 0 0 0 0 0 0 0 0 0 0 0 0 0 0 0 0 0 0 0 0 0 0 0 0 0 0 0 0 0 0 0 0
0.123105 7.24876e-07 3.2477e-07 4.00106e-07 0.551965 0.8725 0 0 0 0 0 0 0 0 0 0 0 0 0 0 0 0 0 0 0 0 0 0 0 0 0 0 0 0 0 0 0 0 0 0 0 0 0 0 0 0 0 0
0.129424 7.2539e-07 3.26029e-07 3.99361e-07 0.550547 0.873422 0 0 0 0 0 0 0 0 0 0 0 0 0 0 0 0 0 0 0 0 0 0 0 0 0 0 0 0 0 0 0 0 0 0 0 0 0 0 0 0 0 0
0.136067 7.25938e-07 3.26807e-07 3.99132e-07 0.549815 0.873141 0 0 0 0 0 0 0 0 0 0 0 0 0 0 0 0 0 0 0 0 0 0 0 0 0 0 0 0 0 0 0 0 0 0 0 0 0 0 0 0 0 0
0.143051 7.265e-07 3.28273e-07 3.98227e-07 0.548145 0.870854 0 0 0 0 0 0 0 0 0 0 0 0 0 0 0 0 0 0 0 0 0 0 0 0 0 0 0 0 0 0 0 0 0 0 0 0 0 0 0 0 0 0
0.150394 7.27091e-07 3.30679e-07 3.96412e-07 0.545202 0.872002 0 0 0 0 0 0 0 0 0 0 0 0 0 0 0 0 0 0 0 0 0 0 0 0 0 0 0 0 0 0 0 0 0 0 0 0 0 0 0 0 0 0
0.158114 7.27806e-07 3.33837e-07 3.93969e-07 0.541311 0.878249 0 0 0 0 0 0 0 0 0 0 0 0 0 0 0 0 0 0 0 0 0 0 0 0 0 0 0 0 0 0 0 0 0 0 0 0 0 0 0 0 0 0
0.16623 7.28634e-07 3.37122e-07 3.91512e-07 0.537324 0.885918 0 0 0 0 0 0 0 0 0 0 0 0 0 0 0 0 0 0 0 0 0 0 0 0 0 0 0 0 0 0 0 0 0 0 0 0 0 0 0 0 0 0
0.174762 7.29472e-07 3.40066e-07 3.89406e-07 0.533819 0.892881 0 0 0 0 0 0 0 0 0 0 0 0 0 0 0 0 0 0 0 0 0 0 0 0 0 0 0 0 0 0 0 0 0 0 0 0 0 0 0 0 0 0
0.183733 7.30341e-07 3.40803e-07 3.89538e-07 0.533364 0.899096 0 0 0 0 0 0 0 0 0 0 0 0 0 0 0 0 0 0 0 0 0 0 0 0 0 0 0 0 0 0 0 0 0 0 0 0 0 0 0 0 0 0
0.193164 7.32921e-07 3.31995e-07 4.00926e-07 0.547024 0.90436 0 0 0 0 0 0 0 0 0 0 0 0 0 0 0 0 0 0 0 0 0 0 0 0 0 0 0 0 0 0 0 0 0 0 0 0 0 0 0 0 0 0
0.203079 7.33373e-07 3.33179e-07 4.00195e-07 0.54569 0.908823 0 0 0 0 0 0 0 0 0 0 0 0 0 0 0 0 0 0 0 0 0 0 0 0 0 0 0 0 0 0 0 0 0 0 0 0 0 0 0 0 0 0
0.213503 7.3291e-07 3.37623e-07 3.95287e-07 0.53934 0.91273 0 0 0 0 0 0 0 0 0 0 0 0 0 0 0 0 0 0 0 0 0 0 0 0 0 0 0 0 0 0 0 0 0 0 0 0 0 0 0 0 0 0
0.224463 7.32588e-07 3.40856e-07 3.91732e-07 0.534723 0.915941 0 0 0 0 0 0 0 0 0 0 0 0 0 0 0 0 0 0 0 0 0 0 0 0 0 0 0 0 0 0 0 0 0 0 0 0 0 0 0 0 0 0
0.235984 7.3237e-07 3.44059e-07 3.88311e-07 0.530212 0.918398 0 0 0 0 0 0 0 0 0 0 0 0 0 0 0 0 0 0 0 0 0 0 0 0 0 0 0 0 0 0 0 0 0 0 0 0 0 0 0 0 0 0
0.248097 7.324e-07 3.46805e-07 3.85595e-07 0.526481 0.920259 0 0 0 0 0 0 0 0 0 0 0 0 0 0 0 0 0 0 0 0 0 0 0 0 0 0 0 0 0 0 0 0 0 0 0 0 0 0 0 0 0 0
0.260832 7.32724e-07 3.4904e-07 3.83684e-07 0.523641 0.921682 0 0 0 0 0 0 0 0 0 0 0 0 0 0 0 0 0 0 0 0 0 0 0 0 0 0 0 0 0 0 0 0 0 0 0 0 0 0 0 0 0 0
0.274221 7.33265e-07 3.50822e-07 3.82443e-07 0.521562 0.922824 0 0 0 0 0 0 0 0 0 0 0 0 0 0 0 0 0 0 0 0 0 0 0 0 0 0 0 0 0 0 0 0 0 0 0 0 0 0 0 0 0 0
0.288297 7.33976e-07 3.52238e-07 3.81739e-07 0.520097 0.923775 0 0 0 0 0 0 0 0 0 0 0 0 0 0 0 0 0 0 0 0 0 0 0 0 0 0 0 0 0 0 0 0 0 0 0 0 0 0 0 0 0 0
0.303095 7.34812e-07 3.53425e-07 3.81387e-07 0.519027 0.924514 0 0 0 0 0 0 0 0 0 0 0 0 0 0 0 0 0 0 0 0 0 0 0 0 0 0 0 0 0 0 0 0 0 0 0 0 0 0 0 0 0 0
0.318653 7.35779e-07 3.5443e-07 3.81349e-07 0.518293 0.925099 0 0 0 0 0 0 0 0 0 0 0 0 0 0 0 0 0 0 0 0 0 0 0 0 0 0 0 0 0 0 0 0 0 0 0 0 0 0 0 0 0 0
0.335009 7.36826e-07 3.5532e-07 3.81506e-07 0.51777 0.925573 0 0 0 0 0 0 0 0 0 0 0 0 0 0 0 0 0 0 0 0 0 0 0 0 0 0 0 0 0 0 0 0 0 0 0 0 0 0 0 0 0 0
0.352205 7.3797e-07 3.56146e-07 3.81824e-07 0.517398 0.925896 0 0 0 0 0 0 0 0 0 0 0 0 0 0 0 0 0 0 0 0 0 0 0 0 0 0 0 0 0 0 0 0 0 0 0 0 0 0 0 0 0 0
0.370284 7.39182e-07 3.56919e-07 3.82263e-07 0.517143 0.926015 0 0 0 0 0 0 0 0 0 0 0 0 0 0 0 0 0 0 0 0 0 0 0 0 0 0 0 0 0 0 0 0 0 0 0 0 0 0 0 0 0 0
0.389291 7.40478e-07 3.57686e-07 3.82792e-07 0.516952 0.926203 0 0 0 0 0 0 0 0 0 0 0 0 0 0 0 0 0 0 0 0 0 0 0 0 0 0 0 0 0 0 0 0 0 0 0 0 0 0 0 0 0 0
0.409273 7.41837e-07 3.58431e-07 3.83406e-07 0.516834 0.92615 0 0 0 0 0 0 0 0 0 0 0 0 0 0 0 0 0 0 0 0 0 0 0 0 0 0 0 0 0 0 0 0 0 0 0 0 0 0 0 0 0 0
0.430281 7.43262e-07 3.59192e-07 3.8407e-07 0.516735 0.925718 0 0 0 0 0 0 0 0 0 0 0 0 0 0 0 0 0 0 0 0 0 0 0 0 0 0 0 0 0 0 0 0 0 0 0 0 0 0 0 0 0 0
0.452368 7.44761e-07 3.59962e-07 3.848e-07 0.516675 0.925925 0 0 0 0 0 0 0 0 0 0 0 0 0 0 0 0 0 0 0 0 0 0 0 0 0 0 0 0 0 0 0 0 0 0 0 0 0 0 0 0 0 0
0.475588 7.46353e-07 3.60764e-07 3.85589e-07 0.516631 0.924763 0 0 0 0 0 0 0 0 0 0 0 0 0 0 0 0 0 0 0 0 0 0 0 0 0 0 0 0 0 0 0 0 0 0 0 0 0 0 0 0 0 0
0.5 7.48001e-07 3.61573e-07 3.86428e-07 0.516614 0.925099 0 0 0 0 0 0 0 0 0 0 0 0 0 0 0 0 0 0 0 0 0 0 0 0 0 0 0 0 0 0 0 0 0 0 0 0 0 0 0 0 0 0
0.525665 7.49739e-07 3.62426e-07 3.87313e-07 0.516598 0.923347 0 0 0 0 0 0 0 0 0 0 0 0 0 0 0 0 0 0 0 0 0 0 0 0 0 0 0 0 0 0 0 0 0 0 0 0 0 0 0 0 0 0
0.552648 7.51557e-07 3.63292e-07 3.88266e-07 0.516615 0.923546 0 0 0 0 0 0 0 0 0 0 0 0 0 0 0 0 0 0 0 0 0 0 0 0 0 0 0 0 0 0 0 0 0 0 0 0 0 0 0 0 0 0
0.581015 7.53467e-07 3.64212e-07 3.89254e-07 0.516618 0.921792 0 0 0 0 0 0 0 0 0 0 0 0 0 0 0 0 0 0 0 0 0 0 0 0 0 0 0 0 0 0 0 0 0 0 0 0 0 0 0 0 0 0
0.610839 7.55484e-07 3.65177e-07 3.90307e-07 0.516632 0.920475 0 0 0 0 0 0 0 0 0 0 0 0 0 0 0 0 0 0 0 0 0 0 0 0 0 0 0 0 0 0 0 0 0 0 0 0 0 0 0 0 0 0
0.642193 7.5759e-07 3.66169e-07 3.91421e-07 0.516666 0.92028 0 0 0 0 0 0 0 0 0 0 0 0 0 0 0 0 0 0 0 0 0 0 0 0 0 0 0 0 0 0 0 0 0 0 0 0 0 0 0 0 0 0
0.675157 7.5981e-07 3.67216e-07 3.92594e-07 0.5167 0.917144 0 0 0 0 0 0 0 0 0 0 0 0 0 0 0 0 0 0 0 0 0 0 0 0 0 0 0 0 0 0 0 0 0 0 0 0 0 0 0 0 0 0
0.709813 7.62148e-07 3.68332e-07 3.93817e-07 0.516719 0.915941 0 0 0 0 0 0 0 0 0 0 0 0 0 0 0 0 0 0 0 0 0 0 0 0 0 0 0 0 0 0 0 0 0 0 0 0 0 0 0 0 0 0
0.746248 7.64596e-07 3.69504e-07 3.95091e-07 0.516732 0.914909 0 0 0 0 0 0 0 0 0 0 0 0 0 0 0 0 0 0 0 0 0 0 0 0 0 0 0 0 0 0 0 0 0 0 0 0 0 0 0 0 0 0
0.784553 7.67191e-07 3.70748e-07 3.96442e-07 0.516746 0.911299 0 0 0 0 0 0 0 0 0 0 0 0 0 0 0 0 0 0 0 0 0 0 0 0 0 0 0 0 0 0 0 0 0 0 0 0 0 0 0 0 0 0
0.824824 7.69918e-07 3.72057e-07 3.97861e-07 0.516757 0.909078 0 0 0 0 0 0 0 0 0 0 0 0 0 0 0 0 0 0 0 0 0 0 0 0 0 0 0 0 0 0 0 0 0 0 0 0 0 0 0 0 0 0
0.867162 7.72769e-07 3.73428e-07 3.99341e-07 0.516767 0.907652 0 0 0 0 0 0 0 0 0 0 0 0 0 0 0 0 0 0 0 0 0 0 0 0 0 0 0 0 0 0 0 0 0 0 0 0 0 0 0 0 0 0
0.911674 7.75782e-07 3.74896e-07 4.00886e-07 0.516751 0.904681 0 0 0 0 0 0 0 0 0 0 0 0 0 0 0 0 0 0 0 0 0 0 0 0 0 0 0 0 0 0 0 0 0 0 0 0 0 0 0 0 0 0
0.95847 7.78977e-07 3.76483e-07 4.02494e-07 0.516696 0.90102 0 0 0 0 0 0 0 0 0 0 0 0 0 0 0 0 0 0 0 0 0 0 0 0 0 0 0 0 0 0 0 0 0 0 0 0 0 0 0 0 0 0
1.00767 7.82337e-07 3.78188e-07 4.0415e-07 0.516593 0.895981 0 0 0 0 0 0 0 0 0 0 0 0 0 0 0 0 0 0 0 0 0 0 0 0 0 0 0 0 0 0 0 0 0 0 0 0 0 0 0 0 0 0
1.05939 7.86528e-07 3.80863e-07 4.05665e-07 0.515767 0.89163 0 0 0 0 0 0 0 0 0 0 0 0 0 0 0 0 0 0 0 0 0 0 0 0 0 0 0 0 0 0 0 0 0 0 0 0 0 0 0 0 0 0
1.11377 7.91063e-07 3.83741e-07 4.07323e-07 0.514905 0.888144 0 0 0 0 0 0 0 0 0 0 0 0 0 0 0 0 0 0 0 0 0 0 0 0 0 0 0 0 0 0 0 0 0 0 0 0 0 0 0 0 0 0
1.17094 7.95938e-07 3.86797e-07 4.09141e-07 0.514037 0.886724 0 0 0 0 0 0 0 0 0 0 0 0 0 0 0 0 0 0 0 0 0 0 0 0 0 0 0 0 0 0 0 0 0 0 0 0 0 0 0 0 0 0
1.23105 8.01134e-07 3.89978e-07 4.11155e-07 0.513217 0.884674 0 0 0 0 0 0 0 0 0 0 0 0 0 0 0 0 0 0 0 0 0 0 0 0 0 0 0 0 0 0 0 0 0 0 0 0 0 0 0 0 0 0
1.29424 8.06688e-07 3.93105e-07 4.13582e-07 0.512692 0.878552 0 0 0 0 0 0 0 0 0 0 0 0 0 0 0 0 0 0 0 0 0 0 0 0 0 0 0 0 0 0 0 0 0 0 0 0 0 0 0 0 0 0
1.36067 8.13376e-07 3.95966e-07 4.1741e-07 0.513182 0.870317 0 0 0 0 0 0 0 0 0 0 0 0 0 0 0 0 0 0 0 0 0 0 0 0 0 0 0 0 0 0 0 0 0 0 0 0 0 0 0 0 0 0
1.43051 8.26965e-07 3.99091e-07 4.27874e-07 0.517403 0.863406 0 0 0 0 0 0 0 0 0 0 0 0 0 0 0 0 0 0 0 0 0 0 0 0 0 0 0 0 0 0 0 0 0 0 0 0 0 0 0 0 0 0
1.50394 8.43209e-07 4.02102e-07 4.41107e-07 0.523129 0.859588 0 0 0 0 0 0 0 0 0 0 0 0 0 0 0 0 0 0 0 0 0 0 0 0 0 0 0 0 0 0 0 0 0 0 0 0 0 0 0 0 0 0
1.58114 8.55024e-07 4.05611e-07 4.49413e-07 0.525614 0.859141 0 0 0 0 0 0 0 0 0 0 0 0 0 0 0 0 0 0 0 0 0 0 0 0 0 0 0 0 0 0 0 0 0 0 0 0 0 0 0 0 0 0
1.6623 8.5853e-07 4.08935e-07 4.49596e-07 0.523681 0.855688 0 0 0 0 0 0 0 0 0 0 0 0 0 0 0 0 0 0 0 0 0 0 0 0 0 0 0 0 0 0 0 0 0 0 0 0 0 0 0 0 0 0
1.74763 8.55457e-07 4.12854e-07 4.42603e-07 0.517388 0.844483 0 0 0 0 0 0 0 0 0 0 0 0 0 0 0 0 0 0 0 0 0 0 0 0 0 0 0 0 0 0 0 0 0 0 0 0 0 0 0 0 0 0
1.83733 8.50881e-07 4.16731e-07 4.3415e-07 0.510236 0.830689 0 0 0 0 0 0 0 0 0 0 0 0 0 0 0 0 0 0 0 0 0 0 0 0 0 0 0 0 0 0 0 0 0 0 0 0 0 0 0 0 0 0
1.93164 8.49665e-07 4.21317e-07 4.28348e-07 0.504138 0.813626 0 0 0 0 0 0 0 0 0 0 0 0 0 0 0 0 0 0 0 0 0 0 0 0 0 0 0 0 0 0 0 0 0 0 0 0 0 0 0 0 0 0
2.03079 8.53556e-07 4.25544e-07 4.28011e-07 0.501445 0.808401 0 0 0 0 0 0 0 0 0 0 0 0 0 0 0 0 0 0 0 0 0 0 0 0 0 0 0 0 0 0 0 0 0 0 0 0 0 0 0 0 0 0
2.13503 8.61958e-07 4.30418e-07 4.3154e-07 0.500651 0.809504 0 0 0 0 0 0 0 0 0 0 0 0 0 0 0 0 0 0 0 0 0 0 0 0 0 0 0 0 0 0 0 0 0 0 0 0 0 0 0 0 0 0
2.24463 8.71282e-07 4.35351e-07 4.35931e-07 0.500333 0.82305 0 0 0 0 0 0 0 0 0 0 0 0 0 0 0 0 0 0 0 0 0 0 0 0 0 0 0 0 0 0 0 0 0 0 0 0 0 0 0 0 0 0
2.35984 8.78607e-07 4.39513e-07 4.39094e-07 0.499762 0.832196 0 0 0 0 0 0 0 0 0 0 0 0 0 0 0 0 0 0 0 0 0 0 0 0 0 0 0 0 0 0 0 0 0 0 0 0 0 0 0 0 0 0
2.48097 8.83459e-07 4.44293e-07 4.39166e-07 0.497098 0.847569 0 0 0 0 0 0 0 0 0 0 0 0 0 0 0 0 0 0 0 0 0 0 0 0 0 0 0 0 0 0 0 0 0 0 0 0 0 0 0 0 0 0
2.60832 8.85545e-07 4.48765e-07 4.3678e-07 0.493233 0.837134 0 0 0 0 0 0 0 0 0 0 0 0 0 0 0 0 0 0 0 0 0 0 0 0 0 0 0 0 0 0 0 0 0 0 0 0 0 0 0 0 0 0
2.74221 8.8692e-07 4.52672e-07 4.34248e-07 0.489613 0.837507 0 0 0 0 0 0 0 0 0 0 0 0 0 0 0 0 0 0 0 0 0 0 0 0 0 0 0 0 0 0 0 0 0 0 0 0 0 0 0 0 0 0
2.88297 8.89043e-07 4.5749e-07 4.31553e-07 0.485413 0.797461 0 0 0 0 0 0 0 0 0 0 0 0 0 0 0 0 0 0 0 0 0 0 0 0 0 0 0 0 0 0 0 0 0 0 0 0 0 0 0 0 0 0
3.03095 8.93722e-07 4.61485e-07 4.32237e-07 0.483637 0.769216 0 0 0 0 0 0 0 0 0 0 0 0 0 0 0 0 0 0 0 0 0 0 0 0 0 0 0 0 0 0 0 0 0 0 0 0 0 0 0 0 0 0
3.18653 9.01656e-07 4.65591e-07 4.36065e-07 0.483627 0.7123 0 0 0 0 0 0 0 0 0 0 0 0 0 0 0 0 0 0 0 0 0 0 0 0 0 0 0 0 0 0 0 0 0 0 0 0 0 0 0 0 0 0
3.35009 9.12767e-07 4.68938e-07 4.43829e-07 0.486246 0.646439 0 0 0 0 0 0 0 0 0 0 0 0 0 0 0 0 0 0 0 0 0 0 0 0 0 0 0 0 0 0 0 0 0 0 0 0 0 0 0 0 0 0
3.52205 9.21709e-07 4.74444e-07 4.47265e-07 0.485256 0.617769 0 0 0 0 0 0 0 0 0 0 0 0 0 0 0 0 0 0 0 0 0 0 0 0 0 0 0 0 0 0 0 0 0 0 0 0 0 0 0 0 0 0
3.70284 9.37116e-07 4.7514e-07 4.61976e-07 0.492976 0.571078 0 0 0 0 0 0 0 0 0 0 0 0 0 0 0 0 0 0 0 0 0 0 0 0 0 0 0 0 0 0 0 0 0 0 0 0 0 0 0 0 0 0
3.89291 9.56142e-07 4.76128e-07 4.80014e-07 0.502032 0.579792 0 0 0 0 0 0 0 0 0 0 0 0 0 0 0 0 0 0 0 0 0 0 0 0 0 0 0 0 0 0 0 0 0 0 0 0 0 0 0 0 0 0
4.09273 9.78959e-07 4.78543e-07 5.00415e-07 0.511171 0.605156 0 0 0 0 0 0 0 0 0 0 0 0 0 0 0 0 0 0 0 0 0 0 0 0 0 0 0 0 0 0 0 0 0 0 0 0 0 0 0 0 0 0
4.30281 9.99586e-07 4.80516e-07 5.1907e-07 0.519285 0.623266 0 0 0 0 0 0 0 0 0 0 0 0 0 0 0 0 0 0 0 0 0 0 0 0 0 0 0 0 0 0 0 0 0 0 0 0 0 0 0 0 0 0
4.52368 1.01881e-06 4.82067e-07 5.36743e-07 0.526833 0.669453 0 0 0 0 0 0 0 0 0 0 0 0 0 0 0 0 0 0 0 0 0 0 0 0 0 0 0 0 0 0 0 0 0 0 0 0 0 0 0 0 0 0
4.75588 1.03633e-06 4.84299e-07 5.5203e-07 0.532678 0.695287 0 0 0 0 0 0 0 0 0 0 0 0 0 0 0 0 0 0 0 0 0 0 0 0 0 0 0 0 0 0 0 0 0 0 0 0 0 0 0 0 0 0
5 1.04899e-06 4.86414e-07 5.62581e-07 0.536305 0.71762 0 0 0 0 0 0 0 0 0 0 0 0 0 0 0 0 0 0 0 0 0 0 0 0 0 0 0 0 0 0 0 0 0 0 0 0 0 0 0 0 0 0
5.25665 1.0565e-06 4.87817e-07 5.68678e-07 0.538269 0.739919 0 0 0 0 0 0 0 0 0 0 0 0 0 0 0 0 0 0 0 0 0 0 0 0 0 0 0 0 0 0 0 0 0 0 0 0 0 0 0 0 0 0
5.52648 1.05967e-06 4.88628e-07 5.71046e-07 0.538888 0.75589 0 0 0 0 0 0 0 0 0 0 0 0 0 0 0 0 0 0 0 0 0 0 0 0 0 0 0 0 0 0 0 0 0 0 0 0 0 0 0 0 0 0
5.81015 1.0592e-06 4.89392e-07 5.69812e-07 0.537962 0.768116 0 0 0 0 0 0 0 0 0 0 0 0 0 0 0 0 0 0 0 0 0 0 0 0 0 0 0 0 0 0 0 0 0 0 0 0 0 0 0 0 0 0
6.10839 1.05458e-06 4.90535e-07 5.64042e-07 0.534851 0.773539 0 0 0 0 0 0 0 0 0 0 0 0 0 0 0 0 0 0 0 0 0 0 0 0 0 0 0 0 0 0 0 0 0 0 0 0 0 0 0 0 0 0
6.42193 1.04451e-06 4.91056e-07 5.53454e-07 0.529869 0.775751 0 0 0 0 0 0 0 0 0 0 0 0 0 0 0 0 0 0 0 0 0 0 0 0 0 0 0 0 0 0 0 0 0 0 0 0 0 0 0 0 0 0
6.75157 1.02557e-06 4.89291e-07 5.36276e-07 0.522907 0.779957 0 0 0 0 0 0 0 0 0 0 0 0 0 0 0 0 0 0 0 0 0 0 0 0 0 0 0 0 0 0 0 0 0 0 0 0 0 0 0 0 0 0
7.09813 1.00359e-06 4.85402e-07 5.18188e-07 0.516334 0.785459 0 0 0 0 0 0 0 0 0 0 0 0 0 0 0 0 0 0 0 0 0 0 0 0 0 0 0 0 0 0 0 0 0 0 0 0 0 0 0 0 0 0
7.46248 9.68684e-07 4.79187e-07 4.89497e-07 0.505322 0.782139 0 0 0 0 0 0 0 0 0 0 0 0 0 0 0 0 0 0 0 0 0 0 0 0 0 0 0 0 0 0 0 0 0 0 0 0 0 0 0 0 0 0
7.84553 9.12108e-07 4.69316e-07 4.42792e-07 0.48546 0.777376 0 0 0 0 0 0 0 0 0 0 0 0 0 0 0 0 0 0 0 0 0 0 0 0 0 0 0 0 0 0 0 0 0 0 1.4013e-45 0 4.2039e-45 0 1.12104e-44 0 2.66247e-44 0
8.24824 8.15715e-07 4.64405e-07 3.5131e-07 0.430677 0.764291 0 0 0 0 0 0 0 0 0 0 0 0 0 0 0 0 0 0 0 0 0 0 0 0 0 0 1.4013e-45 0 8.40779e-45 0 2.8026e-44 0 8.82818e-44 0 2.56438e-43 0 7.10458e-43 0 1.85672e-42 0 4.43791e-42 0
8.67162 7.66799e-07 4.7491e-07 2.9189e-07 0.38066 0.735569 0 0 0 0 0 0 0 0 0 0 0 0 0 0 0 0 0 0 0 0 2.8026e-45 0 1.96182e-44 0 9.3887e-44 0 3.90962e-43 0 1.41671e-42 0 4.79244e-42 0 1.41167e-41 0 3.92336e-41 0 1.03155e-40 0 2.57248e-40 0 5.89369e-40 0
9.11674 7.86794e-07 5.02549e-07 2.84245e-07 0.36127 0.697081 0 0 0 0 0 0 0 0 0 0 0 0 0 0 1.4013e-45 0 1.26117e-44 0 1.00893e-43 0 6.5861e-43 0 3.44019e-42 0 1.55082e-41 0 5.98523e-41 0 2.03554e-40 0 6.48791e-40 0 1.81305e-39 0 4.79354e-39 0 1.20224e-38 0 2.8673e-38 0 6.30857e-38 0
9.5847 8.74967e-07 5.36474e-07 3.38494e-07 0.386864 0.667022 0 0 0 0 0 0 0 0 0 0 0 0 1.26117e-44 0 2.08793e-43 0 2.20144e-42 0 1.65073e-41 0 9.82282e-41 0 4.73069e-40 0 1.98122e-39 0 7.1584e-39 0 2.29332e-38 0 6.90733e-38 0 1.8358e-37 0 4.62866e-37 0 1.10992e-36 0 2.53714e-36 0 5.37134e-36 0
10.0767 9.49177e-07 5.58169e-07 3.91008e-07 0.411944 0.645698 0 0 0 0 0 0 0 0 1.4013e-45 0 8.96831e-44 0 2.23647e-42 0 3.17184e-41 0 2.98744e-40 0 2.03078e-39 0 1.10763e-38 0 4.94026e-38 0 1.92925e-37 0 6.54689e-37 0 1.98151e-36 0 5.65539e-36 0 1.43302e-35 0 3.4536e-35 0 7.93532e-35 0 1.74215e-34 0 3.55565e-34 0
10.5939 9.91031e-07 5.69602e-07 4.21429e-07 0.425243 0.623234 0 0 0 0 0 0 1.4013e-45 0 2.77457e-43 0 1.38743e-41 0 2.94416e-40 0 3.66902e-39 0 3.09736e-38 0 1.91741e-37 0 9.62675e-37 0 3.99144e-36 0 1.45842e-35 0 4.66252e-35 0 1.3369e-34 0 3.62516e-34 0 8.77813e-34 0 2.02661e-33 0 4.47119e-33 0 9.44649e-33 0 1.86199e-32 0
11.1377 1.02069e-06 5.77274e-07 4.43412e-07 0.434425 0.606795 0 0 0 0 0 0 2.64845e-43 0 3.96806e-41 0 1.64106e-39 0 2.99979e-38 0 3.30514e-37 0 2.51419e-36 0 1.42386e-35 0 6.60719e-35 0 2.55571e-34 0 8.76573e-34 0 2.64778e-33 0 7.2115e-33 0 1.86252e-32 0 4.3194e-32 0 9.57308e-32 0 2.03201e-31 0 4.13916e-31 0 7.89278e-31 0
11.7094 1.03989e-06 5.79221e-07 4.60666e-07 0.442996 0.587473 0 0 0 0 2.94273e-44 0 3.71961e-41 0 4.36347e-39 0 1.50471e-37 0 2.38674e-36 0 2.33897e-35 0 1.61142e-34 0 8.38513e-34 0 3.61007e-33 0 1.30715e-32 0 4.22152e-32 0 1.20816e-31 0 3.13343e-31 0 7.72641e-31 0 1.71974e-30 0 3.6662e-30 0 7.5012e-30 0 1.47581e-29 0 2.72686e-29 0
12.3105 1.04237e-06 5.69286e-07 4.73081e-07 0.453853 0.564397 0 0 0 0 4.47014e-42 0 3.97107e-39 0 3.69159e-37 0 1.07094e-35 0 1.48426e-34 0 1.30116e-33 0 8.15818e-33 0 3.91671e-32 0 1.57026e-31 0 5.33949e-31 0 1.62849e-30 0 4.42734e-30 0 1.09605e-29 0 2.58614e-29 0 5.5357e-29 0 1.1373e-28 0 2.24703e-28 0 4.2772e-28 0 7.66961e-28 0
12.9424 9.97848e-07 5.50465e-07 4.47383e-07 0.448348 0.537219 0 0 2.8026e-45 0 5.14005e-40 0 3.2774e-37 0 2.44194e-35 0 6.01003e-34 0 7.32618e-33 0 5.77654e-32 0 3.31134e-31 0 1.47254e-30 0 5.51664e-30 0 1.76706e-29 0 5.10376e-29 0 1.32142e-28 0 3.12975e-28 0 7.08152e-28 0 1.46053e-27 0 2.89697e-27 0 5.53655e-27 0 1.02127e-26 0 1.77981e-26 0
13.6067 9.542e-07 5.40626e-07 4.13574e-07 0.433425 0.51439 0 0 4.47014e-43 0 4.69556e-38 0 2.18433e-35 0 1.31861e-33 0 2.77547e-32 0 2.99443e-31 0 2.13462e-30 0 1.12365e-29 0 4.64572e-29 0 1.63176e-28 0 4.93795e-28 0 1.35424e-27 0 3.34715e-27 0 7.60082e-27 0 1.65259e-26 0 3.29001e-26 0 6.31117e-26 0 1.16862e-25 0 2.09214e-25 0 3.5485e-25 0
14.3051 9.04433e-07 5.32109e-07 3.72324e-07 0.411666 0.507017 0 0 5.69263e-41 0 3.40348e-36 0 1.17303e-33 0 5.79645e-32 0 1.05142e-30 0 1.01e-29 0 6.54154e-29 0 3.17522e-28 0 1.2249e-27 0 4.04635e-27 0 1.16005e-26 0 3.02853e-26 0 7.16185e-26 0 1.5625e-25 0 3.27081e-25 0 6.29634e-25 0 1.17e-24 0 2.10226e-24 0 3.65812e-24 0 6.04655e-24 0
15.0394 8.54214e-07 5.27475e-07 3.26739e-07 0.382503 0.476998 3.92364e-44 0 5.69361e-39 0 1.9897e-34 0 5.15573e-32 0 2.10592e-30 0 3.31593e-29 0 2.85219e-28 0 1.68625e-27 0 7.57737e-27 0 2.73664e-26 0 8.52792e-26 0 2.32232e-25 0 5.78539e-25 0 1.31182e-24 0 2.75504e-24 0 5.56287e-24 0 1.03716e-23 0 1.86985e-23 0 3.26497e-23 0 5.52974e-23 0 8.91865e-23 0
