# 0.000111472 1 77 : grain size, compostion index, size index
# Heating and cooling timescale: 0.000301739 3.3981e+09
# Ratio of heating to cooling to determine stochastic cutoff: 100
# Equilibrium emission is recorded even for those grains in the stochastic regime.
# Emission spectrum was computed for: 
# Type: ISRF
# Scales: 0.25 0.5 1 1.5 2 2.5 3 3.5 4 4.5 5 5.5 6 6.5 7 7.5 8 8.5 9 9.5 10
# StochasticallyHeated: 0 0 0 0 0 0 0 0 0 0 0 0 0 0 0 0 0 0 0 0 0
# Temperature: -1
# Wavelength  CExt  CAbs  CSca  Albedo G EqEm1 StEm1 EqEm2 StEm2 EqEm3 StEm3 EqEm4 StEm4 EqEm5 StEm5 EqEm6 StEm6 EqEm7 StEm7 EqEm8 StEm8 EqEm9 StEm9 EqEm10 StEm10 EqEm11 StEm11 EqEm12 StEm12 EqEm13 StEm13 EqEm14 StEm14 EqEm15 StEm15 EqEm16 StEm16 EqEm17 StEm17 EqEm18 StEm18 EqEm19 StEm19 EqEm20 StEm20 EqEm21 StEm21
0.05 8.01981e-08 3.38515e-08 4.63466e-08 0.577901 0.932428 0 0 0 0 0 0 0 0 0 0 0 0 0 0 0 0 0 0 0 0 0 0 0 0 0 0 0 0 0 0 0 0 0 0 0 0 0 0 0 0 0 0
0.0525665 8.03154e-08 3.36119e-08 4.67035e-08 0.581501 0.926766 0 0 0 0 0 0 0 0 0 0 0 0 0 0 0 0 0 0 0 0 0 0 0 0 0 0 0 0 0 0 0 0 0 0 0 0 0 0 0 0 0 0
0.0552647 8.04458e-08 3.31733e-08 4.72726e-08 0.587632 0.91814 0 0 0 0 0 0 0 0 0 0 0 0 0 0 0 0 0 0 0 0 0 0 0 0 0 0 0 0 0 0 0 0 0 0 0 0 0 0 0 0 0 0
0.0581015 8.06147e-08 3.24962e-08 4.81185e-08 0.596895 0.904765 0 0 0 0 0 0 0 0 0 0 0 0 0 0 0 0 0 0 0 0 0 0 0 0 0 0 0 0 0 0 0 0 0 0 0 0 0 0 0 0 0 0
0.0610839 8.08249e-08 3.18486e-08 4.89764e-08 0.605956 0.889787 0 0 0 0 0 0 0 0 0 0 0 0 0 0 0 0 0 0 0 0 0 0 0 0 0 0 0 0 0 0 0 0 0 0 0 0 0 0 0 0 0 0
0.0642193 8.10522e-08 3.14544e-08 4.95979e-08 0.611925 0.877614 0 0 0 0 0 0 0 0 0 0 0 0 0 0 0 0 0 0 0 0 0 0 0 0 0 0 0 0 0 0 0 0 0 0 0 0 0 0 0 0 0 0
0.0675157 8.12843e-08 3.13049e-08 4.99793e-08 0.614871 0.869028 0 0 0 0 0 0 0 0 0 0 0 0 0 0 0 0 0 0 0 0 0 0 0 0 0 0 0 0 0 0 0 0 0 0 0 0 0 0 0 0 0 0
0.0709813 8.15164e-08 3.13534e-08 5.0163e-08 0.615373 0.863606 0 0 0 0 0 0 0 0 0 0 0 0 0 0 0 0 0 0 0 0 0 0 0 0 0 0 0 0 0 0 0 0 0 0 0 0 0 0 0 0 0 0
0.0746248 8.17439e-08 3.15646e-08 5.01792e-08 0.613859 0.860945 0 0 0 0 0 0 0 0 0 0 0 0 0 0 0 0 0 0 0 0 0 0 0 0 0 0 0 0 0 0 0 0 0 0 0 0 0 0 0 0 0 0
0.0784553 8.19537e-08 3.1952e-08 5.00017e-08 0.610121 0.86151 0 0 0 0 0 0 0 0 0 0 0 0 0 0 0 0 0 0 0 0 0 0 0 0 0 0 0 0 0 0 0 0 0 0 0 0 0 0 0 0 0 0
0.0824824 8.21251e-08 3.25764e-08 4.95487e-08 0.603332 0.866763 0 0 0 0 0 0 0 0 0 0 0 0 0 0 0 0 0 0 0 0 0 0 0 0 0 0 0 0 0 0 0 0 0 0 0 0 0 0 0 0 0 0
0.0867162 8.22542e-08 3.28665e-08 4.93878e-08 0.600428 0.86958 0 0 0 0 0 0 0 0 0 0 0 0 0 0 0 0 0 0 0 0 0 0 0 0 0 0 0 0 0 0 0 0 0 0 0 0 0 0 0 0 0 0
0.0911674 8.24682e-08 3.27184e-08 4.97498e-08 0.60326 0.863274 0 0 0 0 0 0 0 0 0 0 0 0 0 0 0 0 0 0 0 0 0 0 0 0 0 0 0 0 0 0 0 0 0 0 0 0 0 0 0 0 0 0
0.095847 8.26886e-08 3.28495e-08 4.98391e-08 0.602733 0.860008 0 0 0 0 0 0 0 0 0 0 0 0 0 0 0 0 0 0 0 0 0 0 0 0 0 0 0 0 0 0 0 0 0 0 0 0 0 0 0 0 0 0
0.100767 8.2872e-08 3.30953e-08 4.97767e-08 0.600646 0.859429 0 0 0 0 0 0 0 0 0 0 0 0 0 0 0 0 0 0 0 0 0 0 0 0 0 0 0 0 0 0 0 0 0 0 0 0 0 0 0 0 0 0
0.105939 8.30075e-08 3.35439e-08 4.94636e-08 0.595893 0.863026 0 0 0 0 0 0 0 0 0 0 0 0 0 0 0 0 0 0 0 0 0 0 0 0 0 0 0 0 0 0 0 0 0 0 0 0 0 0 0 0 0 0
0.111377 8.31271e-08 3.39812e-08 4.91459e-08 0.591214 0.867747 0 0 0 0 0 0 0 0 0 0 0 0 0 0 0 0 0 0 0 0 0 0 0 0 0 0 0 0 0 0 0 0 0 0 0 0 0 0 0 0 0 0
0.117094 8.32603e-08 3.43068e-08 4.89535e-08 0.587957 0.870651 0 0 0 0 0 0 0 0 0 0 0 0 0 0 0 0 0 0 0 0 0 0 0 0 0 0 0 0 0 0 0 0 0 0 0 0 0 0 0 0 0 0
0.123105 8.34031e-08 3.45672e-08 4.88359e-08 0.58554 0.872418 0 0 0 0 0 0 0 0 0 0 0 0 0 0 0 0 0 0 0 0 0 0 0 0 0 0 0 0 0 0 0 0 0 0 0 0 0 0 0 0 0 0
0.129424 8.35543e-08 3.47745e-08 4.87798e-08 0.583809 0.873184 0 0 0 0 0 0 0 0 0 0 0 0 0 0 0 0 0 0 0 0 0 0 0 0 0 0 0 0 0 0 0 0 0 0 0 0 0 0 0 0 0 0
0.136067 8.37121e-08 3.49222e-08 4.87899e-08 0.582829 0.872763 0 0 0 0 0 0 0 0 0 0 0 0 0 0 0 0 0 0 0 0 0 0 0 0 0 0 0 0 0 0 0 0 0 0 0 0 0 0 0 0 0 0
0.143051 8.38724e-08 3.49715e-08 4.89009e-08 0.583039 0.870297 0 0 0 0 0 0 0 0 0 0 0 0 0 0 0 0 0 0 0 0 0 0 0 0 0 0 0 0 0 0 0 0 0 0 0 0 0 0 0 0 0 0
0.150394 8.39912e-08 3.51864e-08 4.88048e-08 0.58107 0.871195 0 0 0 0 0 0 0 0 0 0 0 0 0 0 0 0 0 0 0 0 0 0 0 0 0 0 0 0 0 0 0 0 0 0 0 0 0 0 0 0 0 0
0.158114 8.4112e-08 3.56392e-08 4.84728e-08 0.576288 0.877145 0 0 0 0 0 0 0 0 0 0 0 0 0 0 0 0 0 0 0 0 0 0 0 0 0 0 0 0 0 0 0 0 0 0 0 0 0 0 0 0 0 0
0.16623 8.42712e-08 3.61639e-08 4.81073e-08 0.570863 0.884475 0 0 0 0 0 0 0 0 0 0 0 0 0 0 0 0 0 0 0 0 0 0 0 0 0 0 0 0 0 0 0 0 0 0 0 0 0 0 0 0 0 0
0.174762 8.44634e-08 3.66672e-08 4.77963e-08 0.565881 0.891124 0 0 0 0 0 0 0 0 0 0 0 0 0 0 0 0 0 0 0 0 0 0 0 0 0 0 0 0 0 0 0 0 0 0 0 0 0 0 0 0 0 0
0.183733 8.46784e-08 3.71473e-08 4.75311e-08 0.561313 0.897045 0 0 0 0 0 0 0 0 0 0 0 0 0 0 0 0 0 0 0 0 0 0 0 0 0 0 0 0 0 0 0 0 0 0 0 0 0 0 0 0 0 0
0.193164 8.49083e-08 3.75838e-08 4.73245e-08 0.55736 0.901924 0 0 0 0 0 0 0 0 0 0 0 0 0 0 0 0 0 0 0 0 0 0 0 0 0 0 0 0 0 0 0 0 0 0 0 0 0 0 0 0 0 0
0.203079 8.52182e-08 3.78638e-08 4.73544e-08 0.555684 0.905088 0 0 0 0 0 0 0 0 0 0 0 0 0 0 0 0 0 0 0 0 0 0 0 0 0 0 0 0 0 0 0 0 0 0 0 0 0 0 0 0 0 0
0.213503 8.58661e-08 3.77384e-08 4.81277e-08 0.560497 0.905277 0 0 0 0 0 0 0 0 0 0 0 0 0 0 0 0 0 0 0 0 0 0 0 0 0 0 0 0 0 0 0 0 0 0 0 0 0 0 0 0 0 0
0.224463 8.53902e-08 3.7379e-08 4.80113e-08 0.562257 0.901675 0 0 0 0 0 0 0 0 0 0 0 0 0 0 0 0 0 0 0 0 0 0 0 0 0 0 0 0 0 0 0 0 0 0 0 0 0 0 0 0 0 0
0.235984 8.5552e-08 3.73558e-08 4.81962e-08 0.563355 0.900886 0 0 0 0 0 0 0 0 0 0 0 0 0 0 0 0 0 0 0 0 0 0 0 0 0 0 0 0 0 0 0 0 0 0 0 0 0 0 0 0 0 0
0.248097 8.66568e-08 3.75497e-08 4.91071e-08 0.566685 0.903311 0 0 0 0 0 0 0 0 0 0 0 0 0 0 0 0 0 0 0 0 0 0 0 0 0 0 0 0 0 0 0 0 0 0 0 0 0 0 0 0 0 0
0.260832 8.62798e-08 3.77007e-08 4.85791e-08 0.563042 0.901577 0 0 0 0 0 0 0 0 0 0 0 0 0 0 0 0 0 0 0 0 0 0 0 0 0 0 0 0 0 0 0 0 0 0 0 0 0 0 0 0 0 0
0.274221 8.6064e-08 3.76015e-08 4.84625e-08 0.563098 0.898651 0 0 0 0 0 0 0 0 0 0 0 0 0 0 0 0 0 0 0 0 0 0 0 0 0 0 0 0 0 0 0 0 0 0 0 0 0 0 0 0 0 0
0.288297 8.86298e-08 3.76014e-08 5.10284e-08 0.575747 0.901758 0 0 0 0 0 0 0 0 0 0 0 0 0 0 0 0 0 0 0 0 0 0 0 0 0 0 0 0 0 0 0 0 0 0 0 0 0 0 0 0 0 0
0.303095 8.59621e-08 3.7606e-08 4.83561e-08 0.562528 0.894091 0 0 0 0 0 0 0 0 0 0 0 0 0 0 0 0 0 0 0 0 0 0 0 0 0 0 0 0 0 0 0 0 0 0 0 0 0 0 0 0 0 0
0.318653 8.70552e-08 3.76219e-08 4.94333e-08 0.567839 0.893336 0 0 0 0 0 0 0 0 0 0 0 0 0 0 0 0 0 0 0 0 0 0 0 0 0 0 0 0 0 0 0 0 0 0 0 0 0 0 0 0 0 0
0.335009 9.04316e-08 3.73619e-08 5.30697e-08 0.586849 0.896898 0 0 0 0 0 0 0 0 0 0 0 0 0 0 0 0 0 0 0 0 0 0 0 0 0 0 0 0 0 0 0 0 0 0 0 0 0 0 0 0 0 0
0.352205 8.84974e-08 3.73513e-08 5.11461e-08 0.577939 0.888014 0 0 0 0 0 0 0 0 0 0 0 0 0 0 0 0 0 0 0 0 0 0 0 0 0 0 0 0 0 0 0 0 0 0 0 0 0 0 0 0 0 0
0.370284 8.56418e-08 3.69691e-08 4.86728e-08 0.568329 0.875904 0 0 0 0 0 0 0 0 0 0 0 0 0 0 0 0 0 0 0 0 0 0 0 0 0 0 0 0 0 0 0 0 0 0 0 0 0 0 0 0 0 0
0.389291 8.86059e-08 3.70388e-08 5.15672e-08 0.581983 0.878755 0 0 0 0 0 0 0 0 0 0 0 0 0 0 0 0 0 0 0 0 0 0 0 0 0 0 0 0 0 0 0 0 0 0 0 0 0 0 0 0 0 0
0.409273 9.26915e-08 3.66675e-08 5.60239e-08 0.604413 0.884623 0 0 0 0 0 0 0 0 0 0 0 0 0 0 0 0 0 0 0 0 0 0 0 0 0 0 0 0 0 0 0 0 0 0 0 0 0 0 0 0 0 0
0.430281 9.2564e-08 3.63671e-08 5.61969e-08 0.607114 0.880944 0 0 0 0 0 0 0 0 0 0 0 0 0 0 0 0 0 0 0 0 0 0 0 0 0 0 0 0 0 0 0 0 0 0 0 0 0 0 0 0 0 0
0.452368 8.84397e-08 3.61345e-08 5.23052e-08 0.591422 0.866496 0 0 0 0 0 0 0 0 0 0 0 0 0 0 0 0 0 0 0 0 0 0 0 0 0 0 0 0 0 0 0 0 0 0 0 0 0 0 0 0 0 0
0.475588 8.59945e-08 3.59639e-08 5.00306e-08 0.581788 0.851033 0 0 0 0 0 0 0 0 0 0 0 0 0 0 0 0 0 0 0 0 0 0 0 0 0 0 0 0 0 0 0 0 0 0 0 0 0 0 0 0 0 0
0.5 8.84611e-08 3.56527e-08 5.28083e-08 0.596967 0.846688 0 0 0 0 0 0 0 0 0 0 0 0 0 0 0 0 0 0 0 0 0 0 0 0 0 0 0 0 0 0 0 0 0 0 0 0 0 0 0 0 0 0
0.525665 9.41638e-08 3.51209e-08 5.90428e-08 0.627023 0.851989 0 0 0 0 0 0 0 0 0 0 0 0 0 0 0 0 0 0 0 0 0 0 0 0 0 0 0 0 0 0 0 0 0 0 0 0 0 0 0 0 0 0
0.552648 9.8362e-08 3.44808e-08 6.38811e-08 0.649449 0.855809 0 0 0 0 0 0 0 0 0 0 0 0 0 0 0 0 0 0 0 0 0 0 0 0 0 0 0 0 0 0 0 0 0 0 0 0 0 0 0 0 0 0
0.581015 9.76735e-08 3.38991e-08 6.37744e-08 0.652934 0.844543 0 0 0 0 0 0 0 0 0 0 0 0 0 0 0 0 0 0 0 0 0 0 0 0 0 0 0 0 0 0 0 0 0 0 0 0 0 0 0 0 0 0
0.610839 9.31856e-08 3.37853e-08 5.94003e-08 0.637441 0.821477 0 0 0 0 0 0 0 0 0 0 0 0 0 0 0 0 0 0 0 0 0 0 0 0 0 0 0 0 0 0 0 0 0 0 0 0 0 0 0 0 0 0
0.642193 8.84111e-08 3.39589e-08 5.44522e-08 0.615897 0.803509 0 0 0 0 0 0 0 0 0 0 0 0 0 0 0 0 0 0 0 0 0 0 0 0 0 0 0 0 0 0 0 0 0 0 0 0 0 0 0 0 0 0
0.675157 8.6115e-08 3.34113e-08 5.27037e-08 0.612016 0.782842 0 0 0 0 0 0 0 0 0 0 0 0 0 0 0 0 0 0 0 0 0 0 0 0 0 0 0 0 0 0 0 0 0 0 0 0 0 0 0 0 0 0
0.709813 8.61684e-08 3.25714e-08 5.3597e-08 0.622003 0.786751 0 0 0 0 0 0 0 0 0 0 0 0 0 0 0 0 0 0 0 0 0 0 0 0 0 0 0 0 0 0 0 0 0 0 0 0 0 0 0 0 0 0
0.746248 9.09165e-08 3.24288e-08 5.84876e-08 0.643312 0.800228 0 0 0 0 0 0 0 0 0 0 0 0 0 0 0 0 0 0 0 0 0 0 0 0 0 0 0 0 0 0 0 0 0 0 0 0 0 0 0 0 0 0
0.784553 9.94484e-08 3.21054e-08 6.7343e-08 0.677166 0.825724 0 0 0 0 0 0 0 0 0 0 0 0 0 0 0 0 0 0 0 0 0 0 0 0 0 0 0 0 0 0 0 0 0 0 0 0 0 0 0 0 0 0
0.824824 1.06746e-07 3.2004e-08 7.47421e-08 0.700186 0.829225 0 0 0 0 0 0 0 0 0 0 0 0 0 0 0 0 0 0 0 0 0 0 0 0 0 0 0 0 0 0 0 0 0 0 0 0 0 0 0 0 0 0
0.867162 1.09853e-07 3.211e-08 7.77432e-08 0.707701 0.846639 0 0 0 0 0 0 0 0 0 0 0 0 0 0 0 0 0 0 0 0 0 0 0 0 0 0 0 0 0 0 0 0 0 0 0 0 0 0 0 0 0 0
0.911674 1.13452e-07 3.21135e-08 8.13382e-08 0.716941 0.817458 0 0 0 0 0 0 0 0 0 0 0 0 0 0 0 0 0 0 0 0 0 0 0 0 0 0 0 0 0 0 0 0 0 0 0 0 0 0 0 0 0 0
0.95847 1.07687e-07 3.2767e-08 7.49196e-08 0.695719 0.817383 0 0 0 0 0 0 0 0 0 0 0 0 0 0 0 0 0 0 0 0 0 0 0 0 0 0 0 0 0 0 0 0 0 0 0 0 0 0 0 0 0 0
1.00767 1.04586e-07 3.15265e-08 7.30597e-08 0.69856 0.762504 0 0 0 0 0 0 0 0 0 0 0 0 0 0 0 0 0 0 0 0 0 0 0 0 0 0 0 0 0 0 0 0 0 0 0 0 0 0 0 0 0 0
1.05939 9.40543e-08 3.22772e-08 6.17771e-08 0.656824 0.718246 0 0 0 0 0 0 0 0 0 0 0 0 0 0 0 0 0 0 0 0 0 0 0 0 0 0 0 0 0 0 0 0 0 0 0 0 0 0 0 0 0 0
1.11377 9.03297e-08 3.04454e-08 5.98843e-08 0.662953 0.663112 0 0 0 0 0 0 0 0 0 0 0 0 0 0 0 0 0 0 0 0 0 0 0 0 0 0 0 0 0 0 0 0 0 0 0 0 0 0 0 0 0 0
1.17094 8.28919e-08 3.20107e-08 5.08812e-08 0.613826 0.576954 0 0 0 0 0 0 0 0 0 0 0 0 0 0 0 0 0 0 0 0 0 0 0 0 0 0 0 0 0 0 0 0 0 0 0 0 0 0 0 0 0 0
1.23105 7.92292e-08 2.80611e-08 5.11681e-08 0.645824 0.527273 0 0 0 0 0 0 0 0 0 0 0 0 0 0 0 0 0 0 0 0 0 0 0 0 0 0 0 0 0 0 0 0 0 0 0 0 0 0 0 0 0 0
1.29424 8.30603e-08 2.95195e-08 5.35408e-08 0.644602 0.511965 0 0 0 0 0 0 0 0 0 0 0 0 0 0 0 0 0 0 0 0 0 0 0 0 0 0 0 0 0 0 0 0 0 0 0 0 0 0 0 0 0 0
1.36067 8.30473e-08 2.93955e-08 5.36518e-08 0.646039 0.463824 0 0 0 0 0 0 0 0 0 0 0 0 0 0 0 0 0 0 0 0 0 0 0 0 0 0 0 0 0 0 0 0 0 0 0 0 0 0 0 0 0 0
1.43051 9.24642e-08 2.57431e-08 6.67211e-08 0.721588 0.529254 0 0 0 0 0 0 0 0 0 0 0 0 0 0 0 0 0 0 0 0 0 0 0 0 0 0 0 0 0 0 0 0 0 0 0 0 0 0 0 0 0 0
1.50394 1.06463e-07 2.85553e-08 7.79073e-08 0.731781 0.559037 0 0 0 0 0 0 0 0 0 0 0 0 0 0 0 0 0 0 0 0 0 0 0 0 0 0 0 0 0 0 0 0 0 0 0 0 0 0 0 0 0 0
1.58114 1.08395e-07 2.71783e-08 8.12166e-08 0.749266 0.565246 0 0 0 0 0 0 0 0 0 0 0 0 0 0 0 0 0 0 0 0 0 0 0 0 0 0 0 0 0 0 0 0 0 0 0 0 0 0 0 0 0 0
1.6623 1.19331e-07 2.33341e-08 9.59972e-08 0.80446 0.628142 0 0 0 0 0 0 0 0 0 0 0 0 0 0 0 0 0 0 0 0 0 0 0 0 0 0 0 0 0 0 0 0 0 0 0 0 0 0 0 0 0 0
1.74763 1.3922e-07 2.48367e-08 1.14383e-07 0.821601 0.649158 0 0 0 0 0 0 0 0 0 0 0 0 0 0 0 0 0 0 0 0 0 0 0 0 0 0 0 0 0 0 0 0 0 0 0 0 0 0 0 0 0 0
1.83733 1.46389e-07 2.62037e-08 1.20185e-07 0.820999 0.638193 0 0 0 0 0 0 0 0 0 0 0 0 0 0 0 0 0 0 0 0 0 0 0 0 0 0 0 0 0 0 0 0 0 0 0 0 0 0 0 0 0 0
1.93164 1.42339e-07 2.20431e-08 1.20296e-07 0.845137 0.661475 0 0 0 0 0 0 0 0 0 0 0 0 0 0 0 0 0 0 0 0 0 0 0 0 0 0 0 0 0 0 0 0 0 0 0 0 0 0 0 0 0 0
2.03079 1.53852e-07 2.07212e-08 1.33131e-07 0.865317 0.698263 0 0 0 0 0 0 0 0 0 0 0 0 0 0 0 0 0 0 0 0 0 0 0 0 0 0 0 0 0 0 0 0 0 0 0 0 0 0 0 0 0 0
2.13503 1.68268e-07 2.21096e-08 1.46158e-07 0.868605 0.705847 0 0 0 0 0 0 0 0 0 0 0 0 0 0 0 0 0 0 0 0 0 0 0 0 0 0 0 0 0 0 0 0 0 0 0 0 0 0 0 0 0 0
2.24463 1.68643e-07 2.2657e-08 1.45986e-07 0.865651 0.687161 0 0 0 0 0 0 0 0 0 0 0 0 0 0 0 0 0 0 0 0 0 0 0 0 0 0 0 0 0 0 0 0 0 0 0 0 0 0 0 0 0 0
2.35984 1.5596e-07 1.9683e-08 1.36277e-07 0.873794 0.667436 0 0 0 0 0 0 0 0 0 0 0 0 0 0 0 0 0 0 0 0 0 0 0 0 0 0 0 0 0 0 0 0 0 0 0 0 0 0 0 0 0 0
2.48097 1.5194e-07 1.75422e-08 1.34398e-07 0.884546 0.674248 0 0 0 0 0 0 0 0 0 0 0 0 0 0 0 0 0 0 0 0 0 0 0 0 0 0 0 0 0 0 0 0 0 0 0 0 0 0 0 0 0 0
2.60832 1.55834e-07 1.75505e-08 1.38284e-07 0.887378 0.692437 0 0 0 0 0 0 0 0 0 0 0 0 0 0 0 0 0 0 0 0 0 0 0 0 0 0 0 0 0 0 0 0 0 0 0 0 0 0 0 0 0 0
2.74221 1.58409e-07 1.85047e-08 1.39904e-07 0.883184 0.703696 0 0 0 0 0 0 0 0 0 0 0 0 0 0 0 0 0 0 0 0 0 0 0 0 0 0 0 0 0 0 0 0 0 0 0 0 0 0 0 0 0 0
2.88297 1.51194e-07 1.86661e-08 1.32528e-07 0.876542 0.697204 0 0 0 0 0 0 0 0 0 0 0 0 0 0 0 0 0 0 0 0 0 0 0 0 0 0 0 0 0 0 0 0 0 0 0 0 0 0 0 0 0 0
3.03095 1.35328e-07 1.69969e-08 1.18331e-07 0.874402 0.66855 0 0 0 0 0 0 0 0 0 0 0 0 0 0 0 0 0 0 0 0 0 0 0 0 0 0 0 0 0 0 0 0 0 0 0 0 0 0 0 0 0 0
3.18653 1.21098e-07 1.48829e-08 1.06215e-07 0.8771 0.630821 0 0 0 0 0 0 0 0 0 0 0 0 0 0 0 0 0 0 0 0 0 0 0 0 0 0 0 0 0 0 0 0 0 0 0 0 0 0 0 0 0 0
3.35009 1.12351e-07 1.35469e-08 9.88036e-08 0.879423 0.601084 0 0 0 0 0 0 0 0 0 0 0 0 0 0 0 0 0 0 0 0 0 0 0 0 0 0 0 0 0 0 0 0 0 0 0 0 0 0 0 0 0 0
3.52205 1.07208e-07 1.30932e-08 9.41152e-08 0.877871 0.586544 0 0 0 0 0 0 0 0 0 0 0 0 0 0 0 0 0 0 0 0 0 0 0 0 0 0 0 0 0 0 0 0 0 0 0 0 0 0 0 0 0 0
3.70284 1.02594e-07 1.32333e-08 8.93604e-08 0.871013 0.587188 0 0 0 0 0 0 0 0 0 0 0 0 0 0 0 0 0 0 0 0 0 0 0 0 0 0 0 0 0 0 0 0 0 0 0 0 0 0 0 0 0 0
3.89291 9.56434e-08 1.3434e-08 8.22094e-08 0.859541 0.597157 0 0 0 0 0 0 0 0 0 0 0 0 0 0 0 0 0 0 0 0 0 0 0 0 0 0 0 0 0 0 0 0 0 0 0 0 0 0 0 0 0 0
4.09273 8.52499e-08 1.31977e-08 7.20521e-08 0.845188 0.606024 0 0 0 0 0 0 0 0 0 0 0 0 0 0 0 0 0 0 0 0 0 0 0 0 0 0 0 0 0 0 0 0 0 0 0 0 0 0 0 0 0 0
4.30281 7.28475e-08 1.23259e-08 6.05216e-08 0.830799 0.601255 0 0 0 0 0 0 0 0 0 0 0 0 0 0 0 0 0 0 0 0 0 0 0 0 0 0 0 0 0 0 0 0 0 0 0 0 0 0 0 0 0 0
4.52368 6.09659e-08 1.11149e-08 4.9851e-08 0.817686 0.575222 0 0 0 0 0 0 0 0 0 0 0 0 0 0 0 0 0 0 0 0 0 0 0 0 0 0 0 0 0 0 0 0 0 0 0 0 0 0 0 0 0 0
4.75588 5.09512e-08 9.91504e-09 4.10362e-08 0.805401 0.530669 0 0 0 0 0 0 0 0 0 0 0 0 0 0 0 0 0 0 0 0 0 0 0 0 0 0 0 0 0 0 0 0 0 0 0 0 0 0 0 0 0 0
5 4.28048e-08 8.91334e-09 3.38915e-08 0.791768 0.476063 0 0 0 0 0 0 0 0 0 0 0 0 0 0 0 0 0 0 0 0 0 0 0 0 0 0 0 0 0 0 0 0 0 0 0 0 0 0 0 0 0 0
5.25665 3.61482e-08 8.16558e-09 2.79827e-08 0.774109 0.420084 0 0 0 0 0 0 0 0 0 0 0 0 0 0 0 0 0 0 0 0 0 0 0 0 0 0 0 0 0 0 0 0 0 0 0 0 0 0 0 0 0 0
5.52648 3.0583e-08 7.62675e-09 2.29563e-08 0.750621 0.368181 0 0 0 0 0 0 0 0 0 0 0 0 0 0 0 0 0 0 0 0 0 0 0 0 0 0 0 0 0 0 0 0 0 0 0 0 0 0 0 0 0 0
5.81015 2.57756e-08 7.26961e-09 1.8506e-08 0.717965 0.322038 0 0 0 0 0 0 0 0 0 0 0 0 0 0 0 0 0 0 0 0 0 0 0 0 0 0 0 0 0 0 0 0 0 0 0 0 0 0 0 0 0 0
6.10839 2.16422e-08 7.02798e-09 1.46143e-08 0.675266 0.282004 0 0 0 0 0 0 0 0 0 0 0 0 0 0 0 0 0 0 0 0 0 0 0 0 0 0 0 0 0 0 0 0 0 0 0 0 0 0 0 0 0 0
6.42193 1.80133e-08 6.78427e-09 1.1229e-08 0.623374 0.247394 0 0 0 0 0 0 0 0 0 0 0 0 0 0 0 0 0 0 0 0 0 0 0 0 0 0 0 0 0 0 0 0 0 0 0 0 0 0 0 0 0 0
6.75157 1.4686e-08 6.46122e-09 8.2248e-09 0.560043 0.21695 0 0 0 0 0 0 0 0 0 0 0 0 0 0 0 0 0 0 0 0 0 0 0 0 0 0 0 0 0 0 0 0 0 0 0 0 0 0 0 0 1.4013e-45 0
7.09813 1.16958e-08 6.1908e-09 5.50503e-09 0.470683 0.189746 0 0 0 0 0 0 0 0 0 0 0 0 0 0 0 0 0 0 0 0 0 0 0 0 0 0 0 0 0 0 1.4013e-45 0 2.8026e-45 0 8.40779e-45 0 2.38221e-44 0 6.02558e-44 0 1.48538e-43 0
7.46248 1.00558e-08 7.04033e-09 3.01548e-09 0.299874 0.165203 0 0 0 0 0 0 0 0 0 0 0 0 0 0 0 0 0 0 0 0 0 0 1.4013e-45 0 4.2039e-45 0 1.54143e-44 0 5.32493e-44 0 1.77965e-43 0 5.2829e-43 0 1.48398e-42 0 3.84516e-42 0 9.22054e-42 0 2.1779e-41 0
7.84553 1.36056e-08 1.22013e-08 1.4043e-09 0.103215 0.144537 0 0 0 0 0 0 0 0 0 0 0 0 0 0 0 0 1.4013e-45 0 7.00649e-45 0 4.2039e-44 0 2.158e-43 0 9.73902e-43 0 3.70784e-42 0 1.24183e-41 0 3.92055e-41 0 1.1019e-40 0 2.94371e-40 0 7.27909e-40 0 1.67232e-39 0 3.7877e-39 0
8.24824 2.42359e-08 2.2661e-08 1.57491e-09 0.0649827 0.128331 0 0 0 0 0 0 0 0 0 0 0 0 1.4013e-45 0 2.52234e-44 0 2.49431e-43 0 1.86233e-42 0 1.08895e-41 0 5.10241e-41 0 2.1431e-40 0 7.64604e-40 0 2.41405e-39 0 7.20496e-39 0 1.9254e-38 0 4.90273e-38 0 1.15991e-37 0 2.55875e-37 0 5.56864e-37 0
8.67162 3.51987e-08 3.24707e-08 2.72802e-09 0.0775035 0.114215 0 0 0 0 0 0 0 0 0 0 1.54143e-44 0 3.81153e-43 0 5.12034e-42 0 4.62064e-41 0 3.12016e-40 0 1.67344e-39 0 7.27179e-39 0 2.84761e-38 0 9.5478e-38 0 2.84993e-37 0 8.06368e-37 0 2.05391e-36 0 4.99666e-36 0 1.13346e-35 0 2.40566e-35 0 5.0404e-35 0
9.11674 5.06941e-08 4.55153e-08 5.17871e-09 0.102156 0.0997126 0 0 0 0 0 0 0 0 7.28675e-44 0 3.31968e-42 0 6.77948e-41 0 8.02969e-40 0 6.50785e-39 0 4.00331e-38 0 1.97805e-37 0 8.00053e-37 0 2.93098e-36 0 9.26366e-36 0 2.62136e-35 0 7.0497e-35 0 1.71551e-34 0 3.99614e-34 0 8.7096e-34 0 1.78185e-33 0 3.60096e-33 0
9.5847 6.34754e-08 5.53681e-08 8.10729e-09 0.127723 0.087907 0 0 0 0 0 0 9.3887e-44 0 1.23132e-41 0 4.63379e-40 0 8.16775e-39 0 8.57416e-38 0 6.27425e-37 0 3.53201e-36 0 1.61423e-35 0 6.0984e-35 0 2.0969e-34 0 6.26538e-34 0 1.68514e-33 0 4.3182e-33 0 1.00616e-32 0 2.24898e-32 0 4.7187e-32 0 9.32216e-32 0 1.82031e-31 0
10.0767 6.4408e-08 5.55741e-08 8.83393e-09 0.137156 0.0801827 0 0 0 0 1.26117e-44 0 1.27826e-41 0 1.32675e-39 0 4.18255e-38 0 6.40862e-37 0 5.99792e-36 0 3.98262e-35 0 2.06057e-34 0 8.744e-34 0 3.09583e-33 0 1.0022e-32 0 2.83865e-32 0 7.27479e-32 0 1.78047e-31 0 3.98075e-31 0 8.55513e-31 0 1.73121e-30 0 3.30832e-30 0 6.25241e-30 0
10.5939 6.11902e-08 5.22034e-08 8.98685e-09 0.146867 0.0753134 0 0 0 0 1.73341e-42 0 1.27126e-39 0 1.0519e-37 0 2.80192e-36 0 3.75757e-35 0 3.15299e-34 0 1.90875e-33 0 9.11418e-33 0 3.60406e-32 0 1.19964e-31 0 3.66706e-31 0 9.87189e-31 0 2.41632e-30 0 5.66097e-30 0 1.21691e-29 0 2.51941e-29 0 4.9258e-29 0 9.12014e-29 0 1.67088e-28 0
11.1377 5.21103e-08 4.4428e-08 7.68227e-09 0.147423 0.0748218 0 0 1.4013e-45 0 1.69532e-40 0 9.01203e-38 0 6.01075e-36 0 1.364e-34 0 1.61146e-33 0 1.21879e-32 0 6.75733e-32 0 2.98946e-31 0 1.10539e-30 0 3.46958e-30 0 1.00427e-29 0 2.57594e-29 0 6.03543e-29 0 1.35642e-28 0 2.80889e-28 0 5.61233e-28 0 1.06195e-27 0 1.90795e-27 0 3.3937e-27 0
11.7094 4.33644e-08 3.70567e-08 6.30773e-09 0.145459 0.0744279 0 0 1.8357e-43 0 1.27375e-38 0 4.98406e-36 0 2.70788e-34 0 5.27612e-33 0 5.52536e-32 0 3.78591e-31 0 1.93062e-30 0 7.94299e-30 0 2.75536e-29 0 8.17872e-29 0 2.24762e-28 0 5.50598e-28 0 1.23753e-27 0 2.67342e-27 0 5.34286e-27 0 1.03206e-26 0 1.89298e-26 0 3.3051e-26 0 5.71582e-26 0
12.3105 3.4505e-08 2.95499e-08 4.95509e-09 0.143605 0.0742438 0 0 1.79955e-41 0 7.25537e-37 0 2.1212e-34 0 9.48236e-33 0 1.59821e-31 0 1.49237e-30 0 9.30848e-30 0 4.38391e-29 0 1.68328e-28 0 5.49511e-28 0 1.54673e-27 0 4.04591e-27 0 9.48702e-27 0 2.04964e-26 0 4.2644e-26 0 8.23915e-26 0 1.54118e-25 0 2.7443e-25 0 4.66287e-25 0 7.85113e-25 0
12.9424 2.65993e-08 2.28845e-08 3.71473e-09 0.139656 0.0716404 1.68156e-44 0 1.33986e-39 0 3.21893e-35 0 7.13244e-33 0 2.64848e-31 0 3.88884e-30 0 3.25606e-29 0 1.85728e-28 0 8.10969e-28 0 2.91589e-27 0 8.98472e-27 0 2.40435e-26 0 6.00083e-26 0 1.34975e-25 0 2.80845e-25 0 5.63785e-25 0 1.05481e-24 0 1.91367e-24 0 3.31291e-24 0 5.48518e-24 0 9.00372e-24 0
13.6067 2.03215e-08 1.76841e-08 2.6374e-09 0.129784 0.0654104 1.70398e-42 0 7.86868e-38 0 1.15525e-33 0 1.96645e-31 0 6.12066e-30 0 7.88232e-29 0 5.94932e-28 0 3.11698e-27 0 1.2665e-26 0 4.27797e-26 0 1.2477e-25 0 3.18223e-25 0 7.5954e-25 0 1.64212e-24 0 3.29672e-24 0 6.39665e-24 0 1.16072e-23 0 2.04546e-23 0 3.44744e-23 0 5.56913e-23 0 8.92298e-23 0
14.3051 1.71684e-08 1.53975e-08 1.77085e-09 0.103146 0.0560161 1.52289e-40 0 4.16328e-36 0 3.82622e-32 0 5.06817e-30 0 1.33373e-28 0 1.51613e-27 0 1.03679e-26 0 5.01001e-26 0 1.90101e-25 0 6.0507e-25 0 1.67487e-24 0 4.08083e-24 0 9.33517e-24 0 1.94369e-23 0 3.77161e-23 0 7.08503e-23 0 1.24877e-22 0 2.14059e-22 0 3.51698e-22 0 5.54996e-22 0 8.68996e-22 0
