# 4e-05 2 13 : grain size, compostion index, size index
# Heating and cooling timescale: 0.00285744 2.46864e+07
# Ratio of heating to cooling to determine stochastic cutoff: 100
# Equilibrium emission is recorded even for those grains in the stochastic regime.
# Emission spectrum was computed for: 
# Type: ISRF
# Scales: 0.25 0.5 1 1.5 2 2.5 3 3.5 4 4.5 5 5.5 6 6.5 7 7.5 8 8.5 9 9.5 10
# StochasticallyHeated: 0 0 0 0 0 0 0 0 0 0 0 0 0 0 0 0 0 0 0 0 0
# Temperature: -1
# Wavelength  CExt  CAbs  CSca  Albedo G EqEm1 StEm1 EqEm2 StEm2 EqEm3 StEm3 EqEm4 StEm4 EqEm5 StEm5 EqEm6 StEm6 EqEm7 StEm7 EqEm8 StEm8 EqEm9 StEm9 EqEm10 StEm10 EqEm11 StEm11 EqEm12 StEm12 EqEm13 StEm13 EqEm14 StEm14 EqEm15 StEm15 EqEm16 StEm16 EqEm17 StEm17 EqEm18 StEm18 EqEm19 StEm19 EqEm20 StEm20 EqEm21 StEm21
0.05 1.07285e-08 4.22171e-09 6.50682e-09 0.606497 0.874685 0 0 0 0 0 0 0 0 0 0 0 0 0 0 0 0 0 0 0 0 0 0 0 0 0 0 0 0 0 0 0 0 0 0 0 0 0 0 0 0 0 0
0.0525665 1.0744e-08 4.24181e-09 6.50219e-09 0.605193 0.874866 0 0 0 0 0 0 0 0 0 0 0 0 0 0 0 0 0 0 0 0 0 0 0 0 0 0 0 0 0 0 0 0 0 0 0 0 0 0 0 0 0 0
0.0552647 1.07606e-08 4.26299e-09 6.49756e-09 0.603831 0.87505 0 0 0 0 0 0 0 0 0 0 0 0 0 0 0 0 0 0 0 0 0 0 0 0 0 0 0 0 0 0 0 0 0 0 0 0 0 0 0 0 0 0
0.0581015 1.07777e-08 4.28524e-09 6.49242e-09 0.602396 0.875254 0 0 0 0 0 0 0 0 0 0 0 0 0 0 0 0 0 0 0 0 0 0 0 0 0 0 0 0 0 0 0 0 0 0 0 0 0 0 0 0 0 0
0.0610839 1.07954e-08 4.30865e-09 6.48679e-09 0.600883 0.875459 0 0 0 0 0 0 0 0 0 0 0 0 0 0 0 0 0 0 0 0 0 0 0 0 0 0 0 0 0 0 0 0 0 0 0 0 0 0 0 0 0 0
0.0642193 1.08149e-08 4.33326e-09 6.48162e-09 0.599324 0.875675 0 0 0 0 0 0 0 0 0 0 0 0 0 0 0 0 0 0 0 0 0 0 0 0 0 0 0 0 0 0 0 0 0 0 0 0 0 0 0 0 0 0
0.0675157 1.08345e-08 4.3591e-09 6.47544e-09 0.597667 0.875909 0 0 0 0 0 0 0 0 0 0 0 0 0 0 0 0 0 0 0 0 0 0 0 0 0 0 0 0 0 0 0 0 0 0 0 0 0 0 0 0 0 0
0.0709813 1.08556e-08 4.38629e-09 6.46926e-09 0.59594 0.876146 0 0 0 0 0 0 0 0 0 0 0 0 0 0 0 0 0 0 0 0 0 0 0 0 0 0 0 0 0 0 0 0 0 0 0 0 0 0 0 0 0 0
0.0746248 1.08775e-08 4.41488e-09 6.46259e-09 0.594126 0.876402 0 0 0 0 0 0 0 0 0 0 0 0 0 0 0 0 0 0 0 0 0 0 0 0 0 0 0 0 0 0 0 0 0 0 0 0 0 0 0 0 0 0
0.0784553 1.09008e-08 4.44493e-09 6.45591e-09 0.592239 0.876671 0 0 0 0 0 0 0 0 0 0 0 0 0 0 0 0 0 0 0 0 0 0 0 0 0 0 0 0 0 0 0 0 0 0 0 0 0 0 0 0 0 0
0.0824824 1.09253e-08 4.47653e-09 6.44872e-09 0.590258 0.876948 0 0 0 0 0 0 0 0 0 0 0 0 0 0 0 0 0 0 0 0 0 0 0 0 0 0 0 0 0 0 0 0 0 0 0 0 0 0 0 0 0 0
0.0867162 1.09511e-08 4.50976e-09 6.4413e-09 0.58819 0.877244 0 0 0 0 0 0 0 0 0 0 0 0 0 0 0 0 0 0 0 0 0 0 0 0 0 0 0 0 0 0 0 0 0 0 0 0 0 0 0 0 0 0
0.0911674 1.09777e-08 4.54468e-09 6.43307e-09 0.58601 0.877556 0 0 0 0 0 0 0 0 0 0 0 0 0 0 0 0 0 0 0 0 0 0 0 0 0 0 0 0 0 0 0 0 0 0 0 0 0 0 0 0 0 0
0.095847 1.10062e-08 4.58139e-09 6.42485e-09 0.583746 0.87788 0 0 0 0 0 0 0 0 0 0 0 0 0 0 0 0 0 0 0 0 0 0 0 0 0 0 0 0 0 0 0 0 0 0 0 0 0 0 0 0 0 0
0.100767 1.10361e-08 4.61998e-09 6.41612e-09 0.581376 0.878225 0 0 0 0 0 0 0 0 0 0 0 0 0 0 0 0 0 0 0 0 0 0 0 0 0 0 0 0 0 0 0 0 0 0 0 0 0 0 0 0 0 0
0.105939 1.10676e-08 4.66055e-09 6.407e-09 0.5789 0.878583 0 0 0 0 0 0 0 0 0 0 0 0 0 0 0 0 0 0 0 0 0 0 0 0 0 0 0 0 0 0 0 0 0 0 0 0 0 0 0 0 0 0
0.111377 1.11005e-08 4.70324e-09 6.39723e-09 0.576302 0.878962 0 0 0 0 0 0 0 0 0 0 0 0 0 0 0 0 0 0 0 0 0 0 0 0 0 0 0 0 0 0 0 0 0 0 0 0 0 0 0 0 0 0
0.117094 1.1135e-08 4.74807e-09 6.38695e-09 0.573591 0.879361 0 0 0 0 0 0 0 0 0 0 0 0 0 0 0 0 0 0 0 0 0 0 0 0 0 0 0 0 0 0 0 0 0 0 0 0 0 0 0 0 0 0
0.123105 1.11714e-08 4.79523e-09 6.37619e-09 0.570759 0.87978 0 0 0 0 0 0 0 0 0 0 0 0 0 0 0 0 0 0 0 0 0 0 0 0 0 0 0 0 0 0 0 0 0 0 0 0 0 0 0 0 0 0
0.129424 1.12097e-08 4.84484e-09 6.36483e-09 0.567798 0.880221 0 0 0 0 0 0 0 0 0 0 0 0 0 0 0 0 0 0 0 0 0 0 0 0 0 0 0 0 0 0 0 0 0 0 0 0 0 0 0 0 0 0
0.136067 1.12499e-08 4.89694e-09 6.35299e-09 0.564714 0.880683 0 0 0 0 0 0 0 0 0 0 0 0 0 0 0 0 0 0 0 0 0 0 0 0 0 0 0 0 0 0 0 0 0 0 0 0 0 0 0 0 0 0
0.143051 1.12922e-08 4.95172e-09 6.34052e-09 0.561494 0.881166 0 0 0 0 0 0 0 0 0 0 0 0 0 0 0 0 0 0 0 0 0 0 0 0 0 0 0 0 0 0 0 0 0 0 0 0 0 0 0 0 0 0
0.150394 1.13365e-08 5.00935e-09 6.32713e-09 0.558121 0.881679 0 0 0 0 0 0 0 0 0 0 0 0 0 0 0 0 0 0 0 0 0 0 0 0 0 0 0 0 0 0 0 0 0 0 0 0 0 0 0 0 0 0
0.158114 1.13835e-08 5.06994e-09 6.31356e-09 0.554624 0.882214 0 0 0 0 0 0 0 0 0 0 0 0 0 0 0 0 0 0 0 0 0 0 0 0 0 0 0 0 0 0 0 0 0 0 0 0 0 0 0 0 0 0
0.16623 1.14328e-08 5.13368e-09 6.29911e-09 0.550969 0.882782 0 0 0 0 0 0 0 0 0 0 0 0 0 0 0 0 0 0 0 0 0 0 0 0 0 0 0 0 0 0 0 0 0 0 0 0 0 0 0 0 0 0
0.174762 1.14842e-08 5.20052e-09 6.28367e-09 0.547158 0.883381 0 0 0 0 0 0 0 0 0 0 0 0 0 0 0 0 0 0 0 0 0 0 0 0 0 0 0 0 0 0 0 0 0 0 0 0 0 0 0 0 0 0
0.183733 1.15386e-08 5.27088e-09 6.26772e-09 0.543196 0.884001 0 0 0 0 0 0 0 0 0 0 0 0 0 0 0 0 0 0 0 0 0 0 0 0 0 0 0 0 0 0 0 0 0 0 0 0 0 0 0 0 0 0
0.193164 1.15961e-08 5.3451e-09 6.25095e-09 0.539059 0.884663 0 0 0 0 0 0 0 0 0 0 0 0 0 0 0 0 0 0 0 0 0 0 0 0 0 0 0 0 0 0 0 0 0 0 0 0 0 0 0 0 0 0
0.203079 1.166e-08 5.41745e-09 6.24252e-09 0.53538 0.885219 0 0 0 0 0 0 0 0 0 0 0 0 0 0 0 0 0 0 0 0 0 0 0 0 0 0 0 0 0 0 0 0 0 0 0 0 0 0 0 0 0 0
0.213503 1.17465e-08 5.46937e-09 6.27717e-09 0.534385 0.885202 0 0 0 0 0 0 0 0 0 0 0 0 0 0 0 0 0 0 0 0 0 0 0 0 0 0 0 0 0 0 0 0 0 0 0 0 0 0 0 0 0 0
0.224463 1.18384e-08 5.52376e-09 6.31468e-09 0.533404 0.885171 0 0 0 0 0 0 0 0 0 0 0 0 0 0 0 0 0 0 0 0 0 0 0 0 0 0 0 0 0 0 0 0 0 0 0 0 0 0 0 0 0 0
0.235984 1.19341e-08 5.58033e-09 6.35376e-09 0.532404 0.885131 0 0 0 0 0 0 0 0 0 0 0 0 0 0 0 0 0 0 0 0 0 0 0 0 0 0 0 0 0 0 0 0 0 0 0 0 0 0 0 0 0 0
0.248097 1.2036e-08 5.64052e-09 6.39544e-09 0.531361 0.8851 0 0 0 0 0 0 0 0 0 0 0 0 0 0 0 0 0 0 0 0 0 0 0 0 0 0 0 0 0 0 0 0 0 0 0 0 0 0 0 0 0 0
0.260832 1.21421e-08 5.7034e-09 6.43873e-09 0.53028 0.885059 0 0 0 0 0 0 0 0 0 0 0 0 0 0 0 0 0 0 0 0 0 0 0 0 0 0 0 0 0 0 0 0 0 0 0 0 0 0 0 0 0 0
0.274221 1.22541e-08 5.7694e-09 6.48466e-09 0.529185 0.885018 0 0 0 0 0 0 0 0 0 0 0 0 0 0 0 0 0 0 0 0 0 0 0 0 0 0 0 0 0 0 0 0 0 0 0 0 0 0 0 0 0 0
0.288297 1.23717e-08 5.83909e-09 6.53265e-09 0.52803 0.884975 0 0 0 0 0 0 0 0 0 0 0 0 0 0 0 0 0 0 0 0 0 0 0 0 0 0 0 0 0 0 0 0 0 0 0 0 0 0 0 0 0 0
0.303095 1.24852e-08 5.9086e-09 6.57659e-09 0.526751 0.884436 0 0 0 0 0 0 0 0 0 0 0 0 0 0 0 0 0 0 0 0 0 0 0 0 0 0 0 0 0 0 0 0 0 0 0 0 0 0 0 0 0 0
0.318653 1.24796e-08 5.93972e-09 6.53984e-09 0.524044 0.877779 0 0 0 0 0 0 0 0 0 0 0 0 0 0 0 0 0 0 0 0 0 0 0 0 0 0 0 0 0 0 0 0 0 0 0 0 0 0 0 0 0 0
0.335009 1.24648e-08 5.96947e-09 6.49537e-09 0.521095 0.870324 0 0 0 0 0 0 0 0 0 0 0 0 0 0 0 0 0 0 0 0 0 0 0 0 0 0 0 0 0 0 0 0 0 0 0 0 0 0 0 0 0 0
0.352205 1.24492e-08 6.00062e-09 6.44855e-09 0.51799 0.862496 0 0 0 0 0 0 0 0 0 0 0 0 0 0 0 0 0 0 0 0 0 0 0 0 0 0 0 0 0 0 0 0 0 0 0 0 0 0 0 0 0 0
0.370284 1.24327e-08 6.03334e-09 6.39938e-09 0.514721 0.854261 0 0 0 0 0 0 0 0 0 0 0 0 0 0 0 0 0 0 0 0 0 0 0 0 0 0 0 0 0 0 0 0 0 0 0 0 0 0 0 0 0 0
0.389291 1.24151e-08 6.06765e-09 6.34745e-09 0.511268 0.845605 0 0 0 0 0 0 0 0 0 0 0 0 0 0 0 0 0 0 0 0 0 0 0 0 0 0 0 0 0 0 0 0 0 0 0 0 0 0 0 0 0 0
0.409273 1.24343e-08 6.1011e-09 6.33324e-09 0.509335 0.835207 0 0 0 0 0 0 0 0 0 0 0 0 0 0 0 0 0 0 0 0 0 0 0 0 0 0 0 0 0 0 0 0 0 0 0 0 0 0 0 0 0 0
0.430281 1.25754e-08 6.12581e-09 6.44962e-09 0.512875 0.820033 0 0 0 0 0 0 0 0 0 0 0 0 0 0 0 0 0 0 0 0 0 0 0 0 0 0 0 0 0 0 0 0 0 0 0 0 0 0 0 0 0 0
0.452368 1.27243e-08 6.15197e-09 6.57233e-09 0.516518 0.804076 0 0 0 0 0 0 0 0 0 0 0 0 0 0 0 0 0 0 0 0 0 0 0 0 0 0 0 0 0 0 0 0 0 0 0 0 0 0 0 0 0 0
0.475588 1.2881e-08 6.17968e-09 6.70134e-09 0.520249 0.787299 0 0 0 0 0 0 0 0 0 0 0 0 0 0 0 0 0 0 0 0 0 0 0 0 0 0 0 0 0 0 0 0 0 0 0 0 0 0 0 0 0 0
0.5 1.30454e-08 6.20831e-09 6.83705e-09 0.524098 0.769669 0 0 0 0 0 0 0 0 0 0 0 0 0 0 0 0 0 0 0 0 0 0 0 0 0 0 0 0 0 0 0 0 0 0 0 0 0 0 0 0 0 0
0.525665 1.32657e-08 6.1587e-09 7.10701e-09 0.535743 0.756315 0 0 0 0 0 0 0 0 0 0 0 0 0 0 0 0 0 0 0 0 0 0 0 0 0 0 0 0 0 0 0 0 0 0 0 0 0 0 0 0 0 0
0.552648 1.35134e-08 6.08182e-09 7.43154e-09 0.54994 0.743907 0 0 0 0 0 0 0 0 0 0 0 0 0 0 0 0 0 0 0 0 0 0 0 0 0 0 0 0 0 0 0 0 0 0 0 0 0 0 0 0 0 0
0.581015 1.37731e-08 6.00071e-09 7.77244e-09 0.564318 0.73086 0 0 0 0 0 0 0 0 0 0 0 0 0 0 0 0 0 0 0 0 0 0 0 0 0 0 0 0 0 0 0 0 0 0 0 0 0 0 0 0 0 0
0.610839 1.40683e-08 5.91345e-09 8.15485e-09 0.579661 0.718555 0 0 0 0 0 0 0 0 0 0 0 0 0 0 0 0 0 0 0 0 0 0 0 0 0 0 0 0 0 0 0 0 0 0 0 0 0 0 0 0 0 0
0.642193 1.45489e-08 5.80461e-09 8.7443e-09 0.601028 0.716803 0 0 0 0 0 0 0 0 0 0 0 0 0 0 0 0 0 0 0 0 0 0 0 0 0 0 0 0 0 0 0 0 0 0 0 0 0 0 0 0 0 0
0.675157 1.50543e-08 5.69019e-09 9.3641e-09 0.622022 0.714961 0 0 0 0 0 0 0 0 0 0 0 0 0 0 0 0 0 0 0 0 0 0 0 0 0 0 0 0 0 0 0 0 0 0 0 0 0 0 0 0 0 0
0.709813 1.55967e-08 5.56946e-09 1.00273e-08 0.642908 0.712681 0 0 0 0 0 0 0 0 0 0 0 0 0 0 0 0 0 0 0 0 0 0 0 0 0 0 0 0 0 0 0 0 0 0 0 0 0 0 0 0 0 0
0.746248 1.62676e-08 5.44166e-09 1.08259e-08 0.66549 0.70718 0 0 0 0 0 0 0 0 0 0 0 0 0 0 0 0 0 0 0 0 0 0 0 0 0 0 0 0 0 0 0 0 0 0 0 0 0 0 0 0 0 0
0.784553 1.69814e-08 5.30702e-09 1.16743e-08 0.68748 0.701134 0 0 0 0 0 0 0 0 0 0 0 0 0 0 0 0 0 0 0 0 0 0 0 0 0 0 0 0 0 0 0 0 0 0 0 0 0 0 0 0 0 0
0.824824 1.77922e-08 5.17984e-09 1.26123e-08 0.70887 0.697955 0 0 0 0 0 0 0 0 0 0 0 0 0 0 0 0 0 0 0 0 0 0 0 0 0 0 0 0 0 0 0 0 0 0 0 0 0 0 0 0 0 0
0.867162 1.87575e-08 5.07311e-09 1.36844e-08 0.729542 0.700507 0 0 0 0 0 0 0 0 0 0 0 0 0 0 0 0 0 0 0 0 0 0 0 0 0 0 0 0 0 0 0 0 0 0 0 0 0 0 0 0 0 0
0.911674 1.97561e-08 4.95952e-09 1.47966e-08 0.748962 0.702873 0 0 0 0 0 0 0 0 0 0 0 0 0 0 0 0 0 0 0 0 0 0 0 0 0 0 0 0 0 0 0 0 0 0 0 0 0 0 0 0 0 0
0.95847 2.02574e-08 4.80069e-09 1.54568e-08 0.763016 0.694836 0 0 0 0 0 0 0 0 0 0 0 0 0 0 0 0 0 0 0 0 0 0 0 0 0 0 0 0 0 0 0 0 0 0 0 0 0 0 0 0 0 0
1.00767 2.07628e-08 4.63166e-09 1.61312e-08 0.776926 0.685955 0 0 0 0 0 0 0 0 0 0 0 0 0 0 0 0 0 0 0 0 0 0 0 0 0 0 0 0 0 0 0 0 0 0 0 0 0 0 0 0 0 0
1.05939 2.09293e-08 4.38013e-09 1.65492e-08 0.790718 0.669514 0 0 0 0 0 0 0 0 0 0 0 0 0 0 0 0 0 0 0 0 0 0 0 0 0 0 0 0 0 0 0 0 0 0 0 0 0 0 0 0 0 0
1.11377 2.10393e-08 4.1087e-09 1.69306e-08 0.804713 0.651517 0 0 0 0 0 0 0 0 0 0 0 0 0 0 0 0 0 0 0 0 0 0 0 0 0 0 0 0 0 0 0 0 0 0 0 0 0 0 0 0 0 0
1.17094 2.08605e-08 3.88944e-09 1.6971e-08 0.81355 0.638172 0 0 0 0 0 0 0 0 0 0 0 0 0 0 0 0 0 0 0 0 0 0 0 0 0 0 0 0 0 0 0 0 0 0 0 0 0 0 0 0 0 0
1.23105 2.05878e-08 3.67953e-09 1.69082e-08 0.821276 0.627468 0 0 0 0 0 0 0 0 0 0 0 0 0 0 0 0 0 0 0 0 0 0 0 0 0 0 0 0 0 0 0 0 0 0 0 0 0 0 0 0 0 0
1.29424 2.00977e-08 3.50962e-09 1.6588e-08 0.825371 0.625599 0 0 0 0 0 0 0 0 0 0 0 0 0 0 0 0 0 0 0 0 0 0 0 0 0 0 0 0 0 0 0 0 0 0 0 0 0 0 0 0 0 0
1.36067 1.92839e-08 3.27857e-09 1.60053e-08 0.829984 0.619613 0 0 0 0 0 0 0 0 0 0 0 0 0 0 0 0 0 0 0 0 0 0 0 0 0 0 0 0 0 0 0 0 0 0 0 0 0 0 0 0 0 0
1.43051 1.82306e-08 3.0093e-09 1.52213e-08 0.834931 0.610633 0 0 0 0 0 0 0 0 0 0 0 0 0 0 0 0 0 0 0 0 0 0 0 0 0 0 0 0 0 0 0 0 0 0 0 0 0 0 0 0 0 0
1.50394 1.69883e-08 2.74464e-09 1.42437e-08 0.83844 0.599303 0 0 0 0 0 0 0 0 0 0 0 0 0 0 0 0 0 0 0 0 0 0 0 0 0 0 0 0 0 0 0 0 0 0 0 0 0 0 0 0 0 0
1.58114 1.54911e-08 2.46763e-09 1.30235e-08 0.840707 0.588115 0 0 0 0 0 0 0 0 0 0 0 0 0 0 0 0 0 0 0 0 0 0 0 0 0 0 0 0 0 0 0 0 0 0 0 0 0 0 0 0 0 0
1.6623 1.37323e-08 2.16084e-09 1.15715e-08 0.842645 0.574464 0 0 0 0 0 0 0 0 0 0 0 0 0 0 0 0 0 0 0 0 0 0 0 0 0 0 0 0 0 0 0 0 0 0 0 0 0 0 0 0 0 0
1.74763 1.17729e-08 1.82623e-09 9.94671e-09 0.844879 0.554996 0 0 0 0 0 0 0 0 0 0 0 0 0 0 0 0 0 0 0 0 0 0 0 0 0 0 0 0 0 0 0 0 0 0 0 0 0 0 0 0 0 0
1.83733 9.84665e-09 1.49832e-09 8.34832e-09 0.847834 0.525417 0 0 0 0 0 0 0 0 0 0 0 0 0 0 0 0 0 0 0 0 0 0 0 0 0 0 0 0 0 0 0 0 0 0 0 0 0 0 0 0 0 0
1.93164 8.17748e-09 1.2194e-09 6.95808e-09 0.850883 0.485811 0 0 0 0 0 0 0 0 0 0 0 0 0 0 0 0 0 0 0 0 0 0 0 0 0 0 0 0 0 0 0 0 0 0 0 0 0 0 0 0 0 0
2.03079 6.84427e-09 1.00869e-09 5.83558e-09 0.852623 0.440586 0 0 0 0 0 0 0 0 0 0 0 0 0 0 0 0 0 0 0 0 0 0 0 0 0 0 0 0 0 0 0 0 0 0 0 0 0 0 0 0 0 0
2.13503 5.7717e-09 8.39921e-10 4.93178e-09 0.854476 0.395011 0 0 0 0 0 0 0 0 0 0 0 0 0 0 0 0 0 0 0 0 0 0 0 0 0 0 0 0 0 0 0 0 0 0 0 0 0 0 0 0 0 0
2.24463 4.89504e-09 7.33727e-10 4.16131e-09 0.850108 0.352806 0 0 0 0 0 0 0 0 0 0 0 0 0 0 0 0 0 0 0 0 0 0 0 0 0 0 0 0 0 0 0 0 0 0 0 0 0 0 0 0 0 0
2.35984 4.16948e-09 6.58972e-10 3.51051e-09 0.841954 0.315474 0 0 0 0 0 0 0 0 0 0 0 0 0 0 0 0 0 0 0 0 0 0 0 0 0 0 0 0 0 0 0 0 0 0 0 0 0 0 0 0 0 0
2.48097 3.54114e-09 5.89252e-10 2.95189e-09 0.833598 0.282744 0 0 0 0 0 0 0 0 0 0 0 0 0 0 0 0 0 0 0 0 0 0 0 0 0 0 0 0 0 0 0 0 0 0 0 0 0 0 0 0 0 0
2.60832 2.99301e-09 5.28248e-10 2.46477e-09 0.823506 0.253954 0 0 0 0 0 0 0 0 0 0 0 0 0 0 0 0 0 0 0 0 0 0 0 0 0 0 0 0 0 0 0 0 0 0 0 0 0 0 0 0 0 0
2.74221 2.52262e-09 4.75824e-10 2.04679e-09 0.811377 0.228896 0 0 0 0 0 0 0 0 0 0 0 0 0 0 0 0 0 0 0 0 0 0 0 0 0 0 0 0 0 0 0 0 0 0 0 0 0 0 0 0 0 0
2.88297 2.1183e-09 4.27478e-10 1.69082e-09 0.798198 0.206921 0 0 0 0 0 0 0 0 0 0 0 0 0 0 0 0 0 0 0 0 0 0 0 0 0 0 0 0 0 0 0 0 0 0 0 0 0 0 0 0 0 0
3.03095 1.77184e-09 3.83806e-10 1.38804e-09 0.783386 0.187362 0 0 0 0 0 0 0 0 0 0 0 0 0 0 0 0 0 0 0 0 0 0 0 0 0 0 0 0 0 0 0 0 0 0 0 0 0 0 0 0 0 0
3.18653 1.48313e-09 3.44942e-10 1.13819e-09 0.767423 0.170046 0 0 0 0 0 0 0 0 0 0 0 0 0 0 0 0 0 0 0 0 0 0 0 0 0 0 0 0 0 0 0 0 0 0 0 0 0 0 0 0 0 0
3.35009 1.23736e-09 3.09366e-10 9.2799e-10 0.749978 0.154359 0 0 0 0 0 0 0 0 0 0 0 0 0 0 0 0 0 0 0 0 0 0 0 0 0 0 0 0 0 0 0 0 0 0 0 0 0 0 0 0 0 0
3.52205 1.03412e-09 2.7721e-10 7.56907e-10 0.731936 0.140336 0 0 0 0 0 0 0 0 0 0 0 0 0 0 0 0 0 0 0 0 0 0 0 0 0 0 0 0 0 0 0 0 0 0 0 0 0 0 0 0 0 0
3.70284 8.63881e-10 2.48598e-10 6.15282e-10 0.712231 0.127599 0 0 0 0 0 0 0 0 0 0 0 0 0 0 0 0 0 0 0 0 0 0 0 0 0 0 0 0 0 0 0 0 0 0 0 0 0 0 0 0 0 0
3.89291 7.22728e-10 2.23675e-10 4.99054e-10 0.690514 0.116099 0 0 0 0 0 0 0 0 0 0 0 0 0 0 0 0 0 0 0 0 0 0 0 0 0 0 0 0 0 0 0 0 0 0 0 0 0 0 0 0 0 0
4.09273 6.06242e-10 2.02046e-10 4.04195e-10 0.666723 0.105554 0 0 0 0 0 0 0 0 0 0 0 0 0 0 0 0 0 0 0 0 0 0 0 0 0 0 0 0 0 0 0 0 0 0 0 0 0 0 0 0 0 0
4.30281 5.10307e-10 1.83381e-10 3.26926e-10 0.640646 0.0959533 0 0 0 0 0 0 0 0 0 0 0 0 0 0 0 0 0 0 0 0 0 0 0 0 0 0 0 0 0 0 0 0 0 0 0 0 0 0 0 0 0 0
4.52368 4.31653e-10 1.67645e-10 2.64008e-10 0.611621 0.0871942 0 0 0 0 0 0 0 0 0 0 0 0 0 0 0 0 0 0 0 0 0 0 0 0 0 0 0 0 0 0 0 0 0 0 0 0 0 0 0 0 0 0
4.75588 3.67114e-10 1.54511e-10 2.12603e-10 0.579121 0.0791868 0 0 0 0 0 0 0 0 0 0 0 0 0 0 0 0 0 0 0 0 0 0 0 0 0 0 0 0 0 0 0 0 0 0 0 0 0 0 0 0 0 0
5 3.14577e-10 1.43982e-10 1.70595e-10 0.542301 0.0718803 0 0 0 0 0 0 0 0 0 0 0 0 0 0 0 0 0 0 0 0 0 0 0 0 0 0 0 0 0 0 0 0 0 0 0 0 0 0 0 0 0 0
5.25665 2.75149e-10 1.39515e-10 1.35634e-10 0.492948 0.0651615 0 0 0 0 0 0 0 0 0 0 0 0 0 0 0 0 0 0 0 0 0 0 0 0 0 0 0 0 0 0 0 0 0 0 0 0 0 0 0 0 0 0
5.52648 2.46109e-10 1.37483e-10 1.08626e-10 0.441372 0.0590986 0 0 0 0 0 0 0 0 0 0 0 0 0 0 0 0 0 0 0 0 0 0 0 0 0 0 0 0 0 0 0 0 0 0 0 0 0 0 0 0 0 0
5.81015 2.26643e-10 1.40146e-10 8.6497e-11 0.381645 0.053604 0 0 0 0 0 0 0 0 0 0 0 0 0 0 0 0 0 0 0 0 0 0 0 0 0 0 0 0 0 0 0 0 0 0 0 0 0 0 0 0 0 0
6.10839 2.2647e-10 1.57496e-10 6.89743e-11 0.304562 0.0485646 0 0 0 0 0 0 0 0 0 0 0 0 0 0 0 0 0 0 0 0 0 0 0 0 0 0 0 0 0 0 0 0 0 0 0 0 0 0 0 0 0 0
6.42193 2.2698e-10 1.7229e-10 5.46906e-11 0.240948 0.0439591 0 0 0 0 0 0 0 0 0 0 0 0 0 0 0 0 0 0 0 0 0 0 0 0 0 0 0 0 0 0 0 0 0 0 0 0 0 0 0 0 0 0
6.75157 2.40164e-10 1.96476e-10 4.36877e-11 0.181908 0.0398054 0 0 0 0 0 0 0 0 0 0 0 0 0 0 0 0 0 0 0 0 0 0 0 0 0 0 0 0 0 0 1.4013e-45 0 2.8026e-45 0 7.00649e-45 0 1.68156e-44 0 4.48416e-44 0 1.06499e-43 0
7.09813 2.43183e-10 2.09202e-10 3.39809e-11 0.139734 0.0359215 0 0 0 0 0 0 0 0 0 0 0 0 0 0 0 0 0 0 0 0 0 0 0 0 2.8026e-45 0 9.80909e-45 0 3.36312e-44 0 1.10703e-43 0 3.19496e-43 0 8.82818e-43 0 2.26029e-42 0 5.53513e-42 0 1.26523e-41 0
7.46248 2.52596e-10 2.26474e-10 2.61216e-11 0.103413 0.0323949 0 0 0 0 0 0 0 0 0 0 0 0 0 0 0 0 0 0 2.8026e-45 0 1.54143e-44 0 8.12753e-44 0 3.44719e-43 0 1.2934e-42 0 4.3132e-42 0 1.32156e-41 0 3.64043e-41 0 9.56162e-41 0 2.33836e-40 0 5.4816e-40 0 1.20338e-39 0
7.84553 3.04204e-10 2.84242e-10 1.99615e-11 0.065619 0.0291781 0 0 0 0 0 0 0 0 0 0 0 0 0 0 7.00649e-45 0 6.30584e-44 0 4.34403e-43 0 2.41724e-42 0 1.12903e-41 0 4.49004e-41 0 1.58123e-40 0 4.97067e-40 0 1.44218e-39 0 3.78081e-39 0 9.47313e-39 0 2.21773e-38 0 4.98701e-38 0 1.05357e-37 0
8.24824 4.04188e-10 3.88898e-10 1.529e-11 0.037829 0.0262465 0 0 0 0 0 0 0 0 0 0 4.2039e-45 0 8.96831e-44 0 1.09722e-42 0 9.65214e-42 0 6.10111e-41 0 3.12043e-40 0 1.35192e-39 0 5.02608e-39 0 1.66447e-38 0 4.94778e-38 0 1.36279e-37 0 3.40845e-37 0 8.16563e-37 0 1.83387e-36 0 3.96386e-36 0 8.07387e-36 0
8.67162 5.50012e-10 5.37635e-10 1.23771e-11 0.0225034 0.023631 0 0 0 0 0 0 0 0 1.82169e-44 0 7.39886e-43 0 1.37117e-41 0 1.49278e-40 0 1.18035e-39 0 6.81904e-39 0 3.22052e-38 0 1.2989e-37 0 4.52907e-37 0 1.4147e-36 0 3.98749e-36 0 1.04528e-35 0 2.49991e-35 0 5.73894e-35 0 1.23895e-34 0 2.57905e-34 0 5.07387e-34 0
9.11674 7.37109e-10 7.26131e-10 1.0978e-11 0.0148933 0.021298 0 0 0 0 0 0 2.8026e-44 0 3.01419e-42 0 1.00503e-40 0 1.61618e-39 0 1.56594e-38 0 1.1193e-37 0 5.93566e-37 0 2.59869e-36 0 9.79113e-36 0 3.21206e-35 0 9.49047e-35 0 2.54302e-34 0 6.35989e-34 0 1.45765e-33 0 3.2132e-33 0 6.68103e-33 0 1.34185e-32 0 2.55407e-32 0
9.5847 8.86301e-10 8.75474e-10 1.08267e-11 0.0122156 0.0193201 0 0 0 0 5.60519e-45 0 3.95446e-42 0 3.42284e-40 0 9.61872e-39 0 1.35062e-37 0 1.17129e-36 0 7.60553e-36 0 3.71774e-35 0 1.51445e-34 0 5.34818e-34 0 1.65564e-33 0 4.63979e-33 0 1.18484e-32 0 2.8335e-32 0 6.23647e-32 0 1.32271e-31 0 2.65368e-31 0 5.15135e-31 0 9.50175e-31 0
10.0767 9.30287e-10 9.1935e-10 1.09374e-11 0.011757 0.0177061 0 0 0 0 7.31478e-43 0 3.84802e-40 0 2.67921e-38 0 6.39742e-37 0 7.89585e-36 0 6.16207e-35 0 3.65195e-34 0 1.65206e-33 0 6.28377e-33 0 2.0865e-32 0 6.11249e-32 0 1.62892e-31 0 3.97359e-31 0 9.10664e-31 0 1.92862e-30 0 3.94302e-30 0 7.64626e-30 0 1.437e-29 0 2.57252e-29 0
10.5939 8.63966e-10 8.53646e-10 1.03194e-11 0.0119443 0.0163408 0 0 1.4013e-45 0 6.77304e-41 0 2.62218e-38 0 1.4841e-36 0 3.03515e-35 0 3.31351e-34 0 2.3391e-33 0 1.27091e-32 0 5.34089e-32 0 1.90318e-31 0 5.95979e-31 0 1.65668e-30 0 4.2086e-30 0 9.82907e-30 0 2.16323e-29 0 4.41651e-29 0 8.71963e-29 0 1.6371e-28 0 2.98336e-28 0 5.19109e-28 0
11.1377 7.56201e-10 7.46964e-10 9.23668e-12 0.0122146 0.0151502 0 0 1.26117e-43 0 4.66004e-39 0 1.34871e-36 0 6.26814e-35 0 1.10627e-33 0 1.0747e-32 0 6.89616e-32 0 3.44973e-31 0 1.35158e-30 0 4.52651e-30 0 1.34063e-29 0 3.54519e-29 0 8.60537e-29 0 1.92823e-28 0 4.0834e-28 0 8.05127e-28 0 1.53766e-27 0 2.7995e-27 0 4.95433e-27 0 8.39061e-27 0
11.7094 6.27092e-10 6.19029e-10 8.06285e-12 0.0128575 0.0140449 0 0 1.0989e-41 0 2.42398e-37 0 5.31958e-35 0 2.04973e-33 0 3.14449e-32 0 2.73378e-31 0 1.60202e-30 0 7.40814e-30 0 2.71525e-29 0 8.57242e-29 0 2.40784e-28 0 6.07208e-28 0 1.41144e-27 0 3.0405e-27 0 6.20724e-27 0 1.18398e-26 0 2.1909e-26 0 3.8738e-26 0 6.66712e-26 0 1.10046e-25 0
12.3105 4.34512e-10 4.27888e-10 6.62399e-12 0.0152447 0.0130115 1.68156e-44 0 6.27032e-40 0 8.48786e-36 0 1.43163e-33 0 4.61557e-32 0 6.19699e-31 0 4.84773e-30 0 2.60585e-29 0 1.1182e-28 0 3.84663e-28 0 1.14814e-27 0 3.06635e-27 0 7.39126e-27 0 1.64877e-26 0 3.42112e-26 0 6.7451e-26 0 1.24665e-25 0 2.23857e-25 0 3.84946e-25 0 6.45191e-25 0 1.0392e-24 0
12.9424 2.60376e-10 2.55531e-10 4.84551e-12 0.0186097 0.0117483 1.0776e-42 0 2.46171e-38 0 2.09425e-34 0 2.74998e-32 0 7.48301e-31 0 8.85035e-30 0 6.26182e-29 0 3.10064e-28 0 1.23919e-27 0 4.01328e-27 0 1.13561e-26 0 2.89084e-26 0 6.67521e-26 0 1.43184e-25 0 2.86698e-25 0 5.46828e-25 0 9.80802e-25 0 1.71157e-24 0 2.86637e-24 0 4.68456e-24 0 7.3718e-24 0
13.6067 2.25421e-10 2.22076e-10 3.34501e-12 0.014839 0.0104006 8.08984e-41 0 1.13257e-36 0 6.19426e-33 0 6.41012e-31 0 1.48444e-29 0 1.5562e-28 0 1.00073e-27 0 4.58297e-27 0 1.71181e-26 0 5.23481e-26 0 1.40791e-25 0 3.42419e-25 0 7.59022e-25 0 1.56856e-24 0 3.03606e-24 0 5.61106e-24 0 9.78109e-24 0 1.6611e-23 0 2.71267e-23 0 4.32832e-23 0 6.66208e-23 0
