# 0.000231776 2 84 : grain size, compostion index, size index
# Heating and cooling timescale: 5.20558e-05 1.2759e+13
# Ratio of heating to cooling to determine stochastic cutoff: 100
# Equilibrium emission is recorded even for those grains in the stochastic regime.
# Emission spectrum was computed for: 
# Type: IRSF
# Scales: 0.25 0.5 1 1.5 2 2.5 3 3.5 4 4.5 5 5.5 6 6.5 7 7.5 8 8.5 9 9.5 10
# StochasticallyHeated: 0 0 0 0 0 0 0 0 0 0 0 0 0 0 0 0 0 0 0 0 0
# Temperature: -1
# Wavelength  CExt  CAbs  CSca  Albedo G EqEm1 StEm1 EqEm2 StEm2 EqEm3 StEm3 EqEm4 StEm4 EqEm5 StEm5 EqEm6 StEm6 EqEm7 StEm7 EqEm8 StEm8 EqEm9 StEm9 EqEm10 StEm10 EqEm11 StEm11 EqEm12 StEm12 EqEm13 StEm13 EqEm14 StEm14 EqEm15 StEm15 EqEm16 StEm16 EqEm17 StEm17 EqEm18 StEm18 EqEm19 StEm19 EqEm20 StEm20 EqEm21 StEm21
0.05 3.4364e-07 1.44838e-07 1.98802e-07 0.578519 0.932467 0 0 0 0 0 0 0 0 0 0 0 0 0 0 0 0 0 0 0 0 0 0 0 0 0 0 0 0 0 0 0 0 0 0 0 0 0 0 0 0 0 0
0.0525665 3.43942e-07 1.43691e-07 2.0025e-07 0.582221 0.926768 0 0 0 0 0 0 0 0 0 0 0 0 0 0 0 0 0 0 0 0 0 0 0 0 0 0 0 0 0 0 0 0 0 0 0 0 0 0 0 0 0 0
0.0552647 3.44272e-07 1.417e-07 2.02571e-07 0.588405 0.918063 0 0 0 0 0 0 0 0 0 0 0 0 0 0 0 0 0 0 0 0 0 0 0 0 0 0 0 0 0 0 0 0 0 0 0 0 0 0 0 0 0 0
0.0581015 3.44683e-07 1.38655e-07 2.06028e-07 0.597731 0.90454 0 0 0 0 0 0 0 0 0 0 0 0 0 0 0 0 0 0 0 0 0 0 0 0 0 0 0 0 0 0 0 0 0 0 0 0 0 0 0 0 0 0
0.0610839 3.45181e-07 1.35658e-07 2.09523e-07 0.606995 0.889384 0 0 0 0 0 0 0 0 0 0 0 0 0 0 0 0 0 0 0 0 0 0 0 0 0 0 0 0 0 0 0 0 0 0 0 0 0 0 0 0 0 0
0.0642193 3.45719e-07 1.33686e-07 2.12033e-07 0.613311 0.877064 0 0 0 0 0 0 0 0 0 0 0 0 0 0 0 0 0 0 0 0 0 0 0 0 0 0 0 0 0 0 0 0 0 0 0 0 0 0 0 0 0 0
0.0675157 3.46268e-07 1.32726e-07 2.13542e-07 0.616695 0.868379 0 0 0 0 0 0 0 0 0 0 0 0 0 0 0 0 0 0 0 0 0 0 0 0 0 0 0 0 0 0 0 0 0 0 0 0 0 0 0 0 0 0
0.0709813 3.46822e-07 1.3259e-07 2.14232e-07 0.617699 0.862904 0 0 0 0 0 0 0 0 0 0 0 0 0 0 0 0 0 0 0 0 0 0 0 0 0 0 0 0 0 0 0 0 0 0 0 0 0 0 0 0 0 0
0.0746248 3.47373e-07 1.33139e-07 2.14234e-07 0.616725 0.860238 0 0 0 0 0 0 0 0 0 0 0 0 0 0 0 0 0 0 0 0 0 0 0 0 0 0 0 0 0 0 0 0 0 0 0 0 0 0 0 0 0 0
0.0784553 3.47893e-07 1.34447e-07 2.13446e-07 0.613539 0.860856 0 0 0 0 0 0 0 0 0 0 0 0 0 0 0 0 0 0 0 0 0 0 0 0 0 0 0 0 0 0 0 0 0 0 0 0 0 0 0 0 0 0
0.0824824 3.4834e-07 1.36803e-07 2.11537e-07 0.607273 0.866255 0 0 0 0 0 0 0 0 0 0 0 0 0 0 0 0 0 0 0 0 0 0 0 0 0 0 0 0 0 0 0 0 0 0 0 0 0 0 0 0 0 0
0.0867162 3.48695e-07 1.37851e-07 2.10844e-07 0.604665 0.869168 0 0 0 0 0 0 0 0 0 0 0 0 0 0 0 0 0 0 0 0 0 0 0 0 0 0 0 0 0 0 0 0 0 0 0 0 0 0 0 0 0 0
0.0911674 3.49235e-07 1.3694e-07 2.12295e-07 0.607886 0.862806 0 0 0 0 0 0 0 0 0 0 0 0 0 0 0 0 0 0 0 0 0 0 0 0 0 0 0 0 0 0 0 0 0 0 0 0 0 0 0 0 0 0
0.095847 3.49802e-07 1.37168e-07 2.12633e-07 0.607868 0.859559 0 0 0 0 0 0 0 0 0 0 0 0 0 0 0 0 0 0 0 0 0 0 0 0 0 0 0 0 0 0 0 0 0 0 0 0 0 0 0 0 0 0
0.100767 3.50296e-07 1.37935e-07 2.12361e-07 0.606233 0.85906 0 0 0 0 0 0 0 0 0 0 0 0 0 0 0 0 0 0 0 0 0 0 0 0 0 0 0 0 0 0 0 0 0 0 0 0 0 0 0 0 0 0
0.105939 3.50691e-07 1.39619e-07 2.11071e-07 0.601873 0.862828 0 0 0 0 0 0 0 0 0 0 0 0 0 0 0 0 0 0 0 0 0 0 0 0 0 0 0 0 0 0 0 0 0 0 0 0 0 0 0 0 0 0
0.111377 3.51042e-07 1.41288e-07 2.09754e-07 0.597518 0.867733 0 0 0 0 0 0 0 0 0 0 0 0 0 0 0 0 0 0 0 0 0 0 0 0 0 0 0 0 0 0 0 0 0 0 0 0 0 0 0 0 0 0
0.117094 3.51425e-07 1.42473e-07 2.08952e-07 0.594585 0.87079 0 0 0 0 0 0 0 0 0 0 0 0 0 0 0 0 0 0 0 0 0 0 0 0 0 0 0 0 0 0 0 0 0 0 0 0 0 0 0 0 0 0
0.123105 3.5183e-07 1.43372e-07 2.08458e-07 0.592496 0.872697 0 0 0 0 0 0 0 0 0 0 0 0 0 0 0 0 0 0 0 0 0 0 0 0 0 0 0 0 0 0 0 0 0 0 0 0 0 0 0 0 0 0
0.129424 3.52256e-07 1.44039e-07 2.08216e-07 0.591094 0.873595 0 0 0 0 0 0 0 0 0 0 0 0 0 0 0 0 0 0 0 0 0 0 0 0 0 0 0 0 0 0 0 0 0 0 0 0 0 0 0 0 0 0
0.136067 3.52699e-07 1.44448e-07 2.08251e-07 0.590449 0.873296 0 0 0 0 0 0 0 0 0 0 0 0 0 0 0 0 0 0 0 0 0 0 0 0 0 0 0 0 0 0 0 0 0 0 0 0 0 0 0 0 0 0
0.143051 3.53151e-07 1.44444e-07 2.08707e-07 0.590985 0.870941 0 0 0 0 0 0 0 0 0 0 0 0 0 0 0 0 0 0 0 0 0 0 0 0 0 0 0 0 0 0 0 0 0 0 0 0 0 0 0 0 0 0
0.150394 3.53497e-07 1.45179e-07 2.08318e-07 0.589307 0.872032 0 0 0 0 0 0 0 0 0 0 0 0 0 0 0 0 0 0 0 0 0 0 0 0 0 0 0 0 0 0 0 0 0 0 0 0 0 0 0 0 0 0
0.158114 3.53829e-07 1.46898e-07 2.06931e-07 0.584833 0.878236 0 0 0 0 0 0 0 0 0 0 0 0 0 0 0 0 0 0 0 0 0 0 0 0 0 0 0 0 0 0 0 0 0 0 0 0 0 0 0 0 0 0
0.16623 3.54247e-07 1.48864e-07 2.05383e-07 0.579774 0.885816 0 0 0 0 0 0 0 0 0 0 0 0 0 0 0 0 0 0 0 0 0 0 0 0 0 0 0 0 0 0 0 0 0 0 0 0 0 0 0 0 0 0
0.174762 3.54745e-07 1.50691e-07 2.04054e-07 0.575212 0.892698 0 0 0 0 0 0 0 0 0 0 0 0 0 0 0 0 0 0 0 0 0 0 0 0 0 0 0 0 0 0 0 0 0 0 0 0 0 0 0 0 0 0
0.183733 3.55295e-07 1.52389e-07 2.02906e-07 0.571092 0.898841 0 0 0 0 0 0 0 0 0 0 0 0 0 0 0 0 0 0 0 0 0 0 0 0 0 0 0 0 0 0 0 0 0 0 0 0 0 0 0 0 0 0
0.193164 3.55886e-07 1.53919e-07 2.01966e-07 0.567503 0.904039 0 0 0 0 0 0 0 0 0 0 0 0 0 0 0 0 0 0 0 0 0 0 0 0 0 0 0 0 0 0 0 0 0 0 0 0 0 0 0 0 0 0
0.203079 3.56517e-07 1.55312e-07 2.01205e-07 0.564363 0.908436 0 0 0 0 0 0 0 0 0 0 0 0 0 0 0 0 0 0 0 0 0 0 0 0 0 0 0 0 0 0 0 0 0 0 0 0 0 0 0 0 0 0
0.213503 3.57121e-07 1.5658e-07 2.00541e-07 0.561549 0.912175 0 0 0 0 0 0 0 0 0 0 0 0 0 0 0 0 0 0 0 0 0 0 0 0 0 0 0 0 0 0 0 0 0 0 0 0 0 0 0 0 0 0
0.224463 3.58093e-07 1.57637e-07 2.00457e-07 0.559789 0.915202 0 0 0 0 0 0 0 0 0 0 0 0 0 0 0 0 0 0 0 0 0 0 0 0 0 0 0 0 0 0 0 0 0 0 0 0 0 0 0 0 0 0
0.235984 3.58436e-07 1.5859e-07 1.99846e-07 0.557549 0.917276 0 0 0 0 0 0 0 0 0 0 0 0 0 0 0 0 0 0 0 0 0 0 0 0 0 0 0 0 0 0 0 0 0 0 0 0 0 0 0 0 0 0
0.248097 3.59072e-07 1.595e-07 1.99571e-07 0.555798 0.918959 0 0 0 0 0 0 0 0 0 0 0 0 0 0 0 0 0 0 0 0 0 0 0 0 0 0 0 0 0 0 0 0 0 0 0 0 0 0 0 0 0 0
0.260832 3.59894e-07 1.60307e-07 1.99586e-07 0.55457 0.920233 0 0 0 0 0 0 0 0 0 0 0 0 0 0 0 0 0 0 0 0 0 0 0 0 0 0 0 0 0 0 0 0 0 0 0 0 0 0 0 0 0 0
0.274221 3.61146e-07 1.61044e-07 2.00102e-07 0.554075 0.921326 0 0 0 0 0 0 0 0 0 0 0 0 0 0 0 0 0 0 0 0 0 0 0 0 0 0 0 0 0 0 0 0 0 0 0 0 0 0 0 0 0 0
0.288297 3.62081e-07 1.6174e-07 2.00341e-07 0.553303 0.92203 0 0 0 0 0 0 0 0 0 0 0 0 0 0 0 0 0 0 0 0 0 0 0 0 0 0 0 0 0 0 0 0 0 0 0 0 0 0 0 0 0 0
0.303095 3.61673e-07 1.62383e-07 1.9929e-07 0.551023 0.921911 0 0 0 0 0 0 0 0 0 0 0 0 0 0 0 0 0 0 0 0 0 0 0 0 0 0 0 0 0 0 0 0 0 0 0 0 0 0 0 0 0 0
0.318653 3.63275e-07 1.62967e-07 2.00309e-07 0.551396 0.922374 0 0 0 0 0 0 0 0 0 0 0 0 0 0 0 0 0 0 0 0 0 0 0 0 0 0 0 0 0 0 0 0 0 0 0 0 0 0 0 0 0 0
0.335009 3.64648e-07 1.63481e-07 2.01167e-07 0.551675 0.92253 0 0 0 0 0 0 0 0 0 0 0 0 0 0 0 0 0 0 0 0 0 0 0 0 0 0 0 0 0 0 0 0 0 0 0 0 0 0 0 0 0 0
0.352205 3.63883e-07 1.64022e-07 1.99861e-07 0.549246 0.921653 0 0 0 0 0 0 0 0 0 0 0 0 0 0 0 0 0 0 0 0 0 0 0 0 0 0 0 0 0 0 0 0 0 0 0 0 0 0 0 0 0 0
0.370284 3.67199e-07 1.64432e-07 2.02766e-07 0.552198 0.922129 0 0 0 0 0 0 0 0 0 0 0 0 0 0 0 0 0 0 0 0 0 0 0 0 0 0 0 0 0 0 0 0 0 0 0 0 0 0 0 0 0 0
0.389291 3.65335e-07 1.64799e-07 2.00537e-07 0.548911 0.920459 0 0 0 0 0 0 0 0 0 0 0 0 0 0 0 0 0 0 0 0 0 0 0 0 0 0 0 0 0 0 0 0 0 0 0 0 0 0 0 0 0 0
0.409273 3.68673e-07 1.65135e-07 2.03538e-07 0.552084 0.920381 0 0 0 0 0 0 0 0 0 0 0 0 0 0 0 0 0 0 0 0 0 0 0 0 0 0 0 0 0 0 0 0 0 0 0 0 0 0 0 0 0 0
0.430281 3.69296e-07 1.65399e-07 2.03897e-07 0.552123 0.91915 0 0 0 0 0 0 0 0 0 0 0 0 0 0 0 0 0 0 0 0 0 0 0 0 0 0 0 0 0 0 0 0 0 0 0 0 0 0 0 0 0 0
0.452368 3.67333e-07 1.6555e-07 2.01782e-07 0.549318 0.916807 0 0 0 0 0 0 0 0 0 0 0 0 0 0 0 0 0 0 0 0 0 0 0 0 0 0 0 0 0 0 0 0 0 0 0 0 0 0 0 0 0 0
0.475588 3.74907e-07 1.65631e-07 2.09276e-07 0.558208 0.917882 0 0 0 0 0 0 0 0 0 0 0 0 0 0 0 0 0 0 0 0 0 0 0 0 0 0 0 0 0 0 0 0 0 0 0 0 0 0 0 0 0 0
0.5 3.69996e-07 1.65584e-07 2.04412e-07 0.55247 0.913481 0 0 0 0 0 0 0 0 0 0 0 0 0 0 0 0 0 0 0 0 0 0 0 0 0 0 0 0 0 0 0 0 0 0 0 0 0 0 0 0 0 0
0.525665 3.70308e-07 1.65596e-07 2.04713e-07 0.552816 0.910965 0 0 0 0 0 0 0 0 0 0 0 0 0 0 0 0 0 0 0 0 0 0 0 0 0 0 0 0 0 0 0 0 0 0 0 0 0 0 0 0 0 0
0.552648 3.80189e-07 1.65301e-07 2.14888e-07 0.565214 0.912204 0 0 0 0 0 0 0 0 0 0 0 0 0 0 0 0 0 0 0 0 0 0 0 0 0 0 0 0 0 0 0 0 0 0 0 0 0 0 0 0 0 0
0.581015 3.75623e-07 1.65126e-07 2.10497e-07 0.560394 0.907915 0 0 0 0 0 0 0 0 0 0 0 0 0 0 0 0 0 0 0 0 0 0 0 0 0 0 0 0 0 0 0 0 0 0 0 0 0 0 0 0 0 0
0.610839 3.69591e-07 1.64968e-07 2.04623e-07 0.553648 0.90228 0 0 0 0 0 0 0 0 0 0 0 0 0 0 0 0 0 0 0 0 0 0 0 0 0 0 0 0 0 0 0 0 0 0 0 0 0 0 0 0 0 0
0.642193 3.80048e-07 1.64281e-07 2.15766e-07 0.567735 0.903061 0 0 0 0 0 0 0 0 0 0 0 0 0 0 0 0 0 0 0 0 0 0 0 0 0 0 0 0 0 0 0 0 0 0 0 0 0 0 0 0 0 0
0.675157 3.89531e-07 1.64488e-07 2.25043e-07 0.577729 0.90267 0 0 0 0 0 0 0 0 0 0 0 0 0 0 0 0 0 0 0 0 0 0 0 0 0 0 0 0 0 0 0 0 0 0 0 0 0 0 0 0 0 0
0.709813 3.80317e-07 1.62973e-07 2.17344e-07 0.571482 0.893688 0 0 0 0 0 0 0 0 0 0 0 0 0 0 0 0 0 0 0 0 0 0 0 0 0 0 0 0 0 0 0 0 0 0 0 0 0 0 0 0 0 0
0.746248 3.71019e-07 1.62808e-07 2.0821e-07 0.561185 0.884117 0 0 0 0 0 0 0 0 0 0 0 0 0 0 0 0 0 0 0 0 0 0 0 0 0 0 0 0 0 0 0 0 0 0 0 0 0 0 0 0 0 0
0.784553 3.79094e-07 1.6135e-07 2.17744e-07 0.57438 0.884078 0 0 0 0 0 0 0 0 0 0 0 0 0 0 0 0 0 0 0 0 0 0 0 0 0 0 0 0 0 0 0 0 0 0 0 0 0 0 0 0 0 0
0.824824 3.97835e-07 1.6037e-07 2.37464e-07 0.596892 0.889348 0 0 0 0 0 0 0 0 0 0 0 0 0 0 0 0 0 0 0 0 0 0 0 0 0 0 0 0 0 0 0 0 0 0 0 0 0 0 0 0 0 0
0.867162 4.02522e-07 1.60483e-07 2.42039e-07 0.601307 0.887813 0 0 0 0 0 0 0 0 0 0 0 0 0 0 0 0 0 0 0 0 0 0 0 0 0 0 0 0 0 0 0 0 0 0 0 0 0 0 0 0 0 0
0.911674 3.88442e-07 1.59921e-07 2.28521e-07 0.588302 0.875666 0 0 0 0 0 0 0 0 0 0 0 0 0 0 0 0 0 0 0 0 0 0 0 0 0 0 0 0 0 0 0 0 0 0 0 0 0 0 0 0 0 0
0.95847 3.72469e-07 1.59143e-07 2.13326e-07 0.572735 0.859817 0 0 0 0 0 0 0 0 0 0 0 0 0 0 0 0 0 0 0 0 0 0 0 0 0 0 0 0 0 0 0 0 0 0 0 0 0 0 0 0 0 0
1.00767 3.73757e-07 1.58409e-07 2.15348e-07 0.576172 0.85324 0 0 0 0 0 0 0 0 0 0 0 0 0 0 0 0 0 0 0 0 0 0 0 0 0 0 0 0 0 0 0 0 0 0 0 0 0 0 0 0 0 0
1.05939 3.93863e-07 1.57443e-07 2.3642e-07 0.60026 0.856901 0 0 0 0 0 0 0 0 0 0 0 0 0 0 0 0 0 0 0 0 0 0 0 0 0 0 0 0 0 0 0 0 0 0 0 0 0 0 0 0 0 0
1.11377 4.18168e-07 1.56395e-07 2.61774e-07 0.626001 0.858165 0 0 0 0 0 0 0 0 0 0 0 0 0 0 0 0 0 0 0 0 0 0 0 0 0 0 0 0 0 0 0 0 0 0 0 0 0 0 0 0 0 0
1.17094 4.30209e-07 1.55084e-07 2.75125e-07 0.639516 0.85391 0 0 0 0 0 0 0 0 0 0 0 0 0 0 0 0 0 0 0 0 0 0 0 0 0 0 0 0 0 0 0 0 0 0 0 0 0 0 0 0 0 0
1.23105 4.20106e-07 1.51838e-07 2.68267e-07 0.638571 0.844301 0 0 0 0 0 0 0 0 0 0 0 0 0 0 0 0 0 0 0 0 0 0 0 0 0 0 0 0 0 0 0 0 0 0 0 0 0 0 0 0 0 0
1.29424 3.94461e-07 1.47357e-07 2.47104e-07 0.626435 0.818489 0 0 0 0 0 0 0 0 0 0 0 0 0 0 0 0 0 0 0 0 0 0 0 0 0 0 0 0 0 0 0 0 0 0 0 0 0 0 0 0 0 0
1.36067 3.7074e-07 1.4589e-07 2.2485e-07 0.606489 0.79575 0 0 0 0 0 0 0 0 0 0 0 0 0 0 0 0 0 0 0 0 0 0 0 0 0 0 0 0 0 0 0 0 0 0 0 0 0 0 0 0 0 0
1.43051 3.66931e-07 1.46711e-07 2.2022e-07 0.600167 0.790304 0 0 0 0 0 0 0 0 0 0 0 0 0 0 0 0 0 0 0 0 0 0 0 0 0 0 0 0 0 0 0 0 0 0 0 0 0 0 0 0 0 0
1.50394 3.84901e-07 1.45482e-07 2.3942e-07 0.622028 0.797541 0 0 0 0 0 0 0 0 0 0 0 0 0 0 0 0 0 0 0 0 0 0 0 0 0 0 0 0 0 0 0 0 0 0 0 0 0 0 0 0 0 0
1.58114 4.09188e-07 1.44422e-07 2.64765e-07 0.647051 0.816835 0 0 0 0 0 0 0 0 0 0 0 0 0 0 0 0 0 0 0 0 0 0 0 0 0 0 0 0 0 0 0 0 0 0 0 0 0 0 0 0 0 0
1.6623 4.38358e-07 1.43471e-07 2.94887e-07 0.672709 0.834846 0 0 0 0 0 0 0 0 0 0 0 0 0 0 0 0 0 0 0 0 0 0 0 0 0 0 0 0 0 0 0 0 0 0 0 0 0 0 0 0 0 0
1.74763 4.73057e-07 1.44959e-07 3.28098e-07 0.69357 0.839414 0 0 0 0 0 0 0 0 0 0 0 0 0 0 0 0 0 0 0 0 0 0 0 0 0 0 0 0 0 0 0 0 0 0 0 0 0 0 0 0 0 0
1.83733 4.77478e-07 1.44463e-07 3.33015e-07 0.697446 0.842775 0 0 0 0 0 0 0 0 0 0 0 0 0 0 0 0 0 0 0 0 0 0 0 0 0 0 0 0 0 0 0 0 0 0 0 0 0 0 0 0 0 0
1.93164 4.7187e-07 1.41217e-07 3.30653e-07 0.700729 0.825174 0 0 0 0 0 0 0 0 0 0 0 0 0 0 0 0 0 0 0 0 0 0 0 0 0 0 0 0 0 0 0 0 0 0 0 0 0 0 0 0 0 0
2.03079 4.51253e-07 1.42298e-07 3.08955e-07 0.68466 0.808875 0 0 0 0 0 0 0 0 0 0 0 0 0 0 0 0 0 0 0 0 0 0 0 0 0 0 0 0 0 0 0 0 0 0 0 0 0 0 0 0 0 0
2.13503 4.21124e-07 1.40954e-07 2.80169e-07 0.66529 0.756539 0 0 0 0 0 0 0 0 0 0 0 0 0 0 0 0 0 0 0 0 0 0 0 0 0 0 0 0 0 0 0 0 0 0 0 0 0 0 0 0 0 0
2.24463 3.88624e-07 1.40552e-07 2.48072e-07 0.638335 0.70794 0 0 0 0 0 0 0 0 0 0 0 0 0 0 0 0 0 0 0 0 0 0 0 0 0 0 0 0 0 0 0 0 0 0 0 0 0 0 0 0 0 0
2.35984 3.72076e-07 1.41291e-07 2.30785e-07 0.620262 0.640875 0 0 0 0 0 0 0 0 0 0 0 0 0 0 0 0 0 0 0 0 0 0 0 0 0 0 0 0 0 0 0 0 0 0 0 0 0 0 0 0 0 0
2.48097 3.456e-07 1.41846e-07 2.03755e-07 0.589567 0.548415 0 0 0 0 0 0 0 0 0 0 0 0 0 0 0 0 0 0 0 0 0 0 0 0 0 0 0 0 0 0 0 0 0 0 0 0 0 0 0 0 0 0
2.60832 3.61677e-07 1.34982e-07 2.26694e-07 0.626787 0.549261 0 0 0 0 0 0 0 0 0 0 0 0 0 0 0 0 0 0 0 0 0 0 0 0 0 0 0 0 0 0 0 0 0 0 0 0 0 0 0 0 0 0
2.74221 3.75136e-07 1.46783e-07 2.28353e-07 0.60872 0.523392 0 0 0 0 0 0 0 0 0 0 0 0 0 0 0 0 0 0 0 0 0 0 0 0 0 0 0 0 0 0 0 0 0 0 0 0 0 0 0 0 0 0
2.88297 3.79455e-07 1.26674e-07 2.52781e-07 0.666169 0.536115 0 0 0 0 0 0 0 0 0 0 0 0 0 0 0 0 0 0 0 0 0 0 0 0 0 0 0 0 0 0 0 0 0 0 0 0 0 0 0 0 0 0
3.03095 4.46433e-07 1.29868e-07 3.16566e-07 0.709099 0.589397 0 0 0 0 0 0 0 0 0 0 0 0 0 0 0 0 0 0 0 0 0 0 0 0 0 0 0 0 0 0 0 0 0 0 0 0 0 0 0 0 0 0
3.18653 4.8791e-07 1.40792e-07 3.47118e-07 0.71144 0.602679 0 0 0 0 0 0 0 0 0 0 0 0 0 0 0 0 0 0 0 0 0 0 0 0 0 0 0 0 0 0 0 0 0 0 0 0 0 0 0 0 0 0
3.35009 5.02113e-07 1.19903e-07 3.8221e-07 0.761203 0.643126 0 0 0 0 0 0 0 0 0 0 0 0 0 0 0 0 0 0 0 0 0 0 0 0 0 0 0 0 0 0 0 0 0 0 0 0 0 0 0 0 0 0
3.52205 5.80035e-07 1.19024e-07 4.61011e-07 0.794799 0.679448 0 0 0 0 0 0 0 0 0 0 0 0 0 0 0 0 0 0 0 0 0 0 0 0 0 0 0 0 0 0 0 0 0 0 0 0 0 0 0 0 0 0
3.70284 6.36359e-07 1.29506e-07 5.06853e-07 0.796489 0.683588 0 0 0 0 0 0 0 0 0 0 0 0 0 0 0 0 0 0 0 0 0 0 0 0 0 0 0 0 0 0 0 0 0 0 0 0 0 0 0 0 0 0
3.89291 6.22729e-07 1.1652e-07 5.06209e-07 0.812888 0.690385 0 0 0 0 0 0 0 0 0 0 0 0 0 0 0 0 0 0 0 0 0 0 0 0 0 0 0 0 0 0 0 0 0 0 0 0 0 0 0 0 0 0
4.09273 6.48523e-07 1.05707e-07 5.42817e-07 0.837004 0.721218 0 0 0 0 0 0 0 0 0 0 0 0 0 0 0 0 0 0 0 0 0 0 0 0 0 0 0 0 0 0 0 0 0 0 0 0 0 0 0 0 0 0
4.30281 6.98151e-07 1.08732e-07 5.89419e-07 0.844257 0.734374 0 0 0 0 0 0 0 0 0 0 0 0 0 0 0 0 0 0 0 0 0 0 0 0 0 0 0 0 0 0 0 0 0 0 0 0 0 0 0 0 0 0
4.52368 6.99755e-07 1.10866e-07 5.88889e-07 0.841564 0.725419 0 0 0 0 0 0 0 0 0 0 0 0 0 0 0 0 0 0 0 0 0 0 0 0 0 0 0 0 0 0 0 0 0 0 0 0 0 0 0 0 0 0
4.75588 6.49442e-07 9.94177e-08 5.50025e-07 0.846918 0.710961 0 0 0 0 0 0 0 0 0 0 0 0 0 0 0 0 0 0 0 0 0 0 0 0 0 0 0 0 0 0 0 0 0 0 0 0 0 0 0 0 0 0
5 6.21001e-07 9.03619e-08 5.30639e-07 0.85449 0.715548 0 0 0 0 0 0 0 0 0 0 0 0 0 0 0 0 0 0 0 0 0 0 0 0 0 0 0 0 0 0 0 0 0 0 0 0 0 0 0 0 0 0
5.25665 6.11522e-07 9.02473e-08 5.21274e-07 0.852422 0.73004 0 0 0 0 0 0 0 0 0 0 0 0 0 0 0 0 0 0 0 0 0 0 0 0 0 0 0 0 0 0 0 0 0 0 0 0 0 0 0 0 0 0
5.52648 5.81412e-07 9.22659e-08 4.89147e-07 0.841307 0.736303 0 0 0 0 0 0 0 0 0 0 0 0 0 0 0 0 0 0 0 0 0 0 0 0 0 0 0 0 0 0 0 0 0 0 0 0 0 0 0 0 0 0
5.81015 5.14803e-07 8.90995e-08 4.25704e-07 0.826925 0.723464 0 0 0 0 0 0 0 0 0 0 0 0 0 0 0 0 0 0 0 0 0 0 0 0 0 0 0 0 0 0 0 0 0 0 0 0 0 0 0 0 0 0
6.10839 4.41046e-07 8.20088e-08 3.59037e-07 0.814058 0.694738 0 0 0 0 0 0 0 0 0 0 0 0 0 0 0 0 0 0 0 0 0 0 0 0 0 0 0 0 0 0 0 0 0 0 0 0 0 0 0 0 0 0
6.42193 3.80227e-07 7.64298e-08 3.03797e-07 0.798989 0.669733 0 0 0 0 0 0 0 0 0 0 0 0 0 0 0 0 0 0 0 0 0 0 0 0 0 0 0 0 0 0 0 0 0 0 0 0 0 0 0 0 0 0
6.75157 3.21752e-07 7.295e-08 2.48802e-07 0.773273 0.662135 0 0 0 0 0 0 0 0 0 0 0 0 0 0 0 0 0 0 0 0 0 0 0 0 0 0 0 0 0 0 0 0 0 0 0 0 0 0 0 0 0 0
7.09813 2.49976e-07 6.97161e-08 1.8026e-07 0.721109 0.670526 0 0 0 0 0 0 0 0 0 0 0 0 0 0 0 0 0 0 0 0 0 0 0 0 0 0 0 0 0 0 0 0 0 0 0 0 0 0 0 0 0 0
7.46248 1.70605e-07 7.25311e-08 9.8074e-08 0.57486 0.671743 0 0 0 0 0 0 0 0 0 0 0 0 0 0 0 0 0 0 0 0 0 0 0 0 0 0 0 0 0 0 0 0 0 0 0 0 1.4013e-45 0 2.8026e-45 0 7.00649e-45 0
7.84553 1.45332e-07 1.03904e-07 4.14286e-08 0.285061 0.632892 0 0 0 0 0 0 0 0 0 0 0 0 0 0 0 0 0 0 0 0 0 0 0 0 0 0 1.4013e-45 0 2.8026e-45 0 1.12104e-44 0 3.22299e-44 0 9.66896e-44 0 2.53635e-43 0 6.54406e-43 0 1.54703e-42 0
8.24824 1.95836e-07 1.56925e-07 3.89111e-08 0.198692 0.583264 0 0 0 0 0 0 0 0 0 0 0 0 0 0 0 0 0 0 0 0 2.8026e-45 0 1.26117e-44 0 5.46506e-44 0 2.22806e-43 0 8.09951e-43 0 2.61342e-42 0 7.6609e-42 0 2.1601e-41 0 5.395e-41 0 1.32564e-40 0 3.00473e-40 0
8.67162 2.53833e-07 1.95048e-07 5.87848e-08 0.231588 0.542682 0 0 0 0 0 0 0 0 0 0 0 0 0 0 1.4013e-45 0 9.80909e-45 0 7.56701e-44 0 4.79244e-43 0 2.46629e-42 0 1.04243e-41 0 3.94634e-41 0 1.34745e-40 0 4.10492e-40 0 1.14195e-39 0 3.0609e-39 0 7.31038e-39 0 1.71916e-38 0 3.7441e-38 0
9.11674 3.27107e-07 2.33733e-07 9.33745e-08 0.285455 0.504465 0 0 0 0 0 0 0 0 0 0 0 0 1.26117e-44 0 1.87774e-43 0 1.87494e-42 0 1.35716e-41 0 7.8795e-41 0 3.73894e-40 0 1.4732e-39 0 5.22649e-39 0 1.68068e-38 0 4.84907e-38 0 1.28323e-37 0 3.27794e-37 0 7.50296e-37 0 1.69229e-36 0 3.54816e-36 0
9.5847 3.9706e-07 2.64822e-07 1.32238e-07 0.333043 0.474357 0 0 0 0 0 0 0 0 1.4013e-45 0 9.80909e-44 0 2.29813e-42 0 3.03199e-41 0 2.71518e-40 0 1.7843e-39 0 9.50695e-39 0 4.18093e-38 0 1.54067e-37 0 5.13818e-37 0 1.56069e-36 0 4.27585e-36 0 1.07903e-35 0 2.63296e-35 0 5.78784e-35 0 1.25462e-34 0 2.53713e-34 0
10.0767 4.27534e-07 2.7471e-07 1.52824e-07 0.357455 0.43793 0 0 0 0 0 0 2.8026e-45 0 3.47522e-43 0 1.49729e-41 0 2.99871e-40 0 3.48779e-39 0 2.80627e-38 0 1.6822e-37 0 8.25993e-37 0 3.37912e-36 0 1.16838e-35 0 3.67404e-35 0 1.05704e-34 0 2.75695e-34 0 6.64985e-34 0 1.55349e-33 0 3.28609e-33 0 6.85915e-33 0 1.34019e-32 0
10.5939 4.53184e-07 2.79068e-07 1.74116e-07 0.384206 0.397531 0 0 0 0 0 0 3.83956e-43 0 4.81416e-41 0 1.72766e-39 0 2.98914e-38 0 3.08414e-37 0 2.2413e-36 0 1.23104e-35 0 5.59283e-35 0 2.13593e-34 0 6.95125e-34 0 2.06694e-33 0 5.64768e-33 0 1.40565e-32 0 3.24782e-32 0 7.27941e-32 0 1.48451e-31 0 2.9893e-31 0 5.65281e-31 0
11.1377 4.64374e-07 2.79391e-07 1.84983e-07 0.39835 0.366731 0 0 0 0 5.32493e-44 0 5.17037e-41 0 5.11222e-39 0 1.54039e-37 0 2.31883e-36 0 2.13486e-35 0 1.40825e-34 0 7.11763e-34 0 3.0033e-33 0 1.07434e-32 0 3.30062e-32 0 9.30582e-32 0 2.42093e-31 0 5.76309e-31 0 1.27824e-30 0 2.75425e-30 0 5.42473e-30 0 1.05566e-29 0 1.93513e-29 0
11.7094 4.72731e-07 2.80302e-07 1.92429e-07 0.407059 0.343866 0 0 0 0 7.7688e-42 0 5.41658e-39 0 4.27964e-37 0 1.09199e-35 0 1.43999e-34 0 1.18957e-33 0 7.15643e-33 0 3.34192e-32 0 1.31441e-31 0 4.41822e-31 0 1.285e-30 0 3.44416e-30 0 8.55141e-30 0 1.95129e-29 0 4.1628e-29 0 8.63971e-29 0 1.64627e-28 0 3.10121e-28 0 5.51908e-28 0
12.3105 4.74372e-07 2.78426e-07 1.95946e-07 0.413065 0.33349 0 0 8.40779e-45 0 8.73286e-40 0 4.42314e-37 0 2.82332e-35 0 6.15012e-34 0 7.15048e-33 0 5.32834e-32 0 2.93664e-31 0 1.27196e-30 0 4.67919e-30 0 1.48245e-29 0 4.09259e-29 0 1.04538e-28 0 2.48281e-28 0 5.4417e-28 0 1.11875e-27 0 2.2406e-27 0 4.1371e-27 0 7.55608e-27 0 1.3074e-26 0
12.9424 4.52635e-07 2.64961e-07 1.87674e-07 0.414626 0.331677 0 0 1.15747e-42 0 7.37564e-38 0 2.75629e-35 0 1.43624e-33 0 2.69164e-32 0 2.77619e-31 0 1.87551e-30 0 9.51013e-30 0 3.83465e-29 0 1.32374e-28 0 3.96425e-28 0 1.04147e-27 0 2.54119e-27 0 5.78584e-27 0 1.22044e-26 0 2.42234e-26 0 4.68963e-26 0 8.40364e-26 0 1.49038e-25 0 2.51063e-25 0
13.6067 3.88205e-07 2.28673e-07 1.59531e-07 0.410946 0.319497 1.4013e-45 0 1.20732e-40 0 4.48308e-36 0 1.25459e-33 0 5.38984e-32 0 8.75435e-31 0 8.05705e-30 0 4.95836e-29 0 2.32264e-28 0 8.74895e-28 0 2.84291e-27 0 8.0698e-27 0 2.0224e-26 0 4.72437e-26 0 1.0333e-25 0 2.10161e-25 0 4.03397e-25 0 7.56187e-25 0 1.31701e-24 0 2.27127e-24 0 3.72991e-24 0
14.3051 3.03825e-07 1.88783e-07 1.15042e-07 0.378646 0.275215 1.23314e-43 0 9.41686e-39 0 2.09192e-34 0 4.44633e-32 0 1.5898e-30 0 2.25363e-29 0 1.8611e-28 0 1.0481e-27 0 4.55305e-27 0 1.60752e-26 0 4.93145e-26 0 1.33031e-25 0 3.18769e-25 0 7.14433e-25 0 1.50401e-24 0 2.95476e-24 0 5.49385e-24 0 9.98732e-24 0 1.69295e-23 0 2.84294e-23 0 4.557e-23 0
15.0394 2.65826e-07 1.81874e-07 8.39521e-08 0.315816 0.22804 1.5298e-41 0 6.78104e-37 0 9.24093e-33 0 1.51195e-30 0 4.53981e-29 0 5.65397e-28 0 4.21188e-27 0 2.18001e-26 0 8.81484e-26 0 2.9263e-25 0 8.49903e-25 0 2.18426e-24 0 5.01532e-24 0 1.08062e-23 0 2.1937e-23 0 4.16994e-23 0 7.522e-23 0 1.32811e-22 0 2.194e-22 0 3.59228e-22 0 5.627e-22 0
