# 4.0819e-05 0 72 : grain size, compostion index, size index
# Heating and cooling timescale: 0.00260988 61070.8
# Ratio of heating to cooling to determine stochastic cutoff: 100
# Equilibrium emission is recorded even for those grains in the stochastic regime.
# Emission spectrum was computed for: 
# Type: ISRF
# Scales: 0.25 0.5 1 1.5 2 2.5 3 3.5 4 4.5 5 5.5 6 6.5 7 7.5 8 8.5 9 9.5 10
# StochasticallyHeated: 0 0 0 0 0 0 0 0 0 0 0 0 0 0 0 0 0 0 0 0 0
# Temperature: -1
# Wavelength  CExt  CAbs  CSca  Albedo G EqEm1 StEm1 EqEm2 StEm2 EqEm3 StEm3 EqEm4 StEm4 EqEm5 StEm5 EqEm6 StEm6 EqEm7 StEm7 EqEm8 StEm8 EqEm9 StEm9 EqEm10 StEm10 EqEm11 StEm11 EqEm12 StEm12 EqEm13 StEm13 EqEm14 StEm14 EqEm15 StEm15 EqEm16 StEm16 EqEm17 StEm17 EqEm18 StEm18 EqEm19 StEm19 EqEm20 StEm20 EqEm21 StEm21
0.05 1.06559e-08 4.66467e-09 5.99118e-09 0.562243 0.965276 0 0 0 0 0 0 0 0 0 0 0 0 0 0 0 0 0 0 0 0 0 0 0 0 0 0 0 0 0 0 0 0 0 0 0 0 0 0 0 0 0 0
0.0525665 1.0685e-08 4.65769e-09 6.02733e-09 0.564092 0.962028 0 0 0 0 0 0 0 0 0 0 0 0 0 0 0 0 0 0 0 0 0 0 0 0 0 0 0 0 0 0 0 0 0 0 0 0 0 0 0 0 0 0
0.0552647 1.07202e-08 4.65327e-09 6.06692e-09 0.565934 0.958233 0 0 0 0 0 0 0 0 0 0 0 0 0 0 0 0 0 0 0 0 0 0 0 0 0 0 0 0 0 0 0 0 0 0 0 0 0 0 0 0 0 0
0.0581015 1.077e-08 4.6635e-09 6.10646e-09 0.56699 0.954114 0 0 0 0 0 0 0 0 0 0 0 0 0 0 0 0 0 0 0 0 0 0 0 0 0 0 0 0 0 0 0 0 0 0 0 0 0 0 0 0 0 0
0.0610839 1.08156e-08 4.66633e-09 6.14928e-09 0.568556 0.949323 0 0 0 0 0 0 0 0 0 0 0 0 0 0 0 0 0 0 0 0 0 0 0 0 0 0 0 0 0 0 0 0 0 0 0 0 0 0 0 0 0 0
0.0642193 1.08621e-08 4.66085e-09 6.20128e-09 0.570908 0.944111 0 0 0 0 0 0 0 0 0 0 0 0 0 0 0 0 0 0 0 0 0 0 0 0 0 0 0 0 0 0 0 0 0 0 0 0 0 0 0 0 0 0
0.0675157 1.09071e-08 4.64938e-09 6.25776e-09 0.573731 0.934882 0 0 0 0 0 0 0 0 0 0 0 0 0 0 0 0 0 0 0 0 0 0 0 0 0 0 0 0 0 0 0 0 0 0 0 0 0 0 0 0 0 0
0.0709813 1.09669e-08 4.66006e-09 6.30685e-09 0.57508 0.929664 0 0 0 0 0 0 0 0 0 0 0 0 0 0 0 0 0 0 0 0 0 0 0 0 0 0 0 0 0 0 0 0 0 0 0 0 0 0 0 0 0 0
0.0746248 1.09967e-08 4.68324e-09 6.31346e-09 0.574123 0.924593 0 0 0 0 0 0 0 0 0 0 0 0 0 0 0 0 0 0 0 0 0 0 0 0 0 0 0 0 0 0 0 0 0 0 0 0 0 0 0 0 0 0
0.0784553 1.10875e-08 4.73074e-09 6.35677e-09 0.573327 0.921401 0 0 0 0 0 0 0 0 0 0 0 0 0 0 0 0 0 0 0 0 0 0 0 0 0 0 0 0 0 0 0 0 0 0 0 0 0 0 0 0 0 0
0.0824824 1.11352e-08 4.80721e-09 6.32797e-09 0.568286 0.918934 0 0 0 0 0 0 0 0 0 0 0 0 0 0 0 0 0 0 0 0 0 0 0 0 0 0 0 0 0 0 0 0 0 0 0 0 0 0 0 0 0 0
0.0867162 1.11951e-08 4.87681e-09 6.31833e-09 0.564382 0.917483 0 0 0 0 0 0 0 0 0 0 0 0 0 0 0 0 0 0 0 0 0 0 0 0 0 0 0 0 0 0 0 0 0 0 0 0 0 0 0 0 0 0
0.0911674 1.12569e-08 4.95499e-09 6.30194e-09 0.559828 0.917292 0 0 0 0 0 0 0 0 0 0 0 0 0 0 0 0 0 0 0 0 0 0 0 0 0 0 0 0 0 0 0 0 0 0 0 0 0 0 0 0 0 0
0.095847 1.13119e-08 5.03458e-09 6.27731e-09 0.55493 0.918181 0 0 0 0 0 0 0 0 0 0 0 0 0 0 0 0 0 0 0 0 0 0 0 0 0 0 0 0 0 0 0 0 0 0 0 0 0 0 0 0 0 0
0.100767 1.13579e-08 5.113e-09 6.24491e-09 0.549829 0.919902 0 0 0 0 0 0 0 0 0 0 0 0 0 0 0 0 0 0 0 0 0 0 0 0 0 0 0 0 0 0 0 0 0 0 0 0 0 0 0 0 0 0
0.105939 1.13937e-08 5.1866e-09 6.20711e-09 0.544784 0.922017 0 0 0 0 0 0 0 0 0 0 0 0 0 0 0 0 0 0 0 0 0 0 0 0 0 0 0 0 0 0 0 0 0 0 0 0 0 0 0 0 0 0
0.111377 1.14037e-08 5.22957e-09 6.17408e-09 0.541412 0.923718 0 0 0 0 0 0 0 0 0 0 0 0 0 0 0 0 0 0 0 0 0 0 0 0 0 0 0 0 0 0 0 0 0 0 0 0 0 0 0 0 0 0
0.117094 1.15272e-08 5.13346e-09 6.39373e-09 0.554665 0.90003 0 0 0 0 0 0 0 0 0 0 0 0 0 0 0 0 0 0 0 0 0 0 0 0 0 0 0 0 0 0 0 0 0 0 0 0 0 0 0 0 0 0
0.123105 1.15059e-08 5.30879e-09 6.19713e-09 0.538603 0.923973 0 0 0 0 0 0 0 0 0 0 0 0 0 0 0 0 0 0 0 0 0 0 0 0 0 0 0 0 0 0 0 0 0 0 0 0 0 0 0 0 0 0
0.129424 1.15348e-08 5.33754e-09 6.1973e-09 0.537268 0.921794 0 0 0 0 0 0 0 0 0 0 0 0 0 0 0 0 0 0 0 0 0 0 0 0 0 0 0 0 0 0 0 0 0 0 0 0 0 0 0 0 0 0
0.136067 1.15643e-08 5.35309e-09 6.21124e-09 0.537103 0.917998 0 0 0 0 0 0 0 0 0 0 0 0 0 0 0 0 0 0 0 0 0 0 0 0 0 0 0 0 0 0 0 0 0 0 0 0 0 0 0 0 0 0
0.143051 1.15955e-08 5.3575e-09 6.23798e-09 0.537966 0.912757 0 0 0 0 0 0 0 0 0 0 0 0 0 0 0 0 0 0 0 0 0 0 0 0 0 0 0 0 0 0 0 0 0 0 0 0 0 0 0 0 0 0
0.150394 1.1631e-08 5.35533e-09 6.27564e-09 0.539563 0.906485 0 0 0 0 0 0 0 0 0 0 0 0 0 0 0 0 0 0 0 0 0 0 0 0 0 0 0 0 0 0 0 0 0 0 0 0 0 0 0 0 0 0
0.158114 1.16738e-08 5.34961e-09 6.32422e-09 0.541743 0.899516 0 0 0 0 0 0 0 0 0 0 0 0 0 0 0 0 0 0 0 0 0 0 0 0 0 0 0 0 0 0 0 0 0 0 0 0 0 0 0 0 0 0
0.16623 1.17266e-08 5.34554e-09 6.38106e-09 0.544153 0.892204 0 0 0 0 0 0 0 0 0 0 0 0 0 0 0 0 0 0 0 0 0 0 0 0 0 0 0 0 0 0 0 0 0 0 0 0 0 0 0 0 0 0
0.174762 1.1791e-08 5.34494e-09 6.44607e-09 0.546694 0.884744 0 0 0 0 0 0 0 0 0 0 0 0 0 0 0 0 0 0 0 0 0 0 0 0 0 0 0 0 0 0 0 0 0 0 0 0 0 0 0 0 0 0
0.183733 1.18681e-08 5.35094e-09 6.51721e-09 0.549135 0.87726 0 0 0 0 0 0 0 0 0 0 0 0 0 0 0 0 0 0 0 0 0 0 0 0 0 0 0 0 0 0 0 0 0 0 0 0 0 0 0 0 0 0
0.193164 1.19583e-08 5.3649e-09 6.59342e-09 0.551367 0.869868 0 0 0 0 0 0 0 0 0 0 0 0 0 0 0 0 0 0 0 0 0 0 0 0 0 0 0 0 0 0 0 0 0 0 0 0 0 0 0 0 0 0
0.203079 1.20595e-08 5.388e-09 6.67153e-09 0.553217 0.862672 0 0 0 0 0 0 0 0 0 0 0 0 0 0 0 0 0 0 0 0 0 0 0 0 0 0 0 0 0 0 0 0 0 0 0 0 0 0 0 0 0 0
0.213503 1.21705e-08 5.42055e-09 6.74991e-09 0.554614 0.855768 0 0 0 0 0 0 0 0 0 0 0 0 0 0 0 0 0 0 0 0 0 0 0 0 0 0 0 0 0 0 0 0 0 0 0 0 0 0 0 0 0 0
0.224463 1.2288e-08 5.4633e-09 6.82472e-09 0.555396 0.849359 0 0 0 0 0 0 0 0 0 0 0 0 0 0 0 0 0 0 0 0 0 0 0 0 0 0 0 0 0 0 0 0 0 0 0 0 0 0 0 0 0 0
0.235984 1.2409e-08 5.51449e-09 6.89456e-09 0.555608 0.843542 0 0 0 0 0 0 0 0 0 0 0 0 0 0 0 0 0 0 0 0 0 0 0 0 0 0 0 0 0 0 0 0 0 0 0 0 0 0 0 0 0 0
0.248097 1.25303e-08 5.57236e-09 6.95789e-09 0.555288 0.838433 0 0 0 0 0 0 0 0 0 0 0 0 0 0 0 0 0 0 0 0 0 0 0 0 0 0 0 0 0 0 0 0 0 0 0 0 0 0 0 0 0 0
0.260832 1.26447e-08 5.6367e-09 7.00795e-09 0.554223 0.834115 0 0 0 0 0 0 0 0 0 0 0 0 0 0 0 0 0 0 0 0 0 0 0 0 0 0 0 0 0 0 0 0 0 0 0 0 0 0 0 0 0 0
0.274221 1.27345e-08 5.70334e-09 7.03117e-09 0.552135 0.830103 0 0 0 0 0 0 0 0 0 0 0 0 0 0 0 0 0 0 0 0 0 0 0 0 0 0 0 0 0 0 0 0 0 0 0 0 0 0 0 0 0 0
0.288297 1.27738e-08 5.76976e-09 7.00404e-09 0.548313 0.825814 0 0 0 0 0 0 0 0 0 0 0 0 0 0 0 0 0 0 0 0 0 0 0 0 0 0 0 0 0 0 0 0 0 0 0 0 0 0 0 0 0 0
0.303095 1.2767e-08 5.83069e-09 6.93634e-09 0.543301 0.820946 0 0 0 0 0 0 0 0 0 0 0 0 0 0 0 0 0 0 0 0 0 0 0 0 0 0 0 0 0 0 0 0 0 0 0 0 0 0 0 0 0 0
0.318653 1.2798e-08 5.87424e-09 6.92373e-09 0.541002 0.816723 0 0 0 0 0 0 0 0 0 0 0 0 0 0 0 0 0 0 0 0 0 0 0 0 0 0 0 0 0 0 0 0 0 0 0 0 0 0 0 0 0 0
0.335009 1.29822e-08 5.89032e-09 7.09189e-09 0.546278 0.816261 0 0 0 0 0 0 0 0 0 0 0 0 0 0 0 0 0 0 0 0 0 0 0 0 0 0 0 0 0 0 0 0 0 0 0 0 0 0 0 0 0 0
0.352205 1.33901e-08 5.89343e-09 7.49663e-09 0.559865 0.821696 0 0 0 0 0 0 0 0 0 0 0 0 0 0 0 0 0 0 0 0 0 0 0 0 0 0 0 0 0 0 0 0 0 0 0 0 0 0 0 0 0 0
0.370284 1.38685e-08 5.84227e-09 8.02626e-09 0.578739 0.827414 0 0 0 0 0 0 0 0 0 0 0 0 0 0 0 0 0 0 0 0 0 0 0 0 0 0 0 0 0 0 0 0 0 0 0 0 0 0 0 0 0 0
0.389291 1.42436e-08 5.83653e-09 8.40707e-09 0.590235 0.830081 0 0 0 0 0 0 0 0 0 0 0 0 0 0 0 0 0 0 0 0 0 0 0 0 0 0 0 0 0 0 0 0 0 0 0 0 0 0 0 0 0 0
0.409273 1.40989e-08 5.68502e-09 8.41386e-09 0.596775 0.819423 0 0 0 0 0 0 0 0 0 0 0 0 0 0 0 0 0 0 0 0 0 0 0 0 0 0 0 0 0 0 0 0 0 0 0 0 0 0 0 0 0 0
0.430281 1.37798e-08 5.75225e-09 8.02756e-09 0.582559 0.798818 0 0 0 0 0 0 0 0 0 0 0 0 0 0 0 0 0 0 0 0 0 0 0 0 0 0 0 0 0 0 0 0 0 0 0 0 0 0 0 0 0 0
0.452368 1.26852e-08 5.48053e-09 7.20469e-09 0.567959 0.755665 0 0 0 0 0 0 0 0 0 0 0 0 0 0 0 0 0 0 0 0 0 0 0 0 0 0 0 0 0 0 0 0 0 0 0 0 0 0 0 0 0 0
0.475588 1.21853e-08 5.52166e-09 6.66362e-09 0.546858 0.697871 0 0 0 0 0 0 0 0 0 0 0 0 0 0 0 0 0 0 0 0 0 0 0 0 0 0 0 0 0 0 0 0 0 0 0 0 0 0 0 0 0 0
0.5 1.14599e-08 5.42525e-09 6.03467e-09 0.526589 0.630185 0 0 0 0 0 0 0 0 0 0 0 0 0 0 0 0 0 0 0 0 0 0 0 0 0 0 0 0 0 0 0 0 0 0 0 0 0 0 0 0 0 0
0.525665 1.10932e-08 5.14725e-09 5.94596e-09 0.536 0.587631 0 0 0 0 0 0 0 0 0 0 0 0 0 0 0 0 0 0 0 0 0 0 0 0 0 0 0 0 0 0 0 0 0 0 0 0 0 0 0 0 0 0
0.552648 1.22648e-08 5.27385e-09 6.99096e-09 0.570002 0.573379 0 0 0 0 0 0 0 0 0 0 0 0 0 0 0 0 0 0 0 0 0 0 0 0 0 0 0 0 0 0 0 0 0 0 0 0 0 0 0 0 0 0
0.581015 1.25465e-08 5.12932e-09 7.41716e-09 0.591174 0.573423 0 0 0 0 0 0 0 0 0 0 0 0 0 0 0 0 0 0 0 0 0 0 0 0 0 0 0 0 0 0 0 0 0 0 0 0 0 0 0 0 0 0
0.610839 1.35503e-08 4.96018e-09 8.59013e-09 0.633943 0.612055 0 0 0 0 0 0 0 0 0 0 0 0 0 0 0 0 0 0 0 0 0 0 0 0 0 0 0 0 0 0 0 0 0 0 0 0 0 0 0 0 0 0
0.642193 1.5659e-08 4.9238e-09 1.07352e-08 0.685561 0.641518 0 0 0 0 0 0 0 0 0 0 0 0 0 0 0 0 0 0 0 0 0 0 0 0 0 0 0 0 0 0 0 0 0 0 0 0 0 0 0 0 0 0
0.675157 1.69594e-08 4.90406e-09 1.20553e-08 0.710834 0.652646 0 0 0 0 0 0 0 0 0 0 0 0 0 0 0 0 0 0 0 0 0 0 0 0 0 0 0 0 0 0 0 0 0 0 0 0 0 0 0 0 0 0
0.709813 1.77052e-08 4.80645e-09 1.28987e-08 0.728528 0.665758 0 0 0 0 0 0 0 0 0 0 0 0 0 0 0 0 0 0 0 0 0 0 0 0 0 0 0 0 0 0 0 0 0 0 0 0 0 0 0 0 0 0
0.746248 1.90175e-08 4.63064e-09 1.43868e-08 0.756506 0.686011 0 0 0 0 0 0 0 0 0 0 0 0 0 0 0 0 0 0 0 0 0 0 0 0 0 0 0 0 0 0 0 0 0 0 0 0 0 0 0 0 0 0
0.784553 2.05493e-08 4.5529e-09 1.59964e-08 0.77844 0.70336 0 0 0 0 0 0 0 0 0 0 0 0 0 0 0 0 0 0 0 0 0 0 0 0 0 0 0 0 0 0 0 0 0 0 0 0 0 0 0 0 0 0
0.824824 2.14408e-08 4.60602e-09 1.68347e-08 0.785174 0.70921 0 0 0 0 0 0 0 0 0 0 0 0 0 0 0 0 0 0 0 0 0 0 0 0 0 0 0 0 0 0 0 0 0 0 0 0 0 0 0 0 0 0
0.867162 2.15519e-08 4.58115e-09 1.69708e-08 0.787436 0.701409 0 0 0 0 0 0 0 0 0 0 0 0 0 0 0 0 0 0 0 0 0 0 0 0 0 0 0 0 0 0 0 0 0 0 0 0 0 0 0 0 0 0
0.911674 2.13919e-08 4.33339e-09 1.70585e-08 0.797429 0.688126 0 0 0 0 0 0 0 0 0 0 0 0 0 0 0 0 0 0 0 0 0 0 0 0 0 0 0 0 0 0 0 0 0 0 0 0 0 0 0 0 0 0
0.95847 2.14296e-08 4.08e-09 1.73496e-08 0.809609 0.683511 0 0 0 0 0 0 0 0 0 0 0 0 0 0 0 0 0 0 0 0 0 0 0 0 0 0 0 0 0 0 0 0 0 0 0 0 0 0 0 0 0 0
1.00767 2.16409e-08 4.0376e-09 1.76033e-08 0.813427 0.690017 0 0 0 0 0 0 0 0 0 0 0 0 0 0 0 0 0 0 0 0 0 0 0 0 0 0 0 0 0 0 0 0 0 0 0 0 0 0 0 0 0 0
1.05939 2.16532e-08 4.16399e-09 1.74892e-08 0.807696 0.698503 0 0 0 0 0 0 0 0 0 0 0 0 0 0 0 0 0 0 0 0 0 0 0 0 0 0 0 0 0 0 0 0 0 0 0 0 0 0 0 0 0 0
1.11377 2.11131e-08 4.24806e-09 1.6865e-08 0.798794 0.697066 0 0 0 0 0 0 0 0 0 0 0 0 0 0 0 0 0 0 0 0 0 0 0 0 0 0 0 0 0 0 0 0 0 0 0 0 0 0 0 0 0 0
1.17094 1.9994e-08 4.1056e-09 1.58884e-08 0.794658 0.6782 0 0 0 0 0 0 0 0 0 0 0 0 0 0 0 0 0 0 0 0 0 0 0 0 0 0 0 0 0 0 0 0 0 0 0 0 0 0 0 0 0 0
1.23105 1.86557e-08 3.76546e-09 1.48902e-08 0.79816 0.64481 0 0 0 0 0 0 0 0 0 0 0 0 0 0 0 0 0 0 0 0 0 0 0 0 0 0 0 0 0 0 0 0 0 0 0 0 0 0 0 0 0 0
1.29424 1.74923e-08 3.41306e-09 1.40793e-08 0.804883 0.608143 0 0 0 0 0 0 0 0 0 0 0 0 0 0 0 0 0 0 0 0 0 0 0 0 0 0 0 0 0 0 0 0 0 0 0 0 0 0 0 0 0 0
1.36067 1.66373e-08 3.19435e-09 1.34429e-08 0.808 0.578826 0 0 0 0 0 0 0 0 0 0 0 0 0 0 0 0 0 0 0 0 0 0 0 0 0 0 0 0 0 0 0 0 0 0 0 0 0 0 0 0 0 0
1.43051 1.59893e-08 3.14415e-09 1.28451e-08 0.803358 0.561795 0 0 0 0 0 0 0 0 0 0 0 0 0 0 0 0 0 0 0 0 0 0 0 0 0 0 0 0 0 0 0 0 0 0 0 0 0 0 0 0 0 0
1.50394 1.53468e-08 3.21309e-09 1.21337e-08 0.790635 0.55657 0 0 0 0 0 0 0 0 0 0 0 0 0 0 0 0 0 0 0 0 0 0 0 0 0 0 0 0 0 0 0 0 0 0 0 0 0 0 0 0 0 0
1.58114 1.4517e-08 3.30619e-09 1.12108e-08 0.772253 0.558683 0 0 0 0 0 0 0 0 0 0 0 0 0 0 0 0 0 0 0 0 0 0 0 0 0 0 0 0 0 0 0 0 0 0 0 0 0 0 0 0 0 0
1.6623 1.34061e-08 3.3262e-09 1.00799e-08 0.751888 0.561092 0 0 0 0 0 0 0 0 0 0 0 0 0 0 0 0 0 0 0 0 0 0 0 0 0 0 0 0 0 0 0 0 0 0 0 0 0 0 0 0 0 0
1.74763 1.20643e-08 3.22121e-09 8.84305e-09 0.732996 0.556408 0 0 0 0 0 0 0 0 0 0 0 0 0 0 0 0 0 0 0 0 0 0 0 0 0 0 0 0 0 0 0 0 0 0 0 0 0 0 0 0 0 0
1.83733 1.06353e-08 3.00333e-09 7.63197e-09 0.717607 0.539857 0 0 0 0 0 0 0 0 0 0 0 0 0 0 0 0 0 0 0 0 0 0 0 0 0 0 0 0 0 0 0 0 0 0 0 0 0 0 0 0 0 0
1.93164 9.25911e-09 2.72346e-09 6.53565e-09 0.705862 0.511113 0 0 0 0 0 0 0 0 0 0 0 0 0 0 0 0 0 0 0 0 0 0 0 0 0 0 0 0 0 0 0 0 0 0 0 0 0 0 0 0 0 0
2.03079 8.01752e-09 2.43297e-09 5.58455e-09 0.696543 0.473501 0 0 0 0 0 0 0 0 0 0 0 0 0 0 0 0 0 0 0 0 0 0 0 0 0 0 0 0 0 0 0 0 0 0 0 0 0 0 0 0 0 0
2.13503 6.93092e-09 2.16369e-09 4.76723e-09 0.68782 0.431676 0 0 0 0 0 0 0 0 0 0 0 0 0 0 0 0 0 0 0 0 0 0 0 0 0 0 0 0 0 0 0 0 0 0 0 0 0 0 0 0 0 0
2.24463 5.99133e-09 1.92839e-09 4.06294e-09 0.678137 0.389566 0 0 0 0 0 0 0 0 0 0 0 0 0 0 0 0 0 0 0 0 0 0 0 0 0 0 0 0 0 0 0 0 0 0 0 0 0 0 0 0 0 0
2.35984 5.18039e-09 1.72795e-09 3.45244e-09 0.666443 0.349639 0 0 0 0 0 0 0 0 0 0 0 0 0 0 0 0 0 0 0 0 0 0 0 0 0 0 0 0 0 0 0 0 0 0 0 0 0 0 0 0 0 0
2.48097 4.48037e-09 1.55838e-09 2.92199e-09 0.652177 0.313117 0 0 0 0 0 0 0 0 0 0 0 0 0 0 0 0 0 0 0 0 0 0 0 0 0 0 0 0 0 0 0 0 0 0 0 0 0 0 0 0 0 0
2.60832 3.87598e-09 1.41416e-09 2.46181e-09 0.635146 0.28035 0 0 0 0 0 0 0 0 0 0 0 0 0 0 0 0 0 0 0 0 0 0 0 0 0 0 0 0 0 0 0 0 0 0 0 0 0 0 0 0 0 0
2.74221 3.35467e-09 1.29027e-09 2.0644e-09 0.615382 0.251243 0 0 0 0 0 0 0 0 0 0 0 0 0 0 0 0 0 0 0 0 0 0 0 0 0 0 0 0 0 0 0 0 0 0 0 0 0 0 0 0 0 0
2.88297 2.90596e-09 1.18285e-09 1.72311e-09 0.592958 0.225485 0 0 0 0 0 0 0 0 0 0 0 0 0 0 0 0 0 0 0 0 0 0 0 0 0 0 0 0 0 0 0 0 0 0 0 0 0 0 0 0 0 0
3.03095 2.51966e-09 1.08902e-09 1.43064e-09 0.567792 0.202659 0 0 0 0 0 0 0 0 0 0 0 0 0 0 0 0 0 0 0 0 0 0 0 0 0 0 0 0 0 0 0 0 0 0 0 0 0 0 0 0 0 0
3.18653 2.19088e-09 1.0116e-09 1.17928e-09 0.538267 0.182442 0 0 0 0 0 0 0 0 0 0 0 0 0 0 0 0 0 0 0 0 0 0 0 0 0 0 0 0 0 0 0 0 0 0 0 0 0 0 0 0 0 0
3.35009 2.00891e-09 1.04645e-09 9.62467e-10 0.479098 0.164752 0 0 0 0 0 0 0 0 0 0 0 0 0 0 0 0 0 0 0 0 0 0 0 0 0 0 0 0 0 0 0 0 0 0 0 0 0 0 0 0 0 0
3.52205 1.81014e-09 9.57497e-10 8.52645e-10 0.471038 0.149509 0 0 0 0 0 0 0 0 0 0 0 0 0 0 0 0 0 0 0 0 0 0 0 0 0 0 0 0 0 0 0 0 0 0 0 0 0 0 0 0 0 0
3.70284 1.47942e-09 7.93614e-10 6.85807e-10 0.463565 0.134696 0 0 0 0 0 0 0 0 0 0 0 0 0 0 0 0 0 0 0 0 0 0 0 0 0 0 0 0 0 0 0 0 0 0 0 0 0 0 0 0 0 0
3.89291 1.2976e-09 7.35653e-10 5.61945e-10 0.433066 0.121872 0 0 0 0 0 0 0 0 0 0 0 0 0 0 0 0 0 0 0 0 0 0 0 0 0 0 0 0 0 0 0 0 0 0 0 0 0 0 0 0 0 0
4.09273 1.14549e-09 6.83991e-10 4.61503e-10 0.402886 0.110395 0 0 0 0 0 0 0 0 0 0 0 0 0 0 0 0 0 0 0 0 0 0 0 0 0 0 0 0 0 0 0 0 0 0 0 0 0 0 0 0 0 0
4.30281 1.01599e-09 6.369e-10 3.79094e-10 0.373126 0.100079 0 0 0 0 0 0 0 0 0 0 0 0 0 0 0 0 0 0 0 0 0 0 0 0 0 0 0 0 0 0 0 0 0 0 0 0 0 0 0 0 0 0
4.52368 9.0523e-10 5.93826e-10 3.11404e-10 0.344006 0.0907774 0 0 0 0 0 0 0 0 0 0 0 0 0 0 0 0 0 0 0 0 0 0 0 0 0 0 0 0 0 0 0 0 0 0 0 0 0 0 0 0 0 0
4.75588 8.09987e-10 5.54259e-10 2.55728e-10 0.315719 0.0823784 0 0 0 0 0 0 0 0 0 0 0 0 0 0 0 0 0 0 0 0 0 0 0 0 0 0 0 0 0 0 0 0 0 0 0 0 0 0 0 0 0 0
5 7.27959e-10 5.17974e-10 2.09985e-10 0.288457 0.0747828 0 0 0 0 0 0 0 0 0 0 0 0 0 0 0 0 0 0 0 0 0 0 0 0 0 0 0 0 0 0 0 0 0 0 0 0 0 0 0 0 0 0
5.25665 6.56978e-10 4.84599e-10 1.72379e-10 0.262382 0.0679009 0 0 0 0 0 0 0 0 0 0 0 0 0 0 0 0 0 0 0 0 0 0 0 0 0 0 0 0 0 0 0 0 0 0 0 0 0 0 0 0 0 0
5.52648 5.95455e-10 4.53981e-10 1.41474e-10 0.23759 0.0616565 0 0 0 0 0 0 0 0 0 0 0 0 0 0 0 0 0 0 0 0 0 0 0 0 0 0 0 0 0 0 0 0 0 0 0 0 0 0 1.4013e-45 0 2.8026e-45 0
5.81015 5.42366e-10 4.26329e-10 1.16037e-10 0.213947 0.0559686 0 0 0 0 0 0 0 0 0 0 0 0 0 0 0 0 0 0 0 0 0 0 0 0 0 0 0 0 0 0 1.4013e-45 0 4.2039e-45 0 1.68156e-44 0 5.1848e-44 0 1.55544e-43 0 4.52619e-43 0
6.10839 5.02529e-10 4.07463e-10 9.5067e-11 0.189177 0.0507322 0 0 0 0 0 0 0 0 0 0 0 0 0 0 0 0 0 0 0 0 0 0 0 0 1.4013e-45 0 8.40779e-45 0 4.06377e-44 0 1.68156e-43 0 6.06762e-43 0 2.07532e-42 0 6.26801e-42 0 1.76381e-41 0 4.85816e-41 0
6.42193 4.61011e-10 3.82429e-10 7.85823e-11 0.170457 0.046426 0 0 0 0 0 0 0 0 0 0 0 0 0 0 0 0 0 0 0 0 5.60519e-45 0 3.92364e-44 0 2.2701e-43 0 1.14486e-42 0 4.72518e-42 0 1.83066e-41 0 6.21994e-41 0 2.00344e-40 0 5.73261e-40 0 1.53368e-39 0 4.0204e-39 0
6.75157 4.26478e-10 3.62258e-10 6.42204e-11 0.150583 0.0420992 0 0 0 0 0 0 0 0 0 0 0 0 0 0 0 0 7.00649e-45 0 8.40779e-44 0 6.92241e-43 0 4.57384e-42 0 2.42467e-41 0 1.13019e-40 0 4.35487e-40 0 1.57919e-39 0 5.05459e-39 0 1.53772e-38 0 4.17986e-38 0 1.0658e-37 0 2.66549e-37 0
7.09813 4.00966e-10 3.47987e-10 5.29791e-11 0.132129 0.0382001 0 0 0 0 0 0 0 0 0 0 0 0 2.8026e-45 0 6.72623e-44 0 9.64093e-43 0 9.45736e-42 0 6.9957e-41 0 4.21789e-40 0 2.06131e-39 0 8.91274e-39 0 3.21539e-38 0 1.09491e-37 0 3.31102e-37 0 9.54028e-37 0 2.46969e-36 0 6.01603e-36 0 1.43871e-35 0
7.46248 3.68494e-10 3.25001e-10 4.34922e-11 0.118027 0.0346254 0 0 0 0 0 0 0 0 0 0 8.40779e-45 0 3.6714e-43 0 7.33299e-42 0 9.19798e-41 0 8.07013e-40 0 5.41353e-39 0 2.98985e-38 0 1.35224e-37 0 5.44349e-37 0 1.84457e-36 0 5.91641e-36 0 1.69503e-35 0 4.63806e-35 0 1.14617e-34 0 2.67324e-34 0 6.12651e-34 0
7.84553 3.52902e-10 3.1682e-10 3.6082e-11 0.102244 0.0317953 0 0 0 0 0 0 0 0 1.26117e-44 0 1.11683e-42 0 3.76599e-41 0 6.51047e-40 0 7.21754e-39 0 5.69547e-38 0 3.48154e-37 0 1.76891e-36 0 7.43207e-36 0 2.79514e-35 0 8.92364e-35 0 2.70391e-34 0 7.35856e-34 0 1.91694e-33 0 4.5325e-33 0 1.01431e-32 0 2.23234e-32 0
8.24824 3.12089e-10 2.82471e-10 2.96178e-11 0.0949016 0.0289333 0 0 0 0 0 0 4.2039e-45 0 1.41952e-42 0 9.80292e-41 0 2.78552e-39 0 4.18987e-38 0 4.13016e-37 0 2.94649e-36 0 1.64877e-35 0 7.73796e-35 0 3.03106e-34 0 1.06856e-33 0 3.22348e-33 0 9.25271e-33 0 2.39795e-32 0 5.96149e-32 0 1.35156e-31 0 2.90796e-31 0 6.15817e-31 0
8.67162 2.94159e-10 2.6978e-10 2.43788e-11 0.0828762 0.0263442 0 0 0 0 0 0 5.395e-43 0 1.29612e-40 0 7.28154e-39 0 1.75714e-37 0 2.31537e-36 0 2.04111e-35 0 1.32294e-34 0 6.80584e-34 0 2.96187e-33 0 1.08538e-32 0 3.59808e-32 0 1.02845e-31 0 2.80394e-31 0 6.93662e-31 0 1.6495e-30 0 3.59317e-30 0 7.44704e-30 0 1.52033e-29 0
9.11674 2.67094e-10 2.47095e-10 1.99989e-11 0.0748758 0.0239302 0 0 0 0 1.96182e-44 0 4.88409e-41 0 8.97685e-39 0 4.14269e-37 0 8.55778e-36 0 9.94264e-35 0 7.8813e-34 0 4.66276e-33 0 2.21439e-32 0 8.9692e-32 0 3.08484e-31 0 9.64515e-31 0 2.6191e-30 0 6.79941e-30 0 1.60932e-29 0 3.66843e-29 0 7.69303e-29 0 1.53868e-28 0 3.03368e-28 0
9.5847 2.48578e-10 2.32168e-10 1.64102e-11 0.0660163 0.0217286 0 0 0 0 2.08793e-42 0 3.57997e-39 0 5.10109e-37 0 1.9524e-35 0 3.4789e-34 0 3.58573e-33 0 2.56907e-32 0 1.39356e-31 0 6.13341e-31 0 2.32029e-30 0 7.51326e-30 0 2.22194e-29 0 5.74638e-29 0 1.42391e-28 0 3.23138e-28 0 7.07543e-28 0 1.43109e-27 0 2.76708e-27 0 5.27773e-27 0
10.0767 2.32321e-10 2.18845e-10 1.34764e-11 0.0580076 0.0197398 0 0 0 0 1.76388e-40 0 2.10221e-37 0 2.35127e-35 0 7.53228e-34 0 1.16607e-32 0 1.0725e-31 0 6.97976e-31 0 3.48608e-30 0 1.42722e-29 0 5.05962e-29 0 1.547e-28 0 4.33913e-28 0 1.07131e-27 0 2.5396e-27 0 5.53723e-27 0 1.16692e-26 0 2.28044e-26 0 4.26964e-26 0 7.89088e-26 0
10.5939 2.17628e-10 2.06559e-10 1.10693e-11 0.0508634 0.017936 0 0 2.94273e-44 0 1.18335e-38 0 9.97991e-36 0 8.86607e-34 0 2.39797e-32 0 3.24752e-31 0 2.68023e-30 0 1.59185e-29 0 7.35012e-29 0 2.80905e-28 0 9.36165e-28 0 2.71036e-27 0 7.22887e-27 0 1.70773e-26 0 3.88121e-26 0 8.14641e-26 0 1.65542e-25 0 3.13097e-25 0 5.6853e-25 0 1.01968e-24 0
11.1377 2.04739e-10 1.95645e-10 9.09435e-12 0.0444193 0.0162975 0 0 3.04222e-42 0 6.39082e-37 0 3.8789e-34 0 2.76806e-32 0 6.37333e-31 0 7.60011e-30 0 5.65832e-29 0 3.08063e-28 0 1.32006e-27 0 4.72532e-27 0 1.48491e-26 0 4.08162e-26 0 1.03771e-25 0 2.3507e-25 0 5.13258e-25 0 1.03899e-24 0 2.03948e-24 0 3.73919e-24 0 6.59483e-24 0 1.14955e-23 0
11.7094 1.91985e-10 1.84506e-10 7.47905e-12 0.0389565 0.0148206 0 0 2.4133e-40 0 2.7866e-35 0 1.23692e-32 0 7.16663e-31 0 1.41579e-29 0 1.49588e-28 0 1.00971e-27 0 5.06075e-27 0 2.01983e-26 0 6.79379e-26 0 2.01883e-25 0 5.28195e-25 0 1.28307e-24 0 2.79276e-24 0 5.86968e-24 0 1.14799e-23 0 2.18044e-23 0 3.88105e-23 0 6.65799e-23 0 1.1295e-22 0
12.3105 1.80545e-10 1.74399e-10 6.14601e-12 0.0340414 0.013468 4.76441e-44 0 1.52649e-38 0 9.97674e-34 0 3.28857e-31 0 1.5628e-29 0 2.66886e-28 0 2.51323e-27 0 1.5454e-26 0 7.15953e-26 0 2.67077e-25 0 8.46667e-25 0 2.38566e-24 0 5.95537e-24 0 1.38531e-23 0 2.90293e-23 0 5.88394e-23 0 1.1137e-22 0 2.05008e-22 0 3.54773e-22 0 5.92789e-22 0 9.8002e-22 0
12.9424 1.69972e-10 1.64919e-10 5.05366e-12 0.0297323 0.0122447 4.44212e-42 0 7.772e-37 0 2.95613e-32 0 7.34179e-30 0 2.88952e-28 0 4.29612e-27 0 3.62604e-26 0 2.04047e-25 0 8.77127e-25 0 3.06831e-24 0 9.19415e-24 0 2.46287e-23 0 5.87954e-23 0 1.31244e-22 0 2.65268e-22 0 5.19439e-22 0 9.53029e-22 0 1.70282e-21 0 2.86893e-21 0 4.67504e-21 0 7.54153e-21 0
