# 1.2451e-07 1 12 : grain size, compostion index, size index
# This grain was stochastically heated: Yes
# Heating and cooling timescale: 398273 12.9565
# Ratio of heating to cooling to determine stochastic cutoff: 100
# Equilibrium emission is recorded even for those grains in the stochastic regime.
# Emission spectrum was computed for: 
# Type: IRSF
# Scale: 1
# Temperature: -1
# Wavelength  CExt  CAbs  CSca  Albedo G EqEmission StEmission
0.05 8.1253e-15 8.11343e-15 1.1872e-17 0.00146112 0.00340671 0 0
0.0525665 9.41091e-15 9.39817e-15 1.2739e-17 0.00135364 0.00303421 0 9.36134e-312
0.0552647 1.0862e-14 1.08483e-14 1.36576e-17 0.00125737 0.00270137 0 5.62601e-297
0.0581015 1.28217e-14 1.28072e-14 1.44178e-17 0.00112448 0.00240362 0 6.54837e-283
0.0610839 1.78864e-14 1.7871e-14 1.53463e-17 0.000857988 0.00211659 0 1.85054e-269
0.0642193 2.26026e-14 2.25855e-14 1.71249e-17 0.000757652 0.0018306 0 1.05107e-256
0.0675157 2.70359e-14 2.70158e-14 2.01775e-17 0.000746319 0.00154216 0 1.34955e-244
0.0709813 3.10606e-14 3.10397e-14 2.09172e-17 0.000673432 0.00129174 0 4.2628e-233
0.0746248 2.90177e-14 2.89994e-14 1.83427e-17 0.000632119 0.00111291 0 2.99764e-222
0.0784553 2.28026e-14 2.27883e-14 1.42709e-17 0.000625844 0.000993943 0 5.17046e-212
0.0824824 1.80985e-14 1.80885e-14 1.00498e-17 0.000555284 0.000928155 0 2.79054e-202
0.0867162 1.51605e-14 1.51528e-14 7.74253e-18 0.000510703 0.000890392 0 5.21188e-193
0.0911674 1.32283e-14 1.32218e-14 6.49667e-18 0.000491119 0.000863851 0 3.5123e-184
0.095847 1.18379e-14 1.18328e-14 5.15867e-18 0.000435774 0.000910158 0 8.85227e-176
0.100767 1.0391e-14 1.03875e-14 3.51994e-18 0.000338748 0.00106173 0 8.38747e-168
0.105939 9.05895e-15 9.05651e-15 2.43835e-18 0.000269165 0.00114604 0 3.16895e-160
0.111377 7.77386e-15 7.77237e-15 1.4905e-18 0.000191732 0.00131185 0 4.94771e-153
0.117094 6.58884e-15 6.58792e-15 9.28648e-19 0.000140942 0.0012026 0 3.34205e-146
0.123105 5.53864e-15 5.53803e-15 6.04824e-19 0.000109201 0.00103198 0 1.02106e-139
0.129424 4.65922e-15 4.65883e-15 3.88931e-19 8.34756e-05 0.00086796 0 1.47932e-133
0.136067 4.22583e-15 4.22558e-15 2.51915e-19 5.96132e-05 0.000734403 0 1.1358e-127
0.143051 3.83605e-15 3.83588e-15 1.65434e-19 4.3126e-05 0.0006265 0 4.44122e-122
0.150394 3.62448e-15 3.62437e-15 1.12683e-19 3.10893e-05 0.000534833 0 9.50667e-117
0.158114 3.58357e-15 3.58348e-15 8.51998e-20 2.37751e-05 0.000458018 0 1.15571e-111
0.16623 3.72725e-15 3.72718e-15 7.86775e-20 2.11087e-05 0.000393766 0 8.26458e-107
0.174762 4.08486e-15 4.08476e-15 9.47648e-20 2.3199e-05 0.000338595 0 3.58269e-102
0.183733 4.72084e-15 4.7207e-15 1.3528e-19 2.8656e-05 0.000288396 0 9.68056e-98
0.193164 5.84401e-15 5.8438e-15 2.14872e-19 3.67679e-05 0.000239997 0 1.69923e-93
0.203079 7.65397e-15 7.65364e-15 3.28066e-19 4.28622e-05 0.000192455 0 1.96123e-89
0.213503 9.42883e-15 9.42843e-15 4.029e-19 4.27307e-05 0.000148014 0 1.35442e-85
0.224463 9.05867e-15 9.05833e-15 3.34919e-19 3.69722e-05 0.000109592 0 4.74442e-82
0.235984 7.00799e-15 7.00776e-15 2.27178e-19 3.2417e-05 7.8225e-05 0 8.88909e-79
0.248097 5.30221e-15 5.30206e-15 1.47004e-19 2.77251e-05 5.99089e-05 0 1.10382e-75
0.260832 4.25226e-15 4.25216e-15 1.00933e-19 2.37362e-05 6.22959e-05 0 1.00357e-72
0.274221 3.62471e-15 3.62463e-15 7.27874e-20 2.00809e-05 8.32629e-05 0 6.82143e-70
0.288297 3.23389e-15 3.23384e-15 5.42451e-20 1.67739e-05 0.000111729 0 3.47301e-67
0.303095 2.93628e-15 2.93624e-15 4.17974e-20 1.42348e-05 0.000125301 0 1.30915e-64
0.318653 2.57404e-15 2.57401e-15 3.25441e-20 1.26432e-05 0.000130759 0 3.52086e-62
0.335009 2.26859e-15 2.26856e-15 2.5632e-20 1.12987e-05 0.000128601 0 7.14053e-60
0.352205 1.98714e-15 1.98712e-15 2.04372e-20 1.02847e-05 0.000122034 0 1.09502e-57
0.370284 1.72917e-15 1.72915e-15 1.64396e-20 9.50721e-06 0.000114094 0 1.2865e-55
0.389291 1.49431e-15 1.4943e-15 1.33257e-20 8.91763e-06 0.000106375 0 1.17277e-53
0.409273 1.28255e-15 1.28254e-15 1.08339e-20 8.44714e-06 9.88819e-05 0 8.40132e-52
0.430281 1.09268e-15 1.09268e-15 8.81682e-21 8.06895e-06 9.17618e-05 0 4.78636e-50
0.452368 9.23687e-16 9.23679e-16 7.17426e-21 7.76698e-06 8.44065e-05 1.31395e-298 2.19594e-48
0.475588 7.74596e-16 7.74591e-16 5.84154e-21 7.5414e-06 7.73617e-05 3.65877e-284 8.22744e-47
0.5 6.44505e-16 6.445e-16 4.76897e-21 7.39943e-06 7.06029e-05 1.9516e-270 2.56046e-45
0.525665 5.31657e-16 5.31653e-16 3.89751e-21 7.33088e-06 6.4212e-05 2.15923e-257 6.75445e-44
0.552647 4.34687e-16 4.34684e-16 3.18648e-21 7.33053e-06 5.83901e-05 5.34645e-245 1.54996e-42
0.581015 3.52338e-16 3.52335e-16 2.61787e-21 7.43001e-06 5.29796e-05 3.18722e-233 3.18513e-41
0.610839 2.8309e-16 2.83088e-16 2.15135e-21 7.59953e-06 4.80787e-05 4.90085e-222 6.00219e-40
0.642193 2.25328e-16 2.25326e-16 1.76767e-21 7.8449e-06 4.36327e-05 2.07442e-211 1.04658e-38
0.675157 1.77646e-16 1.77645e-16 1.45409e-21 8.18528e-06 3.96167e-05 2.57276e-201 1.6767e-37
0.709813 1.38845e-16 1.38843e-16 1.19816e-21 8.62951e-06 3.60145e-05 9.93059e-192 2.43112e-36
0.746248 1.07441e-16 1.0744e-16 9.87451e-22 9.19061e-06 3.27962e-05 1.26092e-182 3.13707e-35
0.784553 8.21713e-17 8.21705e-17 8.13542e-22 9.90056e-06 2.98735e-05 5.54681e-174 3.55932e-34
0.824824 6.17914e-17 6.17907e-17 6.70117e-22 1.08448e-05 2.72504e-05 8.85204e-166 3.51615e-33
0.867162 4.47195e-17 4.47189e-17 5.52177e-22 1.23476e-05 2.48902e-05 5.26694e-158 2.9588e-32
0.911674 2.92996e-17 2.92992e-17 4.54754e-22 1.55208e-05 2.27552e-05 1.1511e-150 1.99924e-31
0.95847 1.99226e-17 1.99222e-17 3.74209e-22 1.87832e-05 2.08415e-05 1.10709e-143 1.24794e-30
1.00767 1.54331e-17 1.54328e-17 3.07952e-22 1.9954e-05 1.91039e-05 5.36339e-137 7.93389e-30
1.05939 1.14718e-17 1.14716e-17 2.5332e-22 2.2082e-05 1.75278e-05 1.14723e-130 4.34731e-29
1.11377 8.02952e-18 8.02931e-18 2.08316e-22 2.59438e-05 1.6093e-05 1.10426e-124 2.02424e-28
1.17094 6.1557e-18 6.15552e-18 1.71232e-22 2.78169e-05 1.47535e-05 5.76787e-119 9.3608e-28
1.23105 4.95806e-18 4.95792e-18 1.40816e-22 2.84014e-05 1.35272e-05 1.62295e-113 4.14269e-27
1.29424 4.01226e-18 4.01215e-18 1.15839e-22 2.88712e-05 1.23992e-05 2.4304e-108 1.68535e-26
1.36067 3.22575e-18 3.22565e-18 9.52367e-23 2.95239e-05 1.13716e-05 1.97575e-103 6.25898e-26
1.43051 2.56811e-18 2.56803e-18 7.82628e-23 3.04748e-05 1.04354e-05 8.95095e-99 2.12362e-25
1.50394 2.02319e-18 2.02312e-18 6.4337e-23 3.17998e-05 9.57012e-06 2.32262e-94 6.60383e-25
1.58114 1.57496e-18 1.5749e-18 5.28902e-23 3.3582e-05 8.76335e-06 3.54006e-90 1.88646e-24
1.6623 1.21113e-18 1.21108e-18 4.34843e-23 3.5904e-05 8.01509e-06 3.25001e-86 4.96649e-24
1.74762 9.2092e-19 9.20884e-19 3.57551e-23 3.88254e-05 7.34083e-06 1.84296e-82 1.21031e-23
1.83733 6.92884e-19 6.92855e-19 2.93965e-23 4.24264e-05 6.72449e-06 6.60932e-79 2.74086e-23
1.93164 5.16288e-19 5.16264e-19 2.41596e-23 4.67948e-05 6.15868e-06 1.53358e-75 5.79086e-23
2.03079 3.82136e-19 3.82116e-19 1.9851e-23 5.19474e-05 5.63353e-06 2.35769e-72 1.14827e-22
2.13503 2.82997e-19 2.8298e-19 1.63235e-23 5.76809e-05 5.15327e-06 2.46741e-69 2.15855e-22
2.24463 2.11193e-19 2.11179e-19 1.34167e-23 6.35284e-05 4.71558e-06 1.80385e-66 3.88465e-22
2.35984 1.60883e-19 1.60872e-19 1.10234e-23 6.85182e-05 4.31209e-06 9.50055e-64 6.79729e-22
2.48097 1.27406e-19 1.27397e-19 9.05541e-24 7.10752e-05 3.93951e-06 3.73422e-61 1.1806e-21
2.60832 1.07102e-19 1.07095e-19 7.44504e-24 6.95134e-05 3.59563e-06 1.13671e-58 2.08332e-21
2.74221 9.71058e-20 9.70997e-20 6.11896e-24 6.30134e-05 3.28265e-06 2.76506e-56 3.80357e-21
2.88297 9.63684e-20 9.63634e-20 5.02518e-24 5.21455e-05 2.99947e-06 5.53505e-54 7.30733e-21
3.03095 1.08977e-19 1.08973e-19 4.12764e-24 3.78763e-05 2.74237e-06 9.62529e-52 1.54109e-20
3.18653 2.09493e-19 2.0949e-19 3.39099e-24 1.61866e-05 2.50375e-06 2.19819e-49 5.33336e-20
3.35009 7.35536e-19 7.35533e-19 2.78488e-24 3.78619e-06 2.28429e-06 7.17314e-47 3.26032e-19
3.52205 1.54537e-19 1.54534e-19 2.28602e-24 1.47927e-05 2.08458e-06 1.109e-45 1.15557e-19
3.70284 1.54811e-19 1.54809e-19 1.87734e-24 1.21266e-05 1.90219e-06 6.54711e-44 1.89556e-19
3.89291 1.76645e-19 1.76643e-19 1.54116e-24 8.7246e-06 1.73378e-06 3.56414e-42 3.44342e-19
4.09273 2.10136e-19 2.10135e-19 1.265e-24 6.01992e-06 1.57476e-06 1.65462e-40 6.35069e-19
4.30281 2.57539e-19 2.57538e-19 1.03812e-24 4.03093e-06 1.43114e-06 6.53699e-39 1.17688e-18
4.52368 3.2734e-19 3.2734e-19 8.52186e-25 2.60336e-06 1.30011e-06 2.23319e-37 2.20912e-18
4.75588 4.4219e-19 4.42189e-19 6.99285e-25 1.58141e-06 1.18024e-06 6.82071e-36 4.31032e-18
5 7.08669e-19 7.08668e-19 5.73652e-25 8.09478e-07 1.06533e-06 2.09667e-34 9.77075e-18
5.25665 2.48881e-18 2.48881e-18 4.70696e-25 1.89124e-07 9.62646e-07 1.20784e-32 4.75862e-17
5.52648 2.06479e-18 2.06479e-18 3.86193e-25 1.87037e-07 8.70752e-07 1.4164e-31 5.37363e-17
5.81015 3.74029e-18 3.74029e-18 3.16659e-25 8.46614e-08 7.86557e-07 3.1481e-30 1.3018e-16
6.10839 1.32004e-17 1.32004e-17 2.59575e-25 1.96642e-08 7.07926e-07 1.19148e-28 6.04265e-16
6.42193 8.6658e-18 8.6658e-18 2.12781e-25 2.4554e-08 6.43346e-07 7.38011e-28 5.13547e-16
6.75157 7.11612e-18 7.11612e-18 1.74446e-25 2.45142e-08 5.74483e-07 5.06222e-27 5.37794e-16
7.09813 8.32875e-18 8.32875e-18 1.42938e-25 1.7162e-08 5.14108e-07 4.40775e-26 7.91291e-16
7.46248 2.05626e-17 2.05626e-17 1.17085e-25 5.69406e-09 4.58437e-07 7.25083e-25 2.4226e-15
7.84553 2.62824e-17 2.62824e-17 9.59433e-26 3.65047e-09 4.05764e-07 5.56074e-24 3.78996e-15
8.24824 1.17755e-17 1.17755e-17 7.85934e-26 6.6743e-09 3.56431e-07 1.353e-23 2.05242e-15
8.67162 9.48607e-18 9.48607e-18 6.43377e-26 6.78234e-09 3.13521e-07 5.38363e-23 1.97446e-15
9.11674 2.58083e-18 2.58083e-18 5.26677e-26 2.04073e-08 2.74891e-07 6.61057e-23 6.3409e-16
9.5847 1.4649e-18 1.4649e-18 4.30967e-26 2.94196e-08 2.39988e-07 1.55426e-22 4.20106e-16
10.0767 1.09543e-18 1.09543e-18 3.52496e-26 3.21788e-08 2.08303e-07 4.43697e-22 3.62737e-16
10.5939 1.04509e-18 1.04509e-18 2.88098e-26 2.75669e-08 1.76543e-07 1.49532e-21 3.95426e-16
11.1377 3.23684e-18 3.23684e-18 2.35285e-26 7.26897e-09 1.47632e-07 1.51955e-20 1.38528e-15
11.7094 1.75335e-18 1.75335e-18 1.93946e-26 1.10615e-08 1.22999e-07 2.5175e-20 8.40473e-16
12.3105 1.72129e-18 1.72129e-18 1.57698e-26 9.16159e-09 9.56082e-08 7.07063e-20 9.15437e-16
12.9424 1.43369e-18 1.43369e-18 1.28768e-26 8.98161e-09 7.00085e-08 1.5811e-19 8.38212e-16
13.6067 1.137e-18 1.137e-18 1.05149e-26 9.24787e-09 4.74079e-08 3.16902e-19 7.24316e-16
14.3051 8.85602e-19 8.85602e-19 8.57929e-27 9.68753e-09 3.17659e-08 5.88963e-19 6.09458e-16
15.0394 7.2846e-19 7.2846e-19 6.99588e-27 9.60366e-09 1.17371e-08 1.09446e-18 5.37095e-16
15.8114 7.35098e-19 7.35098e-19 5.70459e-27 7.76031e-09 -4.13874e-09 2.3686e-18 5.76054e-16
16.623 9.84139e-19 9.84139e-19 4.65078e-27 4.72573e-09 -1.94094e-08 6.47251e-18 8.13403e-16
17.4762 8.45083e-19 8.45083e-19 3.78965e-27 4.48436e-09 -3.47615e-08 1.0823e-17 7.31253e-16
18.3733 5.71058e-19 5.71058e-19 3.08632e-27 5.40456e-09 -4.95319e-08 1.36184e-17 5.13667e-16
19.3164 4.82167e-19 4.82167e-19 2.51674e-27 5.21964e-09 -6.4203e-08 2.05186e-17 4.47789e-16
20.3079 4.0949e-19 4.0949e-19 2.05359e-27 5.01499e-09 -8.04513e-08 2.98616e-17 3.90084e-16
21.3503 3.53226e-19 3.53226e-19 1.67746e-27 4.74897e-09 -9.35976e-08 4.24731e-17 3.43e-16
22.4463 3.06469e-19 3.06469e-19 1.37466e-27 4.48547e-09 -1.01111e-07 5.85772e-17 3.01552e-16
23.5984 2.66563e-19 2.66563e-19 1.13324e-27 4.25132e-09 -1.12696e-07 7.82145e-17 2.64262e-16
24.8097 2.32227e-19 2.32227e-19 9.42299e-28 4.05767e-09 -1.24699e-07 1.01193e-16 2.30699e-16
26.0832 2.0267e-19 2.0267e-19 7.93671e-28 3.91607e-09 -1.31172e-07 1.27083e-16 2.00713e-16
27.4221 1.77286e-19 1.77286e-19 6.77723e-28 3.82277e-09 -1.39458e-07 1.55242e-16 1.74168e-16
28.8297 1.55433e-19 1.55433e-19 5.8847e-28 3.786e-09 -1.39452e-07 1.84726e-16 1.50768e-16
30.3095 1.36567e-19 1.36567e-19 5.17274e-28 3.7877e-09 -1.43299e-07 2.14387e-16 1.3021e-16
31.8653 1.20248e-19 1.20248e-19 4.54485e-28 3.77956e-09 -1.45777e-07 2.42995e-16 1.12219e-16
33.5009 1.06149e-19 1.06149e-19 3.98634e-28 3.75542e-09 -1.3982e-07 2.69429e-16 9.65699e-17
35.2206 9.38858e-20 9.38858e-20 3.41387e-28 3.63619e-09 -1.35148e-07 2.92418e-16 8.29464e-17
37.0284 8.31934e-20 8.31934e-20 2.88767e-28 3.47103e-09 -1.18686e-07 3.10982e-16 7.1117e-17
38.9291 7.38569e-20 7.38569e-20 2.39888e-28 3.24801e-09 -1.15061e-07 3.2443e-16 6.08772e-17
40.9273 6.56896e-20 6.56896e-20 1.9736e-28 3.00444e-09 -9.88535e-08 3.32355e-16 5.20361e-17
43.0282 5.85104e-20 5.85104e-20 1.6101e-28 2.75181e-09 -9.29056e-08 3.34536e-16 4.44038e-17
45.2368 5.21852e-20 5.21852e-20 1.30913e-28 2.50862e-09 -6.38783e-08 3.31131e-16 3.78277e-17
47.5588 4.66127e-20 4.66127e-20 1.06178e-28 2.27787e-09 -6.23123e-08 3.22653e-16 3.2181e-17
50 4.16856e-20 4.16856e-20 8.61302e-29 2.06619e-09 -2.71562e-08 3.09678e-16 2.73356e-17
52.5665 3.73161e-20 3.73161e-20 6.98263e-29 1.87121e-09 1.15395e-08 2.92947e-16 2.31821e-17
55.2648 3.34351e-20 3.34351e-20 5.66198e-29 1.69342e-09 5.39291e-08 2.73329e-16 1.96284e-17
58.1015 2.99923e-20 2.99923e-20 4.59745e-29 1.53288e-09 5.93302e-08 2.5179e-16 1.65988e-17
61.0839 2.69234e-20 2.69234e-20 3.73455e-29 1.3871e-09 7.54822e-08 2.29074e-16 1.40146e-17
64.2193 2.41841e-20 2.41841e-20 3.03485e-29 1.25489e-09 9.78376e-08 2.05955e-16 1.18141e-17
67.5157 2.17391e-20 2.17391e-20 2.46818e-29 1.13536e-09 9.9456e-08 1.83127e-16 9.94499e-18
70.9813 1.95555e-20 1.95555e-20 2.00928e-29 1.02748e-09 1.1482e-07 1.61139e-16 8.36038e-18
74.6248 1.75993e-20 1.75993e-20 1.63616e-29 9.29672e-10 1.01153e-07 1.40367e-16 7.01744e-18
78.4553 1.58453e-20 1.58453e-20 1.33262e-29 8.41014e-10 9.00792e-08 1.21113e-16 5.88119e-18
82.4824 1.42748e-20 1.42748e-20 1.08636e-29 7.61039e-10 7.4786e-08 1.03585e-16 4.92255e-18
86.7162 1.28652e-20 1.28652e-20 8.8597e-30 6.88658e-10 8.52047e-08 8.78491e-17 4.11424e-18
91.1674 1.1598e-20 1.1598e-20 7.22607e-30 6.23044e-10 4.93648e-08 7.39062e-17 3.43338e-18
95.847 1.04585e-20 1.04585e-20 5.89432e-30 5.6359e-10 5.0638e-08 6.17072e-17 2.86086e-18
100.767 9.43587e-21 9.43587e-21 4.81234e-30 5.10005e-10 9.3082e-08 5.11693e-17 2.38082e-18
105.939 8.51482e-21 8.51482e-21 3.92862e-30 4.61386e-10 8.61032e-08 4.21455e-17 1.97824e-18
111.377 7.68492e-21 7.68492e-21 3.20676e-30 4.1728e-10 7.68794e-08 3.4493e-17 1.64112e-18
117.094 6.93774e-21 6.93774e-21 2.61865e-30 3.77451e-10 3.4181e-08 2.80652e-17 1.35943e-18
123.105 6.26517e-21 6.26517e-21 2.14015e-30 3.41595e-10 2.17743e-08 2.27113e-17 1.12448e-18
129.424 5.65833e-21 5.65833e-21 1.75062e-30 3.09388e-10 -3.76172e-08 1.82817e-17 9.28575e-19
136.067 5.1107e-21 5.1107e-21 1.43313e-30 2.80418e-10 3.39009e-08 1.46429e-17 7.65495e-19
143.051 4.61743e-21 4.61743e-21 1.17493e-30 2.54455e-10 -3.43078e-08 1.16762e-17 6.30098e-19
150.394 4.17233e-21 4.17233e-21 9.6296e-31 2.30797e-10 -2.7307e-08 9.27047e-18 5.17763e-19
158.114 3.77028e-21 3.77028e-21 7.88075e-31 2.09023e-10 -2.07869e-08 7.33003e-18 4.24673e-19
166.23 3.40716e-21 3.40716e-21 6.44536e-31 1.89171e-10 -1.71299e-07 5.77339e-18 3.47669e-19
174.763 3.07993e-21 3.07993e-21 5.27359e-31 1.71224e-10 -5.08587e-08 4.53202e-18 2.84155e-19
183.733 2.78415e-21 2.78415e-21 4.31274e-31 1.54903e-10 -1.35157e-07 3.54536e-18 2.3178e-19
193.164 2.51678e-21 2.51678e-21 3.52613e-31 1.40105e-10 -1.51613e-07 2.76457e-18 1.8867e-19
203.079 2.27535e-21 2.27535e-21 2.8836e-31 1.26732e-10 -1.55047e-07 2.14946e-18 1.53274e-19
213.503 2.05742e-21 2.05742e-21 2.35908e-31 1.14662e-10 -9.47913e-08 1.66674e-18 1.24272e-19
224.463 1.86032e-21 1.86032e-21 1.92958e-31 1.03723e-10 7.72986e-08 1.28897e-18 1.00534e-19
235.984 1.68206e-21 1.68206e-21 1.57794e-31 9.38101e-11 3.09588e-07 9.94297e-19 8.11468e-20
248.097 1.52118e-21 1.52118e-21 1.29109e-31 8.48745e-11 -2.84222e-07 7.65338e-19 6.53618e-20
260.832 1.37573e-21 1.37573e-21 1.05645e-31 7.67917e-11 1.08859e-07 5.8783e-19 5.25281e-20
274.221 1.24415e-21 1.24415e-21 8.64249e-32 6.94652e-11 2.09912e-07 4.5054e-19 4.2114e-20
288.297 1.12512e-21 1.12512e-21 7.06925e-32 6.28308e-11 6.98569e-07 3.44636e-19 3.36841e-20
303.095 1.01772e-21 1.01772e-21 5.78627e-32 5.68554e-11 -1.31479e-07 2.63204e-19 2.68836e-20
318.653 9.20517e-22 9.20517e-22 4.73506e-32 5.14392e-11 -9.63087e-08 2.00658e-19 2.14037e-20
335.009 8.32553e-22 8.32553e-22 3.87387e-32 4.653e-11 3.6991e-07 1.52719e-19 1.6999e-20
352.206 7.53053e-22 7.53053e-22 3.16994e-32 4.20946e-11 -5.69215e-08 1.16066e-19 1.34695e-20
370.284 6.81216e-22 6.81216e-22 2.59475e-32 3.809e-11 6.55187e-08 8.80926e-20 1.06485e-20
389.291 6.16195e-22 6.16195e-22 2.12339e-32 3.44597e-11 -4.66376e-07 6.67673e-20 8.39793e-21
409.273 5.57348e-22 5.57348e-22 1.73723e-32 3.11695e-11 -1.32455e-07 5.05375e-20 6.60708e-21
430.282 5.04201e-22 5.04201e-22 1.42204e-32 2.82038e-11 -8.12835e-07 3.82131e-20 5.18688e-21
452.368 4.56123e-22 4.56123e-22 1.16399e-32 2.55192e-11 -4.5952e-07 2.88618e-20 4.06268e-21
475.588 4.12602e-22 4.12602e-22 9.52523e-33 2.30858e-11 -2.69989e-07 2.17744e-20 3.17478e-21
500 3.73222e-22 3.73222e-22 7.79369e-33 2.08822e-11 -1.49991e-06 1.64105e-20 2.47539e-21
525.665 3.37665e-22 3.37665e-22 6.38093e-33 1.88972e-11 -9.77134e-07 1.23586e-20 1.92629e-21
552.648 3.05472e-22 3.05472e-22 5.22282e-33 1.70975e-11 2.22134e-07 9.29817e-21 1.49572e-21
581.015 2.7633e-22 2.7633e-22 4.27381e-33 1.54663e-11 -1.33053e-07 6.98928e-21 1.15895e-21
610.838 2.49984e-22 2.49984e-22 3.49794e-33 1.39927e-11 9.91122e-07 5.2499e-21 8.96273e-22
642.193 2.2617e-22 2.2617e-22 2.86365e-33 1.26615e-11 4.54809e-07 3.94078e-21 6.91857e-22
675.157 2.04608e-22 2.04608e-22 2.34375e-33 1.14548e-11 -9.42093e-08 2.95577e-21 5.33023e-22
709.813 1.85088e-22 1.85088e-22 1.91776e-33 1.03613e-11 -1.91032e-06 2.21534e-21 4.09886e-22
746.247 1.67458e-22 1.67458e-22 1.57005e-33 9.37574e-12 -1.42849e-06 1.65961e-21 3.14698e-22
784.553 1.51505e-22 1.51505e-22 1.28527e-33 8.48335e-12 4.13283e-07 1.24252e-21 2.41205e-22
824.824 1.3706e-22 1.3706e-22 1.05186e-33 7.67445e-12 -5.91028e-07 9.29655e-22 1.84564e-22
867.162 1.23989e-22 1.23989e-22 8.60751e-34 6.94215e-12 -1.10462e-06 6.95178e-22 1.41001e-22
911.674 1.12184e-22 1.12184e-22 7.04762e-34 6.28218e-12 3.01698e-07 5.1967e-22 1.07579e-22
958.471 1.01495e-22 1.01495e-22 5.76882e-34 5.68383e-12 4.96851e-07 3.88252e-22 8.19548e-23
1007.67 9.18176e-23 9.18176e-23 4.7208e-34 5.1415e-12 3.56938e-06 2.89917e-22 6.23447e-23
1059.39 8.30684e-23 8.30684e-23 3.86413e-34 4.65175e-12 -3.42103e-06 2.16409e-22 4.73682e-23
1113.77 7.51583e-23 7.51583e-23 3.16361e-34 4.20927e-12 -5.15129e-06 1.61486e-22 3.5947e-23
1170.94 6.79959e-23 6.79959e-23 2.58935e-34 3.8081e-12 7.27682e-06 1.20445e-22 2.72449e-23
1231.05 6.15116e-23 6.15116e-23 2.11881e-34 3.44458e-12 -1.98784e-06 8.97955e-23 2.06245e-23
1294.24 5.56544e-23 5.56544e-23 1.73476e-34 3.11702e-12 -1.29067e-06 6.6933e-23 1.55983e-23
1360.67 5.0354e-23 5.0354e-23 1.42012e-34 2.82028e-12 4.52869e-06 4.98741e-23 1.17846e-23
1430.51 4.55544e-23 4.55544e-23 1.16223e-34 2.5513e-12 -8.66067e-06 3.71481e-23 8.89379e-24
1503.94 4.12113e-23 4.12113e-23 9.51116e-35 2.3079e-12 -1.76323e-06 2.76606e-23 6.70564e-24
1581.14 3.72884e-23 3.72884e-23 7.78785e-35 2.08854e-12 5.08663e-06 2.05938e-23 5.05217e-24
1662.3 3.37362e-23 3.37362e-23 6.37487e-35 1.88962e-12 7.13047e-07 1.53272e-23 3.80287e-24
1747.63 3.052e-23 3.052e-23 5.21671e-35 1.70928e-12 -1.67225e-05 1.14037e-23 2.85994e-24
1837.33 2.76124e-23 2.76124e-23 4.27017e-35 1.54647e-12 -1.52106e-05 8.48314e-24 2.14932e-24
1931.64 2.49834e-23 2.49834e-23 3.49615e-35 1.39939e-12 -1.15936e-06 6.30956e-24 1.6142e-24
2030.79 2.26028e-23 2.26028e-23 2.86156e-35 1.26602e-12 -5.78127e-06 4.69151e-24 1.21136e-24
2135.03 2.04475e-23 2.04475e-23 2.34156e-35 1.14516e-12 -3.60385e-06 3.4874e-24 9.08379e-25
2244.63 1.85009e-23 1.85009e-23 1.91719e-35 1.03627e-12 -2.72539e-08 2.5923e-24 6.80872e-25
2359.84 1.6739e-23 1.6739e-23 1.56951e-35 9.3764e-13 8.21186e-06 1.92652e-24 5.10021e-25
2480.97 1.51436e-23 1.51436e-23 1.28446e-35 8.48189e-13 -3.45021e-05 1.43136e-24 3.81792e-25
