# 0.000188035 1 82 : grain size, compostion index, size index
# Heating and cooling timescale: 8.65561e-05 6.50584e+07
# Ratio of heating to cooling to determine stochastic cutoff: 100
# Equilibrium emission is recorded even for those grains in the stochastic regime.
# Emission spectrum was computed for: 
# Type: IRSF
# Scales: 0.25 0.5 1 1.5 2 2.5 3 3.5 4 4.5 5 5.5 6 6.5 7 7.5 8 8.5 9 9.5 10
# StochasticallyHeated: 0 0 0 0 0 0 0 0 0 0 0 0 0 0 0 0 0 0 0 0 0
# Temperature: -1
# Wavelength  CExt  CAbs  CSca  Albedo G EqEm1 StEm1 EqEm2 StEm2 EqEm3 StEm3 EqEm4 StEm4 EqEm5 StEm5 EqEm6 StEm6 EqEm7 StEm7 EqEm8 StEm8 EqEm9 StEm9 EqEm10 StEm10 EqEm11 StEm11 EqEm12 StEm12 EqEm13 StEm13 EqEm14 StEm14 EqEm15 StEm15 EqEm16 StEm16 EqEm17 StEm17 EqEm18 StEm18 EqEm19 StEm19 EqEm20 StEm20 EqEm21 StEm21
0.05 2.26841e-07 7.94598e-08 1.47382e-07 0.649712 0.856938 0 0 0 0 0 0 0 0 0 0 0 0 0 0 0 0 0 0 0 0 0 0 0 0 0 0 0 0 0 0 0 0 0 0 0 0 0 0 0 0 0 0
0.0525665 2.27143e-07 7.83202e-08 1.48822e-07 0.655194 0.844777 0 0 0 0 0 0 0 0 0 0 0 0 0 0 0 0 0 0 0 0 0 0 0 0 0 0 0 0 0 0 0 0 0 0 0 0 0 0 0 0 0 0
0.0552647 2.27457e-07 7.75089e-08 1.49948e-07 0.659237 0.834693 0 0 0 0 0 0 0 0 0 0 0 0 0 0 0 0 0 0 0 0 0 0 0 0 0 0 0 0 0 0 0 0 0 0 0 0 0 0 0 0 0 0
0.0581015 2.27756e-07 7.72261e-08 1.5053e-07 0.660927 0.828527 0 0 0 0 0 0 0 0 0 0 0 0 0 0 0 0 0 0 0 0 0 0 0 0 0 0 0 0 0 0 0 0 0 0 0 0 0 0 0 0 0 0
0.0610839 2.28056e-07 7.62556e-08 1.518e-07 0.665628 0.820053 0 0 0 0 0 0 0 0 0 0 0 0 0 0 0 0 0 0 0 0 0 0 0 0 0 0 0 0 0 0 0 0 0 0 0 0 0 0 0 0 0 0
0.0642193 2.28448e-07 7.3674e-08 1.54774e-07 0.677502 0.802355 0 0 0 0 0 0 0 0 0 0 0 0 0 0 0 0 0 0 0 0 0 0 0 0 0 0 0 0 0 0 0 0 0 0 0 0 0 0 0 0 0 0
0.0675157 2.28966e-07 7.12141e-08 1.57752e-07 0.688975 0.783033 0 0 0 0 0 0 0 0 0 0 0 0 0 0 0 0 0 0 0 0 0 0 0 0 0 0 0 0 0 0 0 0 0 0 0 0 0 0 0 0 0 0
0.0709813 2.29525e-07 7.12858e-08 1.5824e-07 0.689421 0.776209 0 0 0 0 0 0 0 0 0 0 0 0 0 0 0 0 0 0 0 0 0 0 0 0 0 0 0 0 0 0 0 0 0 0 0 0 0 0 0 0 0 0
0.0746248 2.30056e-07 7.27255e-08 1.5733e-07 0.683879 0.777614 0 0 0 0 0 0 0 0 0 0 0 0 0 0 0 0 0 0 0 0 0 0 0 0 0 0 0 0 0 0 0 0 0 0 0 0 0 0 0 0 0 0
0.0784553 2.30542e-07 7.45812e-08 1.55961e-07 0.676496 0.782453 0 0 0 0 0 0 0 0 0 0 0 0 0 0 0 0 0 0 0 0 0 0 0 0 0 0 0 0 0 0 0 0 0 0 0 0 0 0 0 0 0 0
0.0824824 2.31008e-07 7.66649e-08 1.54343e-07 0.668129 0.7882 0 0 0 0 0 0 0 0 0 0 0 0 0 0 0 0 0 0 0 0 0 0 0 0 0 0 0 0 0 0 0 0 0 0 0 0 0 0 0 0 0 0
0.0867162 2.31469e-07 7.74078e-08 1.54062e-07 0.665581 0.787143 0 0 0 0 0 0 0 0 0 0 0 0 0 0 0 0 0 0 0 0 0 0 0 0 0 0 0 0 0 0 0 0 0 0 0 0 0 0 0 0 0 0
0.0911674 2.31994e-07 7.74501e-08 1.54543e-07 0.666154 0.782178 0 0 0 0 0 0 0 0 0 0 0 0 0 0 0 0 0 0 0 0 0 0 0 0 0 0 0 0 0 0 0 0 0 0 0 0 0 0 0 0 0 0
0.095847 2.32498e-07 7.82145e-08 1.54284e-07 0.663591 0.780439 0 0 0 0 0 0 0 0 0 0 0 0 0 0 0 0 0 0 0 0 0 0 0 0 0 0 0 0 0 0 0 0 0 0 0 0 0 0 0 0 0 0
0.100767 2.32752e-07 8.12303e-08 1.51522e-07 0.651 0.79135 0 0 0 0 0 0 0 0 0 0 0 0 0 0 0 0 0 0 0 0 0 0 0 0 0 0 0 0 0 0 0 0 0 0 0 0 0 0 0 0 0 0
0.105939 2.32876e-07 8.41282e-08 1.48748e-07 0.638742 0.80538 0 0 0 0 0 0 0 0 0 0 0 0 0 0 0 0 0 0 0 0 0 0 0 0 0 0 0 0 0 0 0 0 0 0 0 0 0 0 0 0 0 0
0.111377 2.32604e-07 8.90203e-08 1.43583e-07 0.617288 0.832111 0 0 0 0 0 0 0 0 0 0 0 0 0 0 0 0 0 0 0 0 0 0 0 0 0 0 0 0 0 0 0 0 0 0 0 0 0 0 0 0 0 0
0.117094 2.32491e-07 9.40003e-08 1.3849e-07 0.595681 0.863378 0 0 0 0 0 0 0 0 0 0 0 0 0 0 0 0 0 0 0 0 0 0 0 0 0 0 0 0 0 0 0 0 0 0 0 0 0 0 0 0 0 0
0.123105 2.32617e-07 9.73431e-08 1.35274e-07 0.58153 0.885302 0 0 0 0 0 0 0 0 0 0 0 0 0 0 0 0 0 0 0 0 0 0 0 0 0 0 0 0 0 0 0 0 0 0 0 0 0 0 0 0 0 0
0.129424 2.32828e-07 1.00276e-07 1.32552e-07 0.569312 0.904654 0 0 0 0 0 0 0 0 0 0 0 0 0 0 0 0 0 0 0 0 0 0 0 0 0 0 0 0 0 0 0 0 0 0 0 0 0 0 0 0 0 0
0.136067 2.33026e-07 1.027e-07 1.30326e-07 0.559277 0.920335 0 0 0 0 0 0 0 0 0 0 0 0 0 0 0 0 0 0 0 0 0 0 0 0 0 0 0 0 0 0 0 0 0 0 0 0 0 0 0 0 0 0
0.143051 2.33083e-07 1.04596e-07 1.28487e-07 0.551249 0.932549 0 0 0 0 0 0 0 0 0 0 0 0 0 0 0 0 0 0 0 0 0 0 0 0 0 0 0 0 0 0 0 0 0 0 0 0 0 0 0 0 0 0
0.150394 2.32857e-07 1.05567e-07 1.27291e-07 0.546647 0.940379 0 0 0 0 0 0 0 0 0 0 0 0 0 0 0 0 0 0 0 0 0 0 0 0 0 0 0 0 0 0 0 0 0 0 0 0 0 0 0 0 0 0
0.158114 2.32562e-07 1.04983e-07 1.27579e-07 0.54858 0.941125 0 0 0 0 0 0 0 0 0 0 0 0 0 0 0 0 0 0 0 0 0 0 0 0 0 0 0 0 0 0 0 0 0 0 0 0 0 0 0 0 0 0
0.16623 2.32697e-07 1.02278e-07 1.3042e-07 0.560469 0.930589 0 0 0 0 0 0 0 0 0 0 0 0 0 0 0 0 0 0 0 0 0 0 0 0 0 0 0 0 0 0 0 0 0 0 0 0 0 0 0 0 0 0
0.174762 2.33519e-07 9.75007e-08 1.36018e-07 0.582472 0.905136 0 0 0 0 0 0 0 0 0 0 0 0 0 0 0 0 0 0 0 0 0 0 0 0 0 0 0 0 0 0 0 0 0 0 0 0 0 0 0 0 0 0
0.183733 2.34632e-07 9.1764e-08 1.42868e-07 0.608902 0.871033 0 0 0 0 0 0 0 0 0 0 0 0 0 0 0 0 0 0 0 0 0 0 0 0 0 0 0 0 0 0 0 0 0 0 0 0 0 0 0 0 0 0
0.193164 2.35913e-07 8.59921e-08 1.49921e-07 0.635493 0.836121 0 0 0 0 0 0 0 0 0 0 0 0 0 0 0 0 0 0 0 0 0 0 0 0 0 0 0 0 0 0 0 0 0 0 0 0 0 0 0 0 0 0
0.203079 2.37328e-07 8.1174e-08 1.56154e-07 0.657967 0.80746 0 0 0 0 0 0 0 0 0 0 0 0 0 0 0 0 0 0 0 0 0 0 0 0 0 0 0 0 0 0 0 0 0 0 0 0 0 0 0 0 0 0
0.213503 2.3893e-07 7.72431e-08 1.61687e-07 0.676713 0.784394 0 0 0 0 0 0 0 0 0 0 0 0 0 0 0 0 0 0 0 0 0 0 0 0 0 0 0 0 0 0 0 0 0 0 0 0 0 0 0 0 0 0
0.224463 2.40895e-07 7.51898e-08 1.65706e-07 0.687874 0.768796 0 0 0 0 0 0 0 0 0 0 0 0 0 0 0 0 0 0 0 0 0 0 0 0 0 0 0 0 0 0 0 0 0 0 0 0 0 0 0 0 0 0
0.235984 2.43006e-07 7.47033e-08 1.68302e-07 0.692586 0.758519 0 0 0 0 0 0 0 0 0 0 0 0 0 0 0 0 0 0 0 0 0 0 0 0 0 0 0 0 0 0 0 0 0 0 0 0 0 0 0 0 0 0
0.248097 2.44605e-07 7.62248e-08 1.6838e-07 0.688376 0.755057 0 0 0 0 0 0 0 0 0 0 0 0 0 0 0 0 0 0 0 0 0 0 0 0 0 0 0 0 0 0 0 0 0 0 0 0 0 0 0 0 0 0
0.260832 2.45105e-07 7.85353e-08 1.66569e-07 0.679585 0.75639 0 0 0 0 0 0 0 0 0 0 0 0 0 0 0 0 0 0 0 0 0 0 0 0 0 0 0 0 0 0 0 0 0 0 0 0 0 0 0 0 0 0
0.274221 2.4495e-07 8.08059e-08 1.64144e-07 0.670112 0.759295 0 0 0 0 0 0 0 0 0 0 0 0 0 0 0 0 0 0 0 0 0 0 0 0 0 0 0 0 0 0 0 0 0 0 0 0 0 0 0 0 0 0
0.288297 2.44627e-07 8.35694e-08 1.61058e-07 0.658381 0.767302 0 0 0 0 0 0 0 0 0 0 0 0 0 0 0 0 0 0 0 0 0 0 0 0 0 0 0 0 0 0 0 0 0 0 0 0 0 0 0 0 0 0
0.303095 2.44647e-07 8.55813e-08 1.59065e-07 0.650184 0.773537 0 0 0 0 0 0 0 0 0 0 0 0 0 0 0 0 0 0 0 0 0 0 0 0 0 0 0 0 0 0 0 0 0 0 0 0 0 0 0 0 0 0
0.318653 2.44796e-07 8.72934e-08 1.57503e-07 0.643404 0.779062 0 0 0 0 0 0 0 0 0 0 0 0 0 0 0 0 0 0 0 0 0 0 0 0 0 0 0 0 0 0 0 0 0 0 0 0 0 0 0 0 0 0
0.335009 2.45106e-07 8.8757e-08 1.56349e-07 0.637883 0.783852 0 0 0 0 0 0 0 0 0 0 0 0 0 0 0 0 0 0 0 0 0 0 0 0 0 0 0 0 0 0 0 0 0 0 0 0 0 0 0 0 0 0
0.352205 2.45558e-07 8.99106e-08 1.55648e-07 0.633852 0.787185 0 0 0 0 0 0 0 0 0 0 0 0 0 0 0 0 0 0 0 0 0 0 0 0 0 0 0 0 0 0 0 0 0 0 0 0 0 0 0 0 0 0
0.370284 2.46099e-07 9.08149e-08 1.55284e-07 0.630981 0.789137 0 0 0 0 0 0 0 0 0 0 0 0 0 0 0 0 0 0 0 0 0 0 0 0 0 0 0 0 0 0 0 0 0 0 0 0 0 0 0 0 0 0
0.389291 2.46687e-07 9.14891e-08 1.55198e-07 0.629129 0.789686 0 0 0 0 0 0 0 0 0 0 0 0 0 0 0 0 0 0 0 0 0 0 0 0 0 0 0 0 0 0 0 0 0 0 0 0 0 0 0 0 0 0
0.409273 2.47301e-07 9.2102e-08 1.55199e-07 0.627571 0.789867 0 0 0 0 0 0 0 0 0 0 0 0 0 0 0 0 0 0 0 0 0 0 0 0 0 0 0 0 0 0 0 0 0 0 0 0 0 0 0 0 0 0
0.430281 2.47928e-07 9.26897e-08 1.55238e-07 0.626142 0.789867 0 0 0 0 0 0 0 0 0 0 0 0 0 0 0 0 0 0 0 0 0 0 0 0 0 0 0 0 0 0 0 0 0 0 0 0 0 0 0 0 0 0
0.452368 2.48602e-07 9.33073e-08 1.55295e-07 0.624673 0.790043 0 0 0 0 0 0 0 0 0 0 0 0 0 0 0 0 0 0 0 0 0 0 0 0 0 0 0 0 0 0 0 0 0 0 0 0 0 0 0 0 0 0
0.475588 2.49311e-07 9.39252e-08 1.55386e-07 0.623261 0.790145 0 0 0 0 0 0 0 0 0 0 0 0 0 0 0 0 0 0 0 0 0 0 0 0 0 0 0 0 0 0 0 0 0 0 0 0 0 0 0 0 0 0
0.5 2.5007e-07 9.45169e-08 1.55553e-07 0.622039 0.789986 0 0 0 0 0 0 0 0 0 0 0 0 0 0 0 0 0 0 0 0 0 0 0 0 0 0 0 0 0 0 0 0 0 0 0 0 0 0 0 0 0 0
0.525665 2.50877e-07 9.50997e-08 1.55777e-07 0.620931 0.789657 0 0 0 0 0 0 0 0 0 0 0 0 0 0 0 0 0 0 0 0 0 0 0 0 0 0 0 0 0 0 0 0 0 0 0 0 0 0 0 0 0 0
0.552648 2.51707e-07 9.56783e-08 1.56028e-07 0.619882 0.789178 0 0 0 0 0 0 0 0 0 0 0 0 0 0 0 0 0 0 0 0 0 0 0 0 0 0 0 0 0 0 0 0 0 0 0 0 0 0 0 0 0 0
0.581015 2.526e-07 9.61409e-08 1.56459e-07 0.619394 0.787929 0 0 0 0 0 0 0 0 0 0 0 0 0 0 0 0 0 0 0 0 0 0 0 0 0 0 0 0 0 0 0 0 0 0 0 0 0 0 0 0 0 0
0.610839 2.53513e-07 9.66102e-08 1.56902e-07 0.618913 0.786602 0 0 0 0 0 0 0 0 0 0 0 0 0 0 0 0 0 0 0 0 0 0 0 0 0 0 0 0 0 0 0 0 0 0 0 0 0 0 0 0 0 0
0.642193 2.54458e-07 9.70853e-08 1.57373e-07 0.618463 0.785203 0 0 0 0 0 0 0 0 0 0 0 0 0 0 0 0 0 0 0 0 0 0 0 0 0 0 0 0 0 0 0 0 0 0 0 0 0 0 0 0 0 0
0.675157 2.55387e-07 9.75165e-08 1.5787e-07 0.618161 0.783422 0 0 0 0 0 0 0 0 0 0 0 0 0 0 0 0 0 0 0 0 0 0 0 0 0 0 0 0 0 0 0 0 0 0 0 0 0 0 0 0 0 0
0.709813 2.5646e-07 9.79016e-08 1.58558e-07 0.618257 0.781416 0 0 0 0 0 0 0 0 0 0 0 0 0 0 0 0 0 0 0 0 0 0 0 0 0 0 0 0 0 0 0 0 0 0 0 0 0 0 0 0 0 0
0.746248 2.5736e-07 9.82538e-08 1.59107e-07 0.618225 0.778959 0 0 0 0 0 0 0 0 0 0 0 0 0 0 0 0 0 0 0 0 0 0 0 0 0 0 0 0 0 0 0 0 0 0 0 0 0 0 0 0 0 0
0.784553 2.58283e-07 9.85843e-08 1.59698e-07 0.618309 0.776379 0 0 0 0 0 0 0 0 0 0 0 0 0 0 0 0 0 0 0 0 0 0 0 0 0 0 0 0 0 0 0 0 0 0 0 0 0 0 0 0 0 0
0.824824 2.59881e-07 9.88815e-08 1.61e-07 0.619513 0.774297 0 0 0 0 0 0 0 0 0 0 0 0 0 0 0 0 0 0 0 0 0 0 0 0 0 0 0 0 0 0 0 0 0 0 0 0 0 0 0 0 0 0
0.867162 2.60221e-07 9.90931e-08 1.61128e-07 0.619196 0.770359 0 0 0 0 0 0 0 0 0 0 0 0 0 0 0 0 0 0 0 0 0 0 0 0 0 0 0 0 0 0 0 0 0 0 0 0 0 0 0 0 0 0
0.911674 2.60721e-07 9.91545e-08 1.61566e-07 0.619691 0.765816 0 0 0 0 0 0 0 0 0 0 0 0 0 0 0 0 0 0 0 0 0 0 0 0 0 0 0 0 0 0 0 0 0 0 0 0 0 0 0 0 0 0
0.95847 2.6361e-07 9.90856e-08 1.64524e-07 0.62412 0.763745 0 0 0 0 0 0 0 0 0 0 0 0 0 0 0 0 0 0 0 0 0 0 0 0 0 0 0 0 0 0 0 0 0 0 0 0 0 0 0 0 0 0
1.00767 2.64818e-07 9.88809e-08 1.65937e-07 0.626608 0.759854 0 0 0 0 0 0 0 0 0 0 0 0 0 0 0 0 0 0 0 0 0 0 0 0 0 0 0 0 0 0 0 0 0 0 0 0 0 0 0 0 0 0
1.05939 2.62818e-07 9.86857e-08 1.64132e-07 0.624509 0.751965 0 0 0 0 0 0 0 0 0 0 0 0 0 0 0 0 0 0 0 0 0 0 0 0 0 0 0 0 0 0 0 0 0 0 0 0 0 0 0 0 0 0
1.11377 2.63545e-07 9.8147e-08 1.65398e-07 0.627589 0.744411 0 0 0 0 0 0 0 0 0 0 0 0 0 0 0 0 0 0 0 0 0 0 0 0 0 0 0 0 0 0 0 0 0 0 0 0 0 0 0 0 0 0
1.17094 2.69248e-07 9.75905e-08 1.71657e-07 0.637544 0.740918 0 0 0 0 0 0 0 0 0 0 0 0 0 0 0 0 0 0 0 0 0 0 0 0 0 0 0 0 0 0 0 0 0 0 0 0 0 0 0 0 0 0
1.23105 2.7329e-07 9.69312e-08 1.76359e-07 0.645317 0.737365 0 0 0 0 0 0 0 0 0 0 0 0 0 0 0 0 0 0 0 0 0 0 0 0 0 0 0 0 0 0 0 0 0 0 0 0 0 0 0 0 0 0
1.29424 2.70398e-07 9.54887e-08 1.74909e-07 0.646858 0.726825 0 0 0 0 0 0 0 0 0 0 0 0 0 0 0 0 0 0 0 0 0 0 0 0 0 0 0 0 0 0 0 0 0 0 0 0 0 0 0 0 0 0
1.36067 2.64149e-07 9.34734e-08 1.70675e-07 0.646133 0.707015 0 0 0 0 0 0 0 0 0 0 0 0 0 0 0 0 0 0 0 0 0 0 0 0 0 0 0 0 0 0 0 0 0 0 0 0 0 0 0 0 0 0
1.43051 2.64449e-07 9.4024e-08 1.70425e-07 0.644453 0.7022 0 0 0 0 0 0 0 0 0 0 0 0 0 0 0 0 0 0 0 0 0 0 0 0 0 0 0 0 0 0 0 0 0 0 0 0 0 0 0 0 0 0
1.50394 2.74214e-07 9.41536e-08 1.80061e-07 0.656642 0.70467 0 0 0 0 0 0 0 0 0 0 0 0 0 0 0 0 0 0 0 0 0 0 0 0 0 0 0 0 0 0 0 0 0 0 0 0 0 0 0 0 0 0
1.58114 2.82432e-07 9.13942e-08 1.91038e-07 0.676403 0.709821 0 0 0 0 0 0 0 0 0 0 0 0 0 0 0 0 0 0 0 0 0 0 0 0 0 0 0 0 0 0 0 0 0 0 0 0 0 0 0 0 0 0
1.6623 2.85032e-07 9.06923e-08 1.94339e-07 0.681817 0.699463 0 0 0 0 0 0 0 0 0 0 0 0 0 0 0 0 0 0 0 0 0 0 0 0 0 0 0 0 0 0 0 0 0 0 0 0 0 0 0 0 0 0
1.74763 2.80003e-07 8.97809e-08 1.90222e-07 0.679357 0.67641 0 0 0 0 0 0 0 0 0 0 0 0 0 0 0 0 0 0 0 0 0 0 0 0 0 0 0 0 0 0 0 0 0 0 0 0 0 0 0 0 0 0
1.83733 2.75592e-07 8.84054e-08 1.87186e-07 0.679216 0.65745 0 0 0 0 0 0 0 0 0 0 0 0 0 0 0 0 0 0 0 0 0 0 0 0 0 0 0 0 0 0 0 0 0 0 0 0 0 0 0 0 0 0
1.93164 2.63731e-07 8.61514e-08 1.7758e-07 0.673336 0.617506 0 0 0 0 0 0 0 0 0 0 0 0 0 0 0 0 0 0 0 0 0 0 0 0 0 0 0 0 0 0 0 0 0 0 0 0 0 0 0 0 0 0
2.03079 2.73359e-07 8.70979e-08 1.86261e-07 0.681379 0.611125 0 0 0 0 0 0 0 0 0 0 0 0 0 0 0 0 0 0 0 0 0 0 0 0 0 0 0 0 0 0 0 0 0 0 0 0 0 0 0 0 0 0
2.13503 2.69182e-07 8.29269e-08 1.86255e-07 0.69193 0.623341 0 0 0 0 0 0 0 0 0 0 0 0 0 0 0 0 0 0 0 0 0 0 0 0 0 0 0 0 0 0 0 0 0 0 0 0 0 0 0 0 0 0
2.24463 2.93777e-07 8.4926e-08 2.08851e-07 0.710917 0.633322 0 0 0 0 0 0 0 0 0 0 0 0 0 0 0 0 0 0 0 0 0 0 0 0 0 0 0 0 0 0 0 0 0 0 0 0 0 0 0 0 0 0
2.35984 2.90181e-07 8.06148e-08 2.09566e-07 0.722191 0.645192 0 0 0 0 0 0 0 0 0 0 0 0 0 0 0 0 0 0 0 0 0 0 0 0 0 0 0 0 0 0 0 0 0 0 0 0 0 0 0 0 0 0
2.48097 3.13414e-07 8.30632e-08 2.30351e-07 0.734973 0.663382 0 0 0 0 0 0 0 0 0 0 0 0 0 0 0 0 0 0 0 0 0 0 0 0 0 0 0 0 0 0 0 0 0 0 0 0 0 0 0 0 0 0
2.60832 3.07888e-07 8.42991e-08 2.23589e-07 0.726202 0.632337 0 0 0 0 0 0 0 0 0 0 0 0 0 0 0 0 0 0 0 0 0 0 0 0 0 0 0 0 0 0 0 0 0 0 0 0 0 0 0 0 0 0
2.74221 3.00377e-07 7.77942e-08 2.22583e-07 0.741012 0.649396 0 0 0 0 0 0 0 0 0 0 0 0 0 0 0 0 0 0 0 0 0 0 0 0 0 0 0 0 0 0 0 0 0 0 0 0 0 0 0 0 0 0
2.88297 3.03638e-07 8.43232e-08 2.19314e-07 0.72229 0.62395 0 0 0 0 0 0 0 0 0 0 0 0 0 0 0 0 0 0 0 0 0 0 0 0 0 0 0 0 0 0 0 0 0 0 0 0 0 0 0 0 0 0
3.03095 2.75e-07 7.72151e-08 1.97785e-07 0.719218 0.576347 0 0 0 0 0 0 0 0 0 0 0 0 0 0 0 0 0 0 0 0 0 0 0 0 0 0 0 0 0 0 0 0 0 0 0 0 0 0 0 0 0 0
3.18653 2.77681e-07 8.08329e-08 1.96848e-07 0.7089 0.557566 0 0 0 0 0 0 0 0 0 0 0 0 0 0 0 0 0 0 0 0 0 0 0 0 0 0 0 0 0 0 0 0 0 0 0 0 0 0 0 0 0 0
3.35009 2.75665e-07 8.15249e-08 1.9414e-07 0.704261 0.506055 0 0 0 0 0 0 0 0 0 0 0 0 0 0 0 0 0 0 0 0 0 0 0 0 0 0 0 0 0 0 0 0 0 0 0 0 0 0 0 0 0 0
3.52205 2.61907e-07 7.77035e-08 1.84203e-07 0.703316 0.443519 0 0 0 0 0 0 0 0 0 0 0 0 0 0 0 0 0 0 0 0 0 0 0 0 0 0 0 0 0 0 0 0 0 0 0 0 0 0 0 0 0 0
3.70284 2.62602e-07 7.66507e-08 1.85952e-07 0.708111 0.436563 0 0 0 0 0 0 0 0 0 0 0 0 0 0 0 0 0 0 0 0 0 0 0 0 0 0 0 0 0 0 0 0 0 0 0 0 0 0 0 0 0 0
3.89291 2.85214e-07 8.17089e-08 2.03506e-07 0.713518 0.394014 0 0 0 0 0 0 0 0 0 0 0 0 0 0 0 0 0 0 0 0 0 0 0 0 0 0 0 0 0 0 0 0 0 0 0 0 0 0 0 0 0 0
4.09273 2.9148e-07 7.61558e-08 2.15324e-07 0.738727 0.430241 0 0 0 0 0 0 0 0 0 0 0 0 0 0 0 0 0 0 0 0 0 0 0 0 0 0 0 0 0 0 0 0 0 0 0 0 0 0 0 0 0 0
4.30281 2.97932e-07 7.50016e-08 2.22931e-07 0.748259 0.459498 0 0 0 0 0 0 0 0 0 0 0 0 0 0 0 0 0 0 0 0 0 0 0 0 0 0 0 0 0 0 0 0 0 0 0 0 0 0 0 0 0 0
4.52368 3.24084e-07 7.79502e-08 2.46134e-07 0.759475 0.469975 0 0 0 0 0 0 0 0 0 0 0 0 0 0 0 0 0 0 0 0 0 0 0 0 0 0 0 0 0 0 0 0 0 0 0 0 0 0 0 0 0 0
4.75588 3.43055e-07 7.95615e-08 2.63494e-07 0.76808 0.425771 0 0 0 0 0 0 0 0 0 0 0 0 0 0 0 0 0 0 0 0 0 0 0 0 0 0 0 0 0 0 0 0 0 0 0 0 0 0 0 0 0 0
5 3.3127e-07 7.03518e-08 2.60918e-07 0.78763 0.425 0 0 0 0 0 0 0 0 0 0 0 0 0 0 0 0 0 0 0 0 0 0 0 0 0 0 0 0 0 0 0 0 0 0 0 0 0 0 0 0 0 0
5.25665 3.48014e-07 6.92775e-08 2.78736e-07 0.800935 0.437323 0 0 0 0 0 0 0 0 0 0 0 0 0 0 0 0 0 0 0 0 0 0 0 0 0 0 0 0 0 0 0 0 0 0 0 0 0 0 0 0 0 0
5.52648 3.7202e-07 7.10248e-08 3.00995e-07 0.809083 0.451565 0 0 0 0 0 0 0 0 0 0 0 0 0 0 0 0 0 0 0 0 0 0 0 0 0 0 0 0 0 0 0 0 0 0 0 0 0 0 0 0 0 0
5.81015 4.04386e-07 7.53438e-08 3.29042e-07 0.813683 0.457021 0 0 0 0 0 0 0 0 0 0 0 0 0 0 0 0 0 0 0 0 0 0 0 0 0 0 0 0 0 0 0 0 0 0 0 0 0 0 0 0 0 0
6.10839 4.02435e-07 7.67088e-08 3.25726e-07 0.809389 0.437942 0 0 0 0 0 0 0 0 0 0 0 0 0 0 0 0 0 0 0 0 0 0 0 0 0 0 0 0 0 0 0 0 0 0 0 0 0 0 0 0 0 0
6.42193 3.61345e-07 7.03822e-08 2.90963e-07 0.805222 0.406541 0 0 0 0 0 0 0 0 0 0 0 0 0 0 0 0 0 0 0 0 0 0 0 0 0 0 0 0 0 0 0 0 0 0 0 0 0 0 0 0 0 0
6.75157 3.44603e-07 6.62909e-08 2.78313e-07 0.807631 0.376833 0 0 0 0 0 0 0 0 0 0 0 0 0 0 0 0 0 0 0 0 0 0 0 0 0 0 0 0 0 0 0 0 0 0 0 0 0 0 0 0 0 0
7.09813 3.42992e-07 6.43544e-08 2.78638e-07 0.812374 0.34674 0 0 0 0 0 0 0 0 0 0 0 0 0 0 0 0 0 0 0 0 0 0 0 0 0 0 0 0 0 0 0 0 0 0 0 0 0 0 0 0 0 0
7.46248 3.49586e-07 6.38554e-08 2.85731e-07 0.81734 0.318398 0 0 0 0 0 0 0 0 0 0 0 0 0 0 0 0 0 0 0 0 0 0 0 0 0 0 0 0 0 0 0 0 0 0 0 0 0 0 0 0 0 0
7.84553 3.59446e-07 6.47247e-08 2.94721e-07 0.819932 0.295892 0 0 0 0 0 0 0 0 0 0 0 0 0 0 0 0 0 0 0 0 0 0 0 0 0 0 0 0 0 0 0 0 0 0 0 0 0 0 0 0 0 0
8.24824 3.60539e-07 6.6163e-08 2.94376e-07 0.816489 0.27983 0 0 0 0 0 0 0 0 0 0 0 0 0 0 0 0 0 0 0 0 0 0 0 0 0 0 0 0 0 0 0 0 0 0 0 0 0 0 0 0 0 0
8.67162 3.41408e-07 6.63645e-08 2.75044e-07 0.805615 0.263388 0 0 0 0 0 0 0 0 0 0 0 0 0 0 0 0 0 0 0 0 0 0 0 0 0 0 0 0 0 0 0 0 0 0 0 0 0 0 1.4013e-45 0 2.8026e-45 0
9.11674 3.13082e-07 6.50016e-08 2.48081e-07 0.792382 0.236201 0 0 0 0 0 0 0 0 0 0 0 0 0 0 0 0 0 0 0 0 0 0 0 0 0 0 0 0 1.4013e-45 0 4.2039e-45 0 1.26117e-44 0 3.78351e-44 0 9.80909e-44 0 2.45227e-43 0 5.64723e-43 0
9.5847 2.90982e-07 6.36501e-08 2.27332e-07 0.781258 0.197511 0 0 0 0 0 0 0 0 0 0 0 0 0 0 0 0 0 0 0 0 0 0 2.8026e-45 0 1.54143e-44 0 5.88545e-44 0 2.11596e-43 0 6.7963e-43 0 1.95902e-42 0 5.31653e-42 0 1.33544e-41 0 3.17604e-41 0 7.03564e-41 0
10.0767 2.76308e-07 6.29793e-08 2.13328e-07 0.772068 0.155283 0 0 0 0 0 0 0 0 0 0 0 0 0 0 0 0 1.4013e-45 0 1.68156e-44 0 1.02295e-43 0 5.1848e-43 0 2.25749e-42 0 8.18358e-42 0 2.76028e-41 0 8.36477e-41 0 2.29136e-40 0 5.92336e-40 0 1.42253e-39 0 3.24317e-39 0 6.91065e-39 0
10.5939 2.64801e-07 6.27175e-08 2.02084e-07 0.763152 0.115474 0 0 0 0 0 0 0 0 0 0 0 0 1.4013e-45 0 3.08286e-44 0 3.237e-43 0 2.3752e-42 0 1.36739e-41 0 6.42495e-41 0 2.6065e-40 0 8.87228e-40 0 2.82016e-39 0 8.09584e-39 0 2.11122e-38 0 5.21038e-38 0 1.1989e-37 0 2.62554e-37 0 5.39172e-37 0
11.1377 2.53151e-07 6.25452e-08 1.90606e-07 0.752934 0.079992 0 0 0 0 0 0 0 0 0 0 1.26117e-44 0 3.15292e-43 0 4.39868e-42 0 4.0583e-41 0 2.7061e-40 0 1.42993e-39 0 6.23004e-39 0 2.36039e-38 0 7.56811e-38 0 2.27355e-37 0 6.19914e-37 0 1.54269e-36 0 3.643e-36 0 8.0483e-36 0 1.69636e-35 0 3.36332e-35 0
11.7094 2.44138e-07 6.22949e-08 1.81843e-07 0.744837 0.0548878 0 0 0 0 0 0 0 0 3.22299e-44 0 1.76844e-42 0 3.91453e-41 0 4.79543e-40 0 3.97005e-39 0 2.41303e-38 0 1.17554e-37 0 4.76655e-37 0 1.6922e-36 0 5.12567e-36 0 1.4593e-35 0 3.7888e-35 0 9.01816e-35 0 2.04211e-34 0 4.34026e-34 0 8.82102e-34 0 1.69144e-33 0
12.3105 2.27485e-07 6.11415e-08 1.66343e-07 0.731228 0.0263864 0 0 0 0 0 0 2.38221e-44 0 4.37626e-42 0 1.96238e-40 0 3.73362e-39 0 4.04715e-38 0 3.02203e-37 0 1.6819e-36 0 7.58398e-36 0 2.87198e-35 0 9.58441e-35 0 2.7502e-34 0 7.44e-34 0 1.84374e-33 0 4.20657e-33 0 9.15288e-33 0 1.87503e-32 0 3.68106e-32 0 6.83765e-32 0
12.9424 2.10439e-07 5.94633e-08 1.50976e-07 0.717432 0.0036175 0 0 0 0 1.4013e-45 0 3.22579e-42 0 4.54342e-40 0 1.69191e-38 0 2.7878e-37 0 2.68997e-36 0 1.82082e-35 0 9.31899e-35 0 3.90418e-34 0 1.38542e-33 0 4.35924e-33 0 1.18811e-32 0 3.06171e-32 0 7.25853e-32 0 1.59069e-31 0 3.3322e-31 0 6.59137e-31 0 1.25209e-30 0 2.25653e-30 0
13.6067 1.91778e-07 5.72882e-08 1.3449e-07 0.701279 -0.0162393 0 0 0 0 2.42425e-43 0 3.32136e-40 0 3.67435e-38 0 1.14676e-36 0 1.64795e-35 0 1.42352e-34 0 8.77671e-34 0 4.14776e-33 0 1.62031e-32 0 5.40497e-32 0 1.60811e-31 0 4.17354e-31 0 1.02692e-30 0 2.3341e-30 0 4.9229e-30 0 9.94688e-30 0 1.90312e-29 0 3.50367e-29 0 6.13532e-29 0
14.3051 1.72348e-07 5.47729e-08 1.17575e-07 0.682196 -0.0337744 0 0 0 0 2.77751e-41 0 2.66897e-38 0 2.34649e-36 0 6.19089e-35 0 7.81111e-34 0 6.07312e-33 0 3.42619e-32 0 1.50094e-31 0 5.48598e-31 0 1.72546e-30 0 4.86753e-30 0 1.2058e-29 0 2.83933e-29 0 6.19994e-29 0 1.26085e-28 0 2.4616e-28 0 4.56288e-28 0 8.15369e-28 0 1.38928e-27 0
15.0394 1.53095e-07 5.20688e-08 1.01027e-07 0.659893 -0.0493093 0 0 7.00649e-45 0 2.46911e-39 0 1.69673e-36 0 1.19886e-34 0 2.69593e-33 0 3.00548e-32 0 2.1141e-31 0 1.09607e-30 0 4.46753e-30 0 1.53277e-29 0 4.55858e-29 0 1.22248e-28 0 2.89717e-28 0 6.54268e-28 0 1.37521e-27 0 2.70143e-27 0 5.10458e-27 0 9.18113e-27 0 1.59478e-26 0 2.6475e-26 0
15.8114 1.34887e-07 4.93758e-08 8.55113e-08 0.633947 -0.0630797 0 0 9.12245e-43 0 1.73312e-37 0 8.6573e-35 0 4.96886e-33 0 9.59816e-32 0 9.51187e-31 0 6.08294e-30 0 2.91026e-29 0 1.10756e-28 0 3.57795e-28 0 1.00896e-27 0 2.57853e-27 0 5.85878e-27 0 1.2715e-26 0 2.57737e-26 0 4.89877e-26 0 8.97345e-26 0 1.56837e-25 0 2.65183e-25 0 4.2947e-25 0
16.623 1.18245e-07 4.67677e-08 7.14774e-08 0.604485 -0.0754047 0 0 9.26763e-41 0 9.72829e-36 0 3.58786e-33 0 1.6898e-31 0 2.82476e-30 0 2.5028e-29 0 1.46194e-28 0 6.47972e-28 0 2.31021e-27 0 7.04783e-27 0 1.88936e-26 0 4.61228e-26 0 1.00681e-25 0 2.10391e-25 0 4.12008e-25 0 7.58923e-25 0 1.3497e-24 0 2.29555e-24 0 3.78309e-24 0 5.98426e-24 0
