# 0.000812916 2 96 : grain size, compostion index, size index
# Heating and cooling timescale: 3.66823e-06 2.84474e+27
# Ratio of heating to cooling to determine stochastic cutoff: 100
# Equilibrium emission is recorded even for those grains in the stochastic regime.
# Emission spectrum was computed for: 
# Type: IRSF
# Scales: 0.25 0.5 1 1.5 2 2.5 3 3.5 4 4.5 5 5.5 6 6.5 7 7.5 8 8.5 9 9.5 10
# StochasticallyHeated: 0 0 0 0 0 0 0 0 0 0 0 0 0 0 0 0 0 0 0 0 0
# Temperature: -1
# Wavelength  CExt  CAbs  CSca  Albedo G EqEm1 StEm1 EqEm2 StEm2 EqEm3 StEm3 EqEm4 StEm4 EqEm5 StEm5 EqEm6 StEm6 EqEm7 StEm7 EqEm8 StEm8 EqEm9 StEm9 EqEm10 StEm10 EqEm11 StEm11 EqEm12 StEm12 EqEm13 StEm13 EqEm14 StEm14 EqEm15 StEm15 EqEm16 StEm16 EqEm17 StEm17 EqEm18 StEm18 EqEm19 StEm19 EqEm20 StEm20 EqEm21 StEm21
0.05 4.18762e-06 1.76787e-06 2.41975e-06 0.577835 0.932067 0 0 0 0 0 0 0 0 0 0 0 0 0 0 0 0 0 0 0 0 0 0 0 0 0 0 0 0 0 0 0 0 0 0 0 0 0 0 0 0 0 0
0.0525665 4.18916e-06 1.7528e-06 2.43636e-06 0.581586 0.926299 0 0 0 0 0 0 0 0 0 0 0 0 0 0 0 0 0 0 0 0 0 0 0 0 0 0 0 0 0 0 0 0 0 0 0 0 0 0 0 0 0 0
0.0552647 4.19081e-06 1.72752e-06 2.46328e-06 0.587783 0.917475 0 0 0 0 0 0 0 0 0 0 0 0 0 0 0 0 0 0 0 0 0 0 0 0 0 0 0 0 0 0 0 0 0 0 0 0 0 0 0 0 0 0
0.0581015 4.19275e-06 1.68911e-06 2.50364e-06 0.597136 0.903754 0 0 0 0 0 0 0 0 0 0 0 0 0 0 0 0 0 0 0 0 0 0 0 0 0 0 0 0 0 0 0 0 0 0 0 0 0 0 0 0 0 0
0.0610839 4.19503e-06 1.65058e-06 2.54445e-06 0.606539 0.88837 0 0 0 0 0 0 0 0 0 0 0 0 0 0 0 0 0 0 0 0 0 0 0 0 0 0 0 0 0 0 0 0 0 0 0 0 0 0 0 0 0 0
0.0642193 4.19746e-06 1.62399e-06 2.57346e-06 0.613101 0.875862 0 0 0 0 0 0 0 0 0 0 0 0 0 0 0 0 0 0 0 0 0 0 0 0 0 0 0 0 0 0 0 0 0 0 0 0 0 0 0 0 0 0
0.0675157 4.19994e-06 1.60941e-06 2.59053e-06 0.616802 0.867041 0 0 0 0 0 0 0 0 0 0 0 0 0 0 0 0 0 0 0 0 0 0 0 0 0 0 0 0 0 0 0 0 0 0 0 0 0 0 0 0 0 0
0.0709813 4.20247e-06 1.6046e-06 2.59786e-06 0.618176 0.861481 0 0 0 0 0 0 0 0 0 0 0 0 0 0 0 0 0 0 0 0 0 0 0 0 0 0 0 0 0 0 0 0 0 0 0 0 0 0 0 0 0 0
0.0746248 4.20501e-06 1.60795e-06 2.59706e-06 0.617611 0.858777 0 0 0 0 0 0 0 0 0 0 0 0 0 0 0 0 0 0 0 0 0 0 0 0 0 0 0 0 0 0 0 0 0 0 0 0 0 0 0 0 0 0
0.0784553 4.20748e-06 1.62047e-06 2.587e-06 0.614859 0.859419 0 0 0 0 0 0 0 0 0 0 0 0 0 0 0 0 0 0 0 0 0 0 0 0 0 0 0 0 0 0 0 0 0 0 0 0 0 0 0 0 0 0
0.0824824 4.20975e-06 1.64594e-06 2.56381e-06 0.609017 0.864936 0 0 0 0 0 0 0 0 0 0 0 0 0 0 0 0 0 0 0 0 0 0 0 0 0 0 0 0 0 0 0 0 0 0 0 0 0 0 0 0 0 0
0.0867162 4.21167e-06 1.65679e-06 2.55488e-06 0.606619 0.867908 0 0 0 0 0 0 0 0 0 0 0 0 0 0 0 0 0 0 0 0 0 0 0 0 0 0 0 0 0 0 0 0 0 0 0 0 0 0 0 0 0 0
0.0911674 4.21431e-06 1.64292e-06 2.57139e-06 0.610157 0.861438 0 0 0 0 0 0 0 0 0 0 0 0 0 0 0 0 0 0 0 0 0 0 0 0 0 0 0 0 0 0 0 0 0 0 0 0 0 0 0 0 0 0
0.095847 4.21708e-06 1.64212e-06 2.57496e-06 0.610602 0.858164 0 0 0 0 0 0 0 0 0 0 0 0 0 0 0 0 0 0 0 0 0 0 0 0 0 0 0 0 0 0 0 0 0 0 0 0 0 0 0 0 0 0
0.100767 4.21965e-06 1.64823e-06 2.57142e-06 0.609391 0.857698 0 0 0 0 0 0 0 0 0 0 0 0 0 0 0 0 0 0 0 0 0 0 0 0 0 0 0 0 0 0 0 0 0 0 0 0 0 0 0 0 0 0
0.105939 4.22191e-06 1.66594e-06 2.55597e-06 0.605406 0.861591 0 0 0 0 0 0 0 0 0 0 0 0 0 0 0 0 0 0 0 0 0 0 0 0 0 0 0 0 0 0 0 0 0 0 0 0 0 0 0 0 0 0
0.111377 4.22401e-06 1.68398e-06 2.54003e-06 0.601332 0.866633 0 0 0 0 0 0 0 0 0 0 0 0 0 0 0 0 0 0 0 0 0 0 0 0 0 0 0 0 0 0 0 0 0 0 0 0 0 0 0 0 0 0
0.117094 4.22621e-06 1.69608e-06 2.53013e-06 0.598676 0.869794 0 0 0 0 0 0 0 0 0 0 0 0 0 0 0 0 0 0 0 0 0 0 0 0 0 0 0 0 0 0 0 0 0 0 0 0 0 0 0 0 0 0
0.123105 4.22853e-06 1.70466e-06 2.52387e-06 0.596868 0.871785 0 0 0 0 0 0 0 0 0 0 0 0 0 0 0 0 0 0 0 0 0 0 0 0 0 0 0 0 0 0 0 0 0 0 0 0 0 0 0 0 0 0
0.129424 4.23096e-06 1.71034e-06 2.52061e-06 0.595755 0.872754 0 0 0 0 0 0 0 0 0 0 0 0 0 0 0 0 0 0 0 0 0 0 0 0 0 0 0 0 0 0 0 0 0 0 0 0 0 0 0 0 0 0
0.136067 4.23347e-06 1.71282e-06 2.52065e-06 0.59541 0.872511 0 0 0 0 0 0 0 0 0 0 0 0 0 0 0 0 0 0 0 0 0 0 0 0 0 0 0 0 0 0 0 0 0 0 0 0 0 0 0 0 0 0
0.143051 4.23607e-06 1.71025e-06 2.52583e-06 0.596266 0.87019 0 0 0 0 0 0 0 0 0 0 0 0 0 0 0 0 0 0 0 0 0 0 0 0 0 0 0 0 0 0 0 0 0 0 0 0 0 0 0 0 0 0
0.150394 4.23824e-06 1.71712e-06 2.52112e-06 0.594851 0.871402 0 0 0 0 0 0 0 0 0 0 0 0 0 0 0 0 0 0 0 0 0 0 0 0 0 0 0 0 0 0 0 0 0 0 0 0 0 0 0 0 0 0
0.158114 4.24029e-06 1.73604e-06 2.50425e-06 0.590584 0.877808 0 0 0 0 0 0 0 0 0 0 0 0 0 0 0 0 0 0 0 0 0 0 0 0 0 0 0 0 0 0 0 0 0 0 0 0 0 0 0 0 0 0
0.16623 4.24264e-06 1.75752e-06 2.48512e-06 0.585749 0.885598 0 0 0 0 0 0 0 0 0 0 0 0 0 0 0 0 0 0 0 0 0 0 0 0 0 0 0 0 0 0 0 0 0 0 0 0 0 0 0 0 0 0
0.174762 4.24535e-06 1.77684e-06 2.46851e-06 0.581461 0.892669 0 0 0 0 0 0 0 0 0 0 0 0 0 0 0 0 0 0 0 0 0 0 0 0 0 0 0 0 0 0 0 0 0 0 0 0 0 0 0 0 0 0
0.183733 4.24829e-06 1.79426e-06 2.45403e-06 0.577652 0.898992 0 0 0 0 0 0 0 0 0 0 0 0 0 0 0 0 0 0 0 0 0 0 0 0 0 0 0 0 0 0 0 0 0 0 0 0 0 0 0 0 0 0
0.193164 4.25142e-06 1.80935e-06 2.44207e-06 0.574413 0.904356 0 0 0 0 0 0 0 0 0 0 0 0 0 0 0 0 0 0 0 0 0 0 0 0 0 0 0 0 0 0 0 0 0 0 0 0 0 0 0 0 0 0
0.203079 4.25472e-06 1.82255e-06 2.43217e-06 0.57164 0.908914 0 0 0 0 0 0 0 0 0 0 0 0 0 0 0 0 0 0 0 0 0 0 0 0 0 0 0 0 0 0 0 0 0 0 0 0 0 0 0 0 0 0
0.213503 4.25817e-06 1.83452e-06 2.42365e-06 0.569177 0.912918 0 0 0 0 0 0 0 0 0 0 0 0 0 0 0 0 0 0 0 0 0 0 0 0 0 0 0 0 0 0 0 0 0 0 0 0 0 0 0 0 0 0
0.224463 4.26176e-06 1.8449e-06 2.41686e-06 0.567103 0.916231 0 0 0 0 0 0 0 0 0 0 0 0 0 0 0 0 0 0 0 0 0 0 0 0 0 0 0 0 0 0 0 0 0 0 0 0 0 0 0 0 0 0
0.235984 4.26546e-06 1.85358e-06 2.41187e-06 0.565443 0.918805 0 0 0 0 0 0 0 0 0 0 0 0 0 0 0 0 0 0 0 0 0 0 0 0 0 0 0 0 0 0 0 0 0 0 0 0 0 0 0 0 0 0
0.248097 4.26928e-06 1.86079e-06 2.40849e-06 0.564145 0.920738 0 0 0 0 0 0 0 0 0 0 0 0 0 0 0 0 0 0 0 0 0 0 0 0 0 0 0 0 0 0 0 0 0 0 0 0 0 0 0 0 0 0
0.260832 4.27321e-06 1.86714e-06 2.40608e-06 0.56306 0.92228 0 0 0 0 0 0 0 0 0 0 0 0 0 0 0 0 0 0 0 0 0 0 0 0 0 0 0 0 0 0 0 0 0 0 0 0 0 0 0 0 0 0
0.274221 4.27728e-06 1.87297e-06 2.40431e-06 0.562112 0.923565 0 0 0 0 0 0 0 0 0 0 0 0 0 0 0 0 0 0 0 0 0 0 0 0 0 0 0 0 0 0 0 0 0 0 0 0 0 0 0 0 0 0
0.288297 4.2815e-06 1.87837e-06 2.40313e-06 0.561283 0.924628 0 0 0 0 0 0 0 0 0 0 0 0 0 0 0 0 0 0 0 0 0 0 0 0 0 0 0 0 0 0 0 0 0 0 0 0 0 0 0 0 0 0
0.303095 4.28585e-06 1.88343e-06 2.40242e-06 0.560546 0.925507 0 0 0 0 0 0 0 0 0 0 0 0 0 0 0 0 0 0 0 0 0 0 0 0 0 0 0 0 0 0 0 0 0 0 0 0 0 0 0 0 0 0
0.318653 4.29034e-06 1.88832e-06 2.40202e-06 0.559867 0.926261 0 0 0 0 0 0 0 0 0 0 0 0 0 0 0 0 0 0 0 0 0 0 0 0 0 0 0 0 0 0 0 0 0 0 0 0 0 0 0 0 0 0
0.335009 4.29498e-06 1.89303e-06 2.40194e-06 0.559245 0.926894 0 0 0 0 0 0 0 0 0 0 0 0 0 0 0 0 0 0 0 0 0 0 0 0 0 0 0 0 0 0 0 0 0 0 0 0 0 0 0 0 0 0
0.352205 4.29977e-06 1.89768e-06 2.40209e-06 0.558656 0.927442 0 0 0 0 0 0 0 0 0 0 0 0 0 0 0 0 0 0 0 0 0 0 0 0 0 0 0 0 0 0 0 0 0 0 0 0 0 0 0 0 0 0
0.370284 4.30472e-06 1.90228e-06 2.40244e-06 0.558095 0.927915 0 0 0 0 0 0 0 0 0 0 0 0 0 0 0 0 0 0 0 0 0 0 0 0 0 0 0 0 0 0 0 0 0 0 0 0 0 0 0 0 0 0
0.389291 4.30983e-06 1.9068e-06 2.40304e-06 0.557571 0.928294 0 0 0 0 0 0 0 0 0 0 0 0 0 0 0 0 0 0 0 0 0 0 0 0 0 0 0 0 0 0 0 0 0 0 0 0 0 0 0 0 0 0
0.409273 4.31517e-06 1.9113e-06 2.40387e-06 0.557074 0.928609 0 0 0 0 0 0 0 0 0 0 0 0 0 0 0 0 0 0 0 0 0 0 0 0 0 0 0 0 0 0 0 0 0 0 0 0 0 0 0 0 0 0
0.430281 4.32059e-06 1.9159e-06 2.40469e-06 0.556564 0.928895 0 0 0 0 0 0 0 0 0 0 0 0 0 0 0 0 0 0 0 0 0 0 0 0 0 0 0 0 0 0 0 0 0 0 0 0 0 0 0 0 0 0
0.452368 4.32624e-06 1.92046e-06 2.40578e-06 0.55609 0.929098 0 0 0 0 0 0 0 0 0 0 0 0 0 0 0 0 0 0 0 0 0 0 0 0 0 0 0 0 0 0 0 0 0 0 0 0 0 0 0 0 0 0
0.475588 4.33223e-06 1.92512e-06 2.40711e-06 0.555629 0.929277 0 0 0 0 0 0 0 0 0 0 0 0 0 0 0 0 0 0 0 0 0 0 0 0 0 0 0 0 0 0 0 0 0 0 0 0 0 0 0 0 0 0
0.5 4.33813e-06 1.92987e-06 2.40826e-06 0.555138 0.929412 0 0 0 0 0 0 0 0 0 0 0 0 0 0 0 0 0 0 0 0 0 0 0 0 0 0 0 0 0 0 0 0 0 0 0 0 0 0 0 0 0 0
0.525665 4.34425e-06 1.93474e-06 2.40951e-06 0.554644 0.929521 0 0 0 0 0 0 0 0 0 0 0 0 0 0 0 0 0 0 0 0 0 0 0 0 0 0 0 0 0 0 0 0 0 0 0 0 0 0 0 0 0 0
0.552648 4.35049e-06 1.93978e-06 2.4107e-06 0.554123 0.929619 0 0 0 0 0 0 0 0 0 0 0 0 0 0 0 0 0 0 0 0 0 0 0 0 0 0 0 0 0 0 0 0 0 0 0 0 0 0 0 0 0 0
0.581015 4.35697e-06 1.94478e-06 2.41219e-06 0.553639 0.929625 0 0 0 0 0 0 0 0 0 0 0 0 0 0 0 0 0 0 0 0 0 0 0 0 0 0 0 0 0 0 0 0 0 0 0 0 0 0 0 0 0 0
0.610839 4.36384e-06 1.94996e-06 2.41387e-06 0.553154 0.92963 0 0 0 0 0 0 0 0 0 0 0 0 0 0 0 0 0 0 0 0 0 0 0 0 0 0 0 0 0 0 0 0 0 0 0 0 0 0 0 0 0 0
0.642193 4.37108e-06 1.95533e-06 2.41575e-06 0.552666 0.929631 0 0 0 0 0 0 0 0 0 0 0 0 0 0 0 0 0 0 0 0 0 0 0 0 0 0 0 0 0 0 0 0 0 0 0 0 0 0 0 0 0 0
0.675157 4.37922e-06 1.96081e-06 2.4184e-06 0.552246 0.929615 0 0 0 0 0 0 0 0 0 0 0 0 0 0 0 0 0 0 0 0 0 0 0 0 0 0 0 0 0 0 0 0 0 0 0 0 0 0 0 0 0 0
0.709813 4.38782e-06 1.96639e-06 2.42143e-06 0.551852 0.929568 0 0 0 0 0 0 0 0 0 0 0 0 0 0 0 0 0 0 0 0 0 0 0 0 0 0 0 0 0 0 0 0 0 0 0 0 0 0 0 0 0 0
0.746248 4.39469e-06 1.97213e-06 2.42256e-06 0.551247 0.929442 0 0 0 0 0 0 0 0 0 0 0 0 0 0 0 0 0 0 0 0 0 0 0 0 0 0 0 0 0 0 0 0 0 0 0 0 0 0 0 0 0 0
0.784553 4.39989e-06 1.978e-06 2.4219e-06 0.550445 0.929236 0 0 0 0 0 0 0 0 0 0 0 0 0 0 0 0 0 0 0 0 0 0 0 0 0 0 0 0 0 0 0 0 0 0 0 0 0 0 0 0 0 0
0.824824 4.41116e-06 1.98392e-06 2.42724e-06 0.55025 0.929151 0 0 0 0 0 0 0 0 0 0 0 0 0 0 0 0 0 0 0 0 0 0 0 0 0 0 0 0 0 0 0 0 0 0 0 0 0 0 0 0 0 0
0.867162 4.4224e-06 1.98989e-06 2.43251e-06 0.550042 0.929001 0 0 0 0 0 0 0 0 0 0 0 0 0 0 0 0 0 0 0 0 0 0 0 0 0 0 0 0 0 0 0 0 0 0 0 0 0 0 0 0 0 0
0.911674 4.42352e-06 1.99588e-06 2.42764e-06 0.548803 0.92851 0 0 0 0 0 0 0 0 0 0 0 0 0 0 0 0 0 0 0 0 0 0 0 0 0 0 0 0 0 0 0 0 0 0 0 0 0 0 0 0 0 0
0.95847 4.44248e-06 2.00188e-06 2.4406e-06 0.549378 0.928475 0 0 0 0 0 0 0 0 0 0 0 0 0 0 0 0 0 0 0 0 0 0 0 0 0 0 0 0 0 0 0 0 0 0 0 0 0 0 0 0 0 0
1.00767 4.44387e-06 2.00782e-06 2.43605e-06 0.548182 0.927844 0 0 0 0 0 0 0 0 0 0 0 0 0 0 0 0 0 0 0 0 0 0 0 0 0 0 0 0 0 0 0 0 0 0 0 0 0 0 0 0 0 0
1.05939 4.45859e-06 2.01384e-06 2.44476e-06 0.548324 0.927568 0 0 0 0 0 0 0 0 0 0 0 0 0 0 0 0 0 0 0 0 0 0 0 0 0 0 0 0 0 0 0 0 0 0 0 0 0 0 0 0 0 0
1.11377 4.46617e-06 2.01966e-06 2.44652e-06 0.547788 0.927012 0 0 0 0 0 0 0 0 0 0 0 0 0 0 0 0 0 0 0 0 0 0 0 0 0 0 0 0 0 0 0 0 0 0 0 0 0 0 0 0 0 0
1.17094 4.48015e-06 2.0254e-06 2.45475e-06 0.547917 0.926507 0 0 0 0 0 0 0 0 0 0 0 0 0 0 0 0 0 0 0 0 0 0 0 0 0 0 0 0 0 0 0 0 0 0 0 0 0 0 0 0 0 0
1.23105 4.48291e-06 2.03046e-06 2.45246e-06 0.547068 0.92557 0 0 0 0 0 0 0 0 0 0 0 0 0 0 0 0 0 0 0 0 0 0 0 0 0 0 0 0 0 0 0 0 0 0 0 0 0 0 0 0 0 0
1.29424 4.51226e-06 2.03591e-06 2.47635e-06 0.548805 0.92546 0 0 0 0 0 0 0 0 0 0 0 0 0 0 0 0 0 0 0 0 0 0 0 0 0 0 0 0 0 0 0 0 0 0 0 0 0 0 0 0 0 0
1.36067 4.4901e-06 2.04097e-06 2.44913e-06 0.545451 0.923535 0 0 0 0 0 0 0 0 0 0 0 0 0 0 0 0 0 0 0 0 0 0 0 0 0 0 0 0 0 0 0 0 0 0 0 0 0 0 0 0 0 0
1.43051 4.54991e-06 2.04569e-06 2.50422e-06 0.550389 0.923939 0 0 0 0 0 0 0 0 0 0 0 0 0 0 0 0 0 0 0 0 0 0 0 0 0 0 0 0 0 0 0 0 0 0 0 0 0 0 0 0 0 0
1.50394 4.51987e-06 2.05083e-06 2.46904e-06 0.546263 0.921643 0 0 0 0 0 0 0 0 0 0 0 0 0 0 0 0 0 0 0 0 0 0 0 0 0 0 0 0 0 0 0 0 0 0 0 0 0 0 0 0 0 0
1.58114 4.53951e-06 2.05478e-06 2.48473e-06 0.547356 0.920834 0 0 0 0 0 0 0 0 0 0 0 0 0 0 0 0 0 0 0 0 0 0 0 0 0 0 0 0 0 0 0 0 0 0 0 0 0 0 0 0 0 0
1.6623 4.60166e-06 2.059e-06 2.54266e-06 0.552552 0.921066 0 0 0 0 0 0 0 0 0 0 0 0 0 0 0 0 0 0 0 0 0 0 0 0 0 0 0 0 0 0 0 0 0 0 0 0 0 0 0 0 0 0
1.74763 4.54034e-06 2.06083e-06 2.47951e-06 0.546107 0.916941 0 0 0 0 0 0 0 0 0 0 0 0 0 0 0 0 0 0 0 0 0 0 0 0 0 0 0 0 0 0 0 0 0 0 0 0 0 0 0 0 0 0
1.83733 4.57466e-06 2.06494e-06 2.50972e-06 0.548615 0.916046 0 0 0 0 0 0 0 0 0 0 0 0 0 0 0 0 0 0 0 0 0 0 0 0 0 0 0 0 0 0 0 0 0 0 0 0 0 0 0 0 0 0
1.93164 4.66583e-06 2.06778e-06 2.59805e-06 0.556825 0.916865 0 0 0 0 0 0 0 0 0 0 0 0 0 0 0 0 0 0 0 0 0 0 0 0 0 0 0 0 0 0 0 0 0 0 0 0 0 0 0 0 0 0
2.03079 4.60502e-06 2.07185e-06 2.53316e-06 0.550088 0.913073 0 0 0 0 0 0 0 0 0 0 0 0 0 0 0 0 0 0 0 0 0 0 0 0 0 0 0 0 0 0 0 0 0 0 0 0 0 0 0 0 0 0
2.13503 4.567e-06 2.07619e-06 2.49081e-06 0.545393 0.909609 0 0 0 0 0 0 0 0 0 0 0 0 0 0 0 0 0 0 0 0 0 0 0 0 0 0 0 0 0 0 0 0 0 0 0 0 0 0 0 0 0 0
2.24463 4.69011e-06 2.07658e-06 2.61353e-06 0.557242 0.910935 0 0 0 0 0 0 0 0 0 0 0 0 0 0 0 0 0 0 0 0 0 0 0 0 0 0 0 0 0 0 0 0 0 0 0 0 0 0 0 0 0 0
2.35984 4.75851e-06 2.0821e-06 2.67641e-06 0.562448 0.909951 0 0 0 0 0 0 0 0 0 0 0 0 0 0 0 0 0 0 0 0 0 0 0 0 0 0 0 0 0 0 0 0 0 0 0 0 0 0 0 0 0 0
2.48097 4.64945e-06 2.07695e-06 2.5725e-06 0.553292 0.902646 0 0 0 0 0 0 0 0 0 0 0 0 0 0 0 0 0 0 0 0 0 0 0 0 0 0 0 0 0 0 0 0 0 0 0 0 0 0 0 0 0 0
2.60832 4.59236e-06 2.08284e-06 2.50952e-06 0.546456 0.897381 0 0 0 0 0 0 0 0 0 0 0 0 0 0 0 0 0 0 0 0 0 0 0 0 0 0 0 0 0 0 0 0 0 0 0 0 0 0 0 0 0 0
2.74221 4.72452e-06 2.07941e-06 2.64511e-06 0.559868 0.899775 0 0 0 0 0 0 0 0 0 0 0 0 0 0 0 0 0 0 0 0 0 0 0 0 0 0 0 0 0 0 0 0 0 0 0 0 0 0 0 0 0 0
2.88297 4.89015e-06 2.08521e-06 2.80495e-06 0.573591 0.903719 0 0 0 0 0 0 0 0 0 0 0 0 0 0 0 0 0 0 0 0 0 0 0 0 0 0 0 0 0 0 0 0 0 0 0 0 0 0 0 0 0 0
3.03095 4.8547e-06 2.09523e-06 2.75946e-06 0.568411 0.900545 0 0 0 0 0 0 0 0 0 0 0 0 0 0 0 0 0 0 0 0 0 0 0 0 0 0 0 0 0 0 0 0 0 0 0 0 0 0 0 0 0 0
3.18653 4.68236e-06 2.09797e-06 2.58439e-06 0.551942 0.890179 0 0 0 0 0 0 0 0 0 0 0 0 0 0 0 0 0 0 0 0 0 0 0 0 0 0 0 0 0 0 0 0 0 0 0 0 0 0 0 0 0 0
3.35009 4.61489e-06 2.10037e-06 2.51452e-06 0.544871 0.881651 0 0 0 0 0 0 0 0 0 0 0 0 0 0 0 0 0 0 0 0 0 0 0 0 0 0 0 0 0 0 0 0 0 0 0 0 0 0 0 0 0 0
3.52205 4.76132e-06 2.09585e-06 2.66548e-06 0.559819 0.881463 0 0 0 0 0 0 0 0 0 0 0 0 0 0 0 0 0 0 0 0 0 0 0 0 0 0 0 0 0 0 0 0 0 0 0 0 0 0 0 0 0 0
3.70284 5.00561e-06 2.09348e-06 2.91213e-06 0.581773 0.885693 0 0 0 0 0 0 0 0 0 0 0 0 0 0 0 0 0 0 0 0 0 0 0 0 0 0 0 0 0 0 0 0 0 0 0 0 0 0 0 0 0 0
3.89291 5.1159e-06 2.09189e-06 3.02401e-06 0.591101 0.884345 0 0 0 0 0 0 0 0 0 0 0 0 0 0 0 0 0 0 0 0 0 0 0 0 0 0 0 0 0 0 0 0 0 0 0 0 0 0 0 0 0 0
4.09273 4.99497e-06 2.08775e-06 2.90721e-06 0.582029 0.873183 0 0 0 0 0 0 0 0 0 0 0 0 0 0 0 0 0 0 0 0 0 0 0 0 0 0 0 0 0 0 0 0 0 0 0 0 0 0 0 0 0 0
4.30281 4.75551e-06 2.08516e-06 2.67035e-06 0.561528 0.858349 0 0 0 0 0 0 0 0 0 0 0 0 0 0 0 0 0 0 0 0 0 0 0 0 0 0 0 0 0 0 0 0 0 0 0 0 0 0 0 0 0 0
4.52368 4.62878e-06 2.08822e-06 2.54056e-06 0.548862 0.852806 0 0 0 0 0 0 0 0 0 0 0 0 0 0 0 0 0 0 0 0 0 0 0 0 0 0 0 0 0 0 0 0 0 0 0 0 0 0 0 0 0 0
4.75588 4.76231e-06 2.09164e-06 2.67067e-06 0.560793 0.857232 0 0 0 0 0 0 0 0 0 0 0 0 0 0 0 0 0 0 0 0 0 0 0 0 0 0 0 0 0 0 0 0 0 0 0 0 0 0 0 0 0 0
5 5.10886e-06 2.10147e-06 3.00739e-06 0.588661 0.872852 0 0 0 0 0 0 0 0 0 0 0 0 0 0 0 0 0 0 0 0 0 0 0 0 0 0 0 0 0 0 0 0 0 0 0 0 0 0 0 0 0 0
5.25665 5.42967e-06 2.11242e-06 3.31724e-06 0.610948 0.886214 0 0 0 0 0 0 0 0 0 0 0 0 0 0 0 0 0 0 0 0 0 0 0 0 0 0 0 0 0 0 0 0 0 0 0 0 0 0 0 0 0 0
5.52648 5.53173e-06 2.14775e-06 3.38397e-06 0.611739 0.883888 0 0 0 0 0 0 0 0 0 0 0 0 0 0 0 0 0 0 0 0 0 0 0 0 0 0 0 0 0 0 0 0 0 0 0 0 0 0 0 0 0 0
5.81015 5.35979e-06 2.21059e-06 3.1492e-06 0.58756 0.867041 0 0 0 0 0 0 0 0 0 0 0 0 0 0 0 0 0 0 0 0 0 0 0 0 0 0 0 0 0 0 0 0 0 0 0 0 0 0 0 0 0 0
6.10839 4.9065e-06 2.19908e-06 2.70743e-06 0.551803 0.825896 0 0 0 0 0 0 0 0 0 0 0 0 0 0 0 0 0 0 0 0 0 0 0 0 0 0 0 0 0 0 0 0 0 0 0 0 0 0 0 0 0 0
6.42193 4.57293e-06 2.23551e-06 2.33742e-06 0.511142 0.777942 0 0 0 0 0 0 0 0 0 0 0 0 0 0 0 0 0 0 0 0 0 0 0 0 0 0 0 0 0 0 0 0 0 0 0 0 0 0 0 0 0 0
6.75157 4.77768e-06 2.23427e-06 2.54341e-06 0.532353 0.77206 0 0 0 0 0 0 0 0 0 0 0 0 0 0 0 0 0 0 0 0 0 0 0 0 0 0 0 0 0 0 0 0 0 0 0 0 0 0 0 0 0 0
7.09813 5.51382e-06 2.11984e-06 3.39398e-06 0.61554 0.825418 0 0 0 0 0 0 0 0 0 0 0 0 0 0 0 0 0 0 0 0 0 0 0 0 0 0 0 0 0 0 0 0 0 0 0 0 0 0 0 0 0 0
7.46248 6.32851e-06 2.14251e-06 4.186e-06 0.661451 0.895983 0 0 0 0 0 0 0 0 0 0 0 0 0 0 0 0 0 0 0 0 0 0 0 0 0 0 0 0 0 0 0 0 0 0 0 0 0 0 0 0 0 0
7.84553 4.93859e-06 2.34928e-06 2.58931e-06 0.524301 0.931383 0 0 0 0 0 0 0 0 0 0 0 0 0 0 0 0 0 0 0 0 0 0 0 0 0 0 0 0 0 0 0 0 0 0 0 0 0 0 0 0 0 0
8.24824 4.27721e-06 2.44829e-06 1.82892e-06 0.427597 0.92148 0 0 0 0 0 0 0 0 0 0 0 0 0 0 0 0 0 0 0 0 0 0 0 0 0 0 0 0 0 0 0 0 0 0 0 0 0 0 0 0 0 0
8.67162 4.50547e-06 2.47678e-06 2.02869e-06 0.450273 0.89494 0 0 0 0 0 0 0 0 0 0 0 0 0 0 0 0 0 0 0 0 0 0 0 0 0 0 0 0 0 0 0 0 0 0 0 0 0 0 0 0 0 0
9.11674 4.84709e-06 2.4885e-06 2.35859e-06 0.486599 0.854645 0 0 0 0 0 0 0 0 0 0 0 0 0 0 0 0 0 0 0 0 0 0 0 0 0 0 0 0 0 0 0 0 0 0 0 0 0 0 0 0 0 0
9.5847 5.18042e-06 2.5566e-06 2.62382e-06 0.506488 0.822975 0 0 0 0 0 0 0 0 0 0 0 0 0 0 0 0 0 0 0 0 0 0 0 0 0 0 0 0 0 0 0 0 1.4013e-45 0 5.60519e-45 0 1.26117e-44 0 3.22299e-44 0 7.28675e-44 0
10.0767 5.3383e-06 2.60983e-06 2.72847e-06 0.511112 0.807638 0 0 0 0 0 0 0 0 0 0 0 0 0 0 0 0 0 0 0 0 0 0 1.4013e-45 0 2.8026e-45 0 1.26117e-44 0 4.34403e-44 0 1.33123e-43 0 3.74147e-43 0 9.90718e-43 0 2.40743e-42 0 5.63462e-42 0 1.24575e-41 0
10.5939 5.45303e-06 2.63825e-06 2.81478e-06 0.516186 0.792182 0 0 0 0 0 0 0 0 0 0 0 0 0 0 0 0 1.4013e-45 0 5.60519e-45 0 3.36312e-44 0 1.62551e-43 0 6.54406e-43 0 2.32475e-42 0 7.30917e-42 0 2.14315e-41 0 5.75121e-41 0 1.45026e-40 0 3.37298e-40 0 7.57503e-40 0 1.61104e-39 0
11.1377 5.50051e-06 2.68058e-06 2.81993e-06 0.512668 0.786686 0 0 0 0 0 0 0 0 0 0 0 0 1.4013e-45 0 1.82169e-44 0 1.63952e-43 0 1.11263e-42 0 5.81819e-42 0 2.5704e-41 0 9.711e-41 0 3.2422e-40 0 9.63838e-40 0 2.68126e-39 0 6.85683e-39 0 1.6527e-38 0 3.68865e-38 0 7.96309e-38 0 1.63231e-37 0
11.7094 5.5344e-06 2.72304e-06 2.81136e-06 0.507979 0.782198 0 0 0 0 0 0 0 0 0 0 1.26117e-44 0 2.66247e-43 0 3.16974e-42 0 2.57194e-41 0 1.58963e-40 0 7.66785e-40 0 3.15062e-39 0 1.11549e-38 0 3.51137e-38 0 9.89779e-38 0 2.61926e-37 0 6.39814e-37 0 1.47731e-36 0 3.17044e-36 0 6.59199e-36 0 1.30472e-35 0
12.3105 5.56171e-06 2.7757e-06 2.78601e-06 0.500927 0.780359 0 0 0 0 0 0 0 0 5.74532e-44 0 2.22526e-42 0 4.04919e-41 0 4.26865e-40 0 3.12721e-39 0 1.76835e-38 0 7.89911e-38 0 3.02925e-37 0 1.00832e-36 0 3.00119e-36 0 8.04233e-36 0 2.02949e-35 0 4.74597e-35 0 1.05196e-34 0 2.17498e-34 0 4.36346e-34 0 8.35324e-34 0
12.9424 5.59197e-06 2.85105e-06 2.74093e-06 0.490154 0.782457 0 0 0 0 0 0 8.82818e-44 0 9.45596e-42 0 3.03823e-40 0 4.79789e-39 0 4.50847e-38 0 2.99689e-37 0 1.5572e-36 0 6.46575e-36 0 2.32207e-35 0 7.2885e-35 0 2.05687e-34 0 5.25283e-34 0 1.26699e-33 0 2.84247e-33 0 6.06028e-33 0 1.20934e-32 0 2.34509e-32 0 4.34925e-32 0
13.6067 5.62393e-06 2.95899e-06 2.66494e-06 0.473857 0.787002 0 0 0 0 1.82169e-44 0 1.4076e-41 0 1.2022e-39 0 3.26087e-38 0 4.50041e-37 0 3.79076e-36 0 2.29722e-35 0 1.10137e-34 0 4.26602e-34 0 1.43936e-33 0 4.27247e-33 0 1.14617e-32 0 2.79611e-32 0 6.46046e-32 0 1.39333e-31 0 2.86285e-31 0 5.52334e-31 0 1.03698e-30 0 1.86608e-30 0
14.3051 5.71259e-06 3.06759e-06 2.64501e-06 0.463013 0.790044 0 0 0 0 3.07865e-42 0 1.73516e-39 0 1.19267e-37 0 2.75356e-36 0 3.34317e-35 0 2.53774e-34 0 1.40838e-33 0 6.25483e-33 0 2.26773e-32 0 7.21026e-32 0 2.02951e-31 0 5.18843e-31 0 1.2118e-30 0 2.68772e-30 0 5.58312e-30 0 1.10752e-29 0 2.06929e-29 0 3.76734e-29 0 6.58771e-29 0
15.0394 5.77628e-06 3.07598e-06 2.7003e-06 0.46748 0.790439 0 0 4.2039e-45 0 3.91303e-40 0 1.61842e-37 0 9.04844e-36 0 1.79219e-34 0 1.92624e-33 0 1.3244e-32 0 6.76011e-32 0 2.79149e-31 0 9.50387e-31 0 2.85584e-30 0 7.6424e-30 0 1.86626e-29 0 4.18198e-29 0 8.92159e-29 0 1.78828e-28 0 3.43072e-28 0 6.21728e-28 0 1.09928e-27 0 1.87051e-27 0
15.8114 5.74085e-06 3.07033e-06 2.67052e-06 0.465179 0.785642 0 0 7.67912e-43 0 3.86023e-38 0 1.18971e-35 0 5.46516e-34 0 9.35617e-33 0 8.95509e-32 0 5.604e-31 0 2.64161e-30 0 1.01785e-29 0 3.26414e-29 0 9.29547e-29 0 2.3708e-28 0 5.54251e-28 0 1.19401e-27 0 2.45472e-27 0 4.75609e-27 0 8.83866e-27 0 1.55595e-26 0 2.67559e-26 0 4.43607e-26 0
16.623 5.69699e-06 3.0738e-06 2.62319e-06 0.460452 0.77235 1.4013e-45 0 1.01685e-40 0 3.01507e-36 0 7.02441e-34 0 2.67682e-32 0 3.98923e-31 0 3.41953e-30 0 1.95664e-29 0 8.55075e-29 0 3.08471e-28 0 9.34529e-28 0 2.52874e-27 0 6.16135e-27 0 1.38191e-26 0 2.86754e-26 0 5.69143e-26 0 1.06769e-25 0 1.92504e-25 0 3.29653e-25 0 5.52061e-25 0 8.92987e-25 0
