# 0.00480947 1 113 : grain size, compostion index, size index
# Heating and cooling timescale: 1.5771e-07 inf
# Ratio of heating to cooling to determine stochastic cutoff: 100
# Equilibrium emission is recorded even for those grains in the stochastic regime.
# Emission spectrum was computed for: 
# Type: IRSF
# Scales: 0.5 1 2 5 10
# StochasticallyHeated: 0 0 0 0 0
# Temperature: -1
# Wavelength  CExt  CAbs  CSca  Albedo G EqEm1 StEm1 EqEm2 StEm2 EqEm3 StEm3 EqEm4 StEm4 EqEm5 StEm5
0.05 0.000145746 5.15226e-05 9.42234e-05 0.64649 0.853901 0 0 0 0 0 0 0 0 0 0
0.0525665 0.000145763 5.06849e-05 9.50783e-05 0.652279 0.841405 0 0 0 0 0 0 0 0 0 0
0.0552647 0.000145781 5.0051e-05 9.57303e-05 0.656671 0.831031 0 0 0 0 0 0 0 0 0 0
0.0581015 0.0001458 4.97645e-05 9.60352e-05 0.658679 0.824665 0 0 0 0 0 0 0 0 0 0
0.0610839 0.000145818 4.90597e-05 9.67582e-05 0.663555 0.815894 0 0 0 0 0 0 0 0 0 0
0.0642193 0.000145839 4.73008e-05 9.85384e-05 0.675665 0.797598 0 0 0 0 0 0 0 0 0 0
0.0675157 0.000145864 4.55525e-05 0.000100311 0.687705 0.777614 0 0 0 0 0 0 0 0 0 0
0.0709813 0.00014589 4.53765e-05 0.000100513 0.688967 0.770491 0 0 0 0 0 0 0 0 0 0
0.0746248 0.000145915 4.60659e-05 9.98495e-05 0.684297 0.771846 0 0 0 0 0 0 0 0 0 0
0.0784553 0.000145941 4.7027e-05 9.89137e-05 0.677766 0.776756 0 0 0 0 0 0 0 0 0 0
0.0824824 0.000145966 4.8125e-05 9.7841e-05 0.6703 0.782642 0 0 0 0 0 0 0 0 0 0
0.0867162 0.000145992 4.83809e-05 9.76113e-05 0.668606 0.781519 0 0 0 0 0 0 0 0 0 0
0.0911674 0.000146021 4.81558e-05 9.78648e-05 0.670212 0.776367 0 0 0 0 0 0 0 0 0 0
0.095847 0.000146051 4.83591e-05 9.76917e-05 0.668889 0.774619 0 0 0 0 0 0 0 0 0 0
0.100767 0.000146075 5.00596e-05 9.60158e-05 0.657303 0.786096 0 0 0 0 0 0 0 0 0 0
0.105939 0.000146097 5.17706e-05 9.43262e-05 0.645642 0.800764 0 0 0 0 0 0 0 0 0 0
0.111377 0.00014611 5.48922e-05 9.12183e-05 0.62431 0.828804 0 0 0 0 0 0 0 0 0 0
0.117094 0.00014612 5.81147e-05 8.80057e-05 0.602282 0.861158 0 0 0 0 0 0 0 0 0 0
0.123105 0.000146138 6.01926e-05 8.59456e-05 0.588112 0.883807 0 0 0 0 0 0 0 0 0 0
0.129424 0.00014616 6.19552e-05 8.42045e-05 0.576113 0.903792 0 0 0 0 0 0 0 0 0 0
0.136067 0.000146182 6.33628e-05 8.28195e-05 0.566549 0.920005 0 0 0 0 0 0 0 0 0 0
0.143051 0.000146202 6.44549e-05 8.1747e-05 0.559138 0.932656 0 0 0 0 0 0 0 0 0 0
0.150394 0.000146217 6.50767e-05 8.11399e-05 0.554929 0.940813 0 0 0 0 0 0 0 0 0 0
0.158114 0.000146231 6.48613e-05 8.13696e-05 0.556446 0.941699 0 0 0 0 0 0 0 0 0 0
0.16623 0.000146256 6.33326e-05 8.29238e-05 0.566976 0.930885 0 0 0 0 0 0 0 0 0 0
0.174762 0.000146299 6.03026e-05 8.59965e-05 0.587813 0.90435 0 0 0 0 0 0 0 0 0 0
0.183733 0.000146349 5.64783e-05 8.98705e-05 0.614084 0.868506 0 0 0 0 0 0 0 0 0 0
0.193164 0.000146404 5.2502e-05 9.39019e-05 0.641389 0.831612 0 0 0 0 0 0 0 0 0 0
0.203079 0.000146461 4.90454e-05 9.74161e-05 0.665131 0.801118 0 0 0 0 0 0 0 0 0 0
0.213503 0.000146524 4.60773e-05 0.000100446 0.68553 0.776297 0 0 0 0 0 0 0 0 0 0
0.224463 0.000146593 4.40964e-05 0.000102496 0.699191 0.75912 0 0 0 0 0 0 0 0 0 0
0.235984 0.000146668 4.297e-05 0.000103698 0.707026 0.747541 0 0 0 0 0 0 0 0 0 0
0.248097 0.000146749 4.31561e-05 0.000103593 0.705919 0.743766 0 0 0 0 0 0 0 0 0 0
0.260832 0.000146821 4.4191e-05 0.00010263 0.699015 0.745911 0 0 0 0 0 0 0 0 0 0
0.274221 0.000146884 4.5451e-05 0.000101433 0.690565 0.750139 0 0 0 0 0 0 0 0 0 0
0.288297 0.000146924 4.71244e-05 9.97995e-05 0.67926 0.759629 0 0 0 0 0 0 0 0 0 0
0.303095 0.000146964 4.82723e-05 9.86919e-05 0.671537 0.766856 0 0 0 0 0 0 0 0 0 0
0.318653 0.000147006 4.92072e-05 9.77984e-05 0.66527 0.773208 0 0 0 0 0 0 0 0 0 0
0.335009 0.00014705 4.99474e-05 9.71026e-05 0.660337 0.778661 0 0 0 0 0 0 0 0 0 0
0.352205 0.0001471 5.04547e-05 9.66453e-05 0.657004 0.782504 0 0 0 0 0 0 0 0 0 0
0.370284 0.000147155 5.07803e-05 9.63743e-05 0.654919 0.784872 0 0 0 0 0 0 0 0 0 0
0.389291 0.000147213 5.09477e-05 9.62656e-05 0.653919 0.785773 0 0 0 0 0 0 0 0 0 0
0.409273 0.000147273 5.10687e-05 9.62047e-05 0.653239 0.786309 0 0 0 0 0 0 0 0 0 0
0.430281 0.000147336 5.11685e-05 9.61676e-05 0.652709 0.786682 0 0 0 0 0 0 0 0 0 0
0.452368 0.000147402 5.12696e-05 9.6132e-05 0.652177 0.78724 0 0 0 0 0 0 0 0 0 0
0.475588 0.00014747 5.13584e-05 9.61111e-05 0.651735 0.787743 0 0 0 0 0 0 0 0 0 0
0.5 0.000147541 5.1413e-05 9.61285e-05 0.651535 0.787981 0 0 0 0 0 0 0 0 0 0
0.525665 0.000147617 5.1445e-05 9.61719e-05 0.651496 0.788055 0 0 0 0 0 0 0 0 0 0
0.552647 0.000147695 5.1465e-05 9.62304e-05 0.651546 0.788008 0 0 0 0 0 0 0 0 0 0
0.581015 0.000147779 5.13963e-05 9.63827e-05 0.652208 0.787156 0 0 0 0 0 0 0 0 0 0
0.610839 0.000147866 5.13238e-05 9.6542e-05 0.652903 0.786265 0 0 0 0 0 0 0 0 0 0
0.642193 0.000147956 5.12471e-05 9.67088e-05 0.653633 0.785333 0 0 0 0 0 0 0 0 0 0
0.675157 0.00014805 5.11365e-05 9.69136e-05 0.6546 0.784081 0 0 0 0 0 0 0 0 0 0
0.709813 0.000148149 5.09947e-05 9.71545e-05 0.655788 0.782531 0 0 0 0 0 0 0 0 0 0
0.746248 0.000148251 5.08381e-05 9.74134e-05 0.657082 0.780826 0 0 0 0 0 0 0 0 0 0
0.784553 0.000148358 5.06766e-05 9.76813e-05 0.658417 0.779081 0 0 0 0 0 0 0 0 0 0
0.824824 0.000148468 5.05114e-05 9.79564e-05 0.659782 0.777285 0 0 0 0 0 0 0 0 0 0
0.867162 0.000148581 5.03421e-05 9.82389e-05 0.661181 0.775445 0 0 0 0 0 0 0 0 0 0
0.911674 0.000148698 5.01727e-05 9.85255e-05 0.662587 0.773598 0 0 0 0 0 0 0 0 0 0
0.95847 0.000148818 5.0012e-05 9.88064e-05 0.66394 0.771803 0 0 0 0 0 0 0 0 0 0
1.00767 0.000148942 4.98504e-05 9.90918e-05 0.665304 0.769998 0 0 0 0 0 0 0 0 0 0
1.05939 0.000149069 4.9704e-05 9.93648e-05 0.66657 0.768305 0 0 0 0 0 0 0 0 0 0
1.11377 0.000149199 4.95529e-05 9.96464e-05 0.667874 0.766574 0 0 0 0 0 0 0 0 0 0
1.17094 0.000149334 4.94149e-05 9.99191e-05 0.669098 0.764947 0 0 0 0 0 0 0 0 0 0
1.23105 0.000149472 4.92778e-05 0.000100194 0.670321 0.763326 0 0 0 0 0 0 0 0 0 0
1.29424 0.000149616 4.91249e-05 0.000100491 0.671659 0.761577 0 0 0 0 0 0 0 0 0 0
1.36067 0.000149762 4.89786e-05 0.000100784 0.672958 0.759876 0 0 0 0 0 0 0 0 0 0
1.43051 0.000149912 4.88427e-05 0.00010107 0.674192 0.758253 0 0 0 0 0 0 0 0 0 0
1.50394 0.000150067 4.87137e-05 0.000101353 0.675387 0.756681 0 0 0 0 0 0 0 0 0 0
1.58114 0.000150226 4.85787e-05 0.000101648 0.67663 0.755064 0 0 0 0 0 0 0 0 0 0
1.6623 0.000150392 4.843e-05 0.000101961 0.677974 0.753347 0 0 0 0 0 0 0 0 0 0
1.74762 0.00015056 4.8279e-05 0.000102281 0.679337 0.751609 0 0 0 0 0 0 0 0 0 0
1.83733 0.000150732 4.81348e-05 0.000102597 0.68066 0.749923 0 0 0 0 0 0 0 0 0 0
1.93164 0.000150908 4.79912e-05 0.000102917 0.681984 0.748248 0 0 0 0 0 0 0 0 0 0
2.03079 0.000151089 4.78473e-05 0.000103241 0.683317 0.746575 0 0 0 0 0 0 0 0 0 0
2.13503 0.000151274 4.76938e-05 0.000103581 0.68472 0.744827 0 0 0 0 0 0 0 0 0 0
2.24463 0.000151464 4.75426e-05 0.000103921 0.686112 0.743112 0 0 0 0 0 0 0 0 0 0
2.35984 0.000151656 4.73971e-05 0.000104259 0.68747 0.741435 0 0 0 0 0 0 0 0 0 0
2.48097 0.000151854 4.7254e-05 0.0001046 0.688819 0.739793 0 0 0 0 0 0 0 0 0 0
2.60832 0.000152056 4.709e-05 0.000104966 0.690311 0.738007 0 0 0 0 0 0 0 0 0 0
2.74221 0.000152261 4.69194e-05 0.000105342 0.691849 0.736191 0 0 0 0 0 0 0 0 0 0
2.88297 0.000152466 4.67635e-05 0.000105702 0.693285 0.734486 0 0 0 0 0 0 0 0 0 0
3.03095 0.000152679 4.66035e-05 0.000106075 0.694761 0.732777 0 0 0 0 0 0 0 0 0 0
3.18653 0.000152892 4.64378e-05 0.000106454 0.696271 0.731038 0 0 0 0 0 0 0 0 0 0
3.35009 0.000153112 4.62694e-05 0.000106842 0.697807 0.729299 0 0 0 0 0 0 0 0 0 0
3.52205 0.000153349 4.61028e-05 0.000107247 0.699361 0.727611 0 0 0 0 0 0 0 0 0 0
3.70284 0.000153543 4.59365e-05 0.000107606 0.700822 0.725881 0 0 0 0 0 0 0 0 0 0
3.89291 0.000153784 4.57741e-05 0.00010801 0.702349 0.724255 0 0 0 0 0 0 0 0 0 0
4.09273 0.000153978 4.55971e-05 0.000108381 0.703872 0.722495 0 0 0 0 0 0 0 0 0 0
4.30281 0.000154285 4.54158e-05 0.000108869 0.705636 0.72088 0 0 0 0 0 0 0 0 0 0
4.52368 0.000154458 4.52315e-05 0.000109227 0.70716 0.719086 0 0 0 0 0 0 0 0 0 0
4.75588 0.000154664 4.5044e-05 0.00010962 0.708763 0.71733 0 0 0 0 0 0 0 0 0 0
5 0.00015493 4.48532e-05 0.000110077 0.710494 0.715673 0 0 0 0 0 0 0 0 0 0
5.25665 0.000155257 4.46372e-05 0.00011062 0.712495 0.713968 0 0 0 0 0 0 0 0 0 0
5.52648 0.000155506 4.44183e-05 0.000111088 0.714363 0.712178 0 0 0 0 0 0 0 0 0 0
5.81015 0.000155774 4.42073e-05 0.000111566 0.716208 0.710493 0 0 0 0 0 0 0 0 0 0
6.10839 0.000156077 4.39959e-05 0.000112081 0.718113 0.708827 0 0 0 0 0 0 0 0 0 0
6.42193 0.000156296 4.37957e-05 0.0001125 0.71979 0.707135 0 0 0 0 0 0 0 0 0 0
6.75157 0.000156504 4.35852e-05 0.000112919 0.721508 0.705462 0 0 0 0 0 0 0 0 0 0
7.09813 0.000156609 4.33787e-05 0.000113231 0.723013 0.703581 0 0 0 0 0 0 0 0 0 0
7.46248 0.000156687 4.31988e-05 0.000113488 0.724299 0.701828 0 0 0 0 0 0 0 0 0 0
7.84553 0.000157028 4.30259e-05 0.000114002 0.725998 0.700549 0 0 0 0 0 0 0 0 0 0
8.24824 0.000157602 4.28449e-05 0.000114757 0.728145 0.699503 0 0 0 0 0 0 0 0 0 0
8.67162 0.000157864 4.26837e-05 0.00011518 0.729617 0.698167 0 0 0 0 0 0 0 0 0 0
9.11674 0.000157713 4.25482e-05 0.000115165 0.730218 0.696383 0 0 0 0 0 0 0 0 0 0
9.5847 0.00015819 4.24424e-05 0.000115747 0.7317 0.695696 0 0 0 0 0 0 0 0 0 0
10.0767 0.000158675 4.23474e-05 0.000116327 0.733118 0.694965 0 0 0 0 0 0 0 0 0 0
10.5939 0.000158526 4.22599e-05 0.000116266 0.73342 0.693586 0 0 0 0 0 0 0 0 0 0
11.1377 0.000159007 4.22081e-05 0.000116799 0.734552 0.693246 0 0 0 0 0 0 0 0 0 0
11.7094 0.000159236 4.19079e-05 0.000117328 0.736819 0.69033 0 0 0 0 0 0 0 0 0 0
12.3105 0.000159628 4.19189e-05 0.000117709 0.737397 0.690654 0 0 0 0 0 0 0 0 0 0
12.9424 0.000159904 4.17737e-05 0.00011813 0.738758 0.689625 0 0 0 0 0 0 0 0 0 0
13.6067 0.000160107 4.16337e-05 0.000118473 0.739963 0.68858 0 0 0 0 0 0 0 0 0 0
14.3051 0.000160467 4.1511e-05 0.000118956 0.741311 0.687742 0 0 0 0 0 0 0 0 0 0
15.0394 0.000160671 4.13963e-05 0.000119274 0.742353 0.686772 0 0 0 0 0 0 0 0 0 0
15.8114 0.000161004 4.13043e-05 0.0001197 0.743458 0.686059 0 0 0 0 0 0 0 0 9.80909e-45 0
16.623 0.000161253 4.11937e-05 0.000120059 0.744539 0.685183 0 0 0 0 0 0 0 0 1.7306e-42 0
17.4762 0.000161519 4.10651e-05 0.000120454 0.745757 0.684322 0 0 0 0 0 0 0 0 2.46095e-40 0
18.3733 0.000161748 4.09285e-05 0.00012082 0.746962 0.683456 0 0 0 0 0 0 9.80909e-45 0 2.71288e-38 0
19.3164 0.000161929 4.07312e-05 0.000121198 0.748462 0.682314 0 0 0 0 0 0 1.71939e-42 0 2.34419e-36 0
20.3079 0.000162012 4.03805e-05 0.000121631 0.750756 0.680613 0 0 0 0 0 0 2.34282e-40 0 1.60308e-34 0
21.3503 0.000161981 3.99563e-05 0.000122025 0.753327 0.678447 0 0 0 0 0 0 2.47556e-38 0 8.79007e-33 0
22.4463 0.000161878 3.94073e-05 0.000122471 0.756562 0.675455 0 0 0 0 1.54143e-44 0 2.05048e-36 0 3.90108e-31 0
23.5984 0.000161784 3.86808e-05 0.000123103 0.760911 0.671032 0 0 0 0 2.43406e-42 0 1.3449e-34 0 1.41339e-29 0
24.8097 0.000161848 3.77155e-05 0.000124132 0.766969 0.664533 0 0 0 0 3.04732e-40 0 7.05091e-33 0 4.21349e-28 0
26.0832 0.000162236 3.66638e-05 0.000125572 0.774009 0.655877 0 0 1.96182e-44 0 2.96417e-38 0 2.99693e-31 0 1.04682e-26 0
27.4221 0.000162864 3.55843e-05 0.00012728 0.781509 0.645905 0 0 2.92731e-42 0 2.27115e-36 0 1.04476e-29 0 2.18974e-25 0
28.8297 0.000163824 3.4612e-05 0.000129212 0.788724 0.635212 0 0 3.47863e-40 0 1.39178e-34 0 3.02719e-28 0 3.9033e-24 0
30.3095 0.00016495 3.36921e-05 0.000131258 0.795743 0.624367 2.38221e-44 0 3.23184e-38 0 6.88797e-33 0 7.34748e-27 0 5.96819e-23 0
31.8653 0.000166184 3.29684e-05 0.000133215 0.801615 0.614528 3.51866e-42 0 2.38667e-36 0 2.79426e-31 0 1.51356e-25 0 7.92164e-22 0
33.5009 0.000167511 3.22451e-05 0.000135265 0.807504 0.604949 4.00135e-40 0 1.40905e-34 0 9.33122e-30 0 2.65294e-24 0 9.14066e-21 0
35.2206 0.00016875 3.17485e-05 0.000137001 0.81186 0.597149 3.58768e-38 0 6.77203e-33 0 2.60825e-28 0 4.01663e-23 0 9.29838e-20 0
37.0284 0.000169931 3.11789e-05 0.000138752 0.81652 0.589404 2.5428e-36 0 2.65233e-31 0 6.10057e-27 0 5.24334e-22 0 8.31542e-19 0
38.9291 0.000170986 3.06809e-05 0.000140306 0.820565 0.582861 1.44762e-34 0 8.58926e-30 0 1.20987e-25 0 5.97127e-21 0 6.60833e-18 0
40.9273 0.00017178 3.00941e-05 0.000141686 0.82481 0.576203 6.65638e-33 0 2.30934e-28 0 2.04038e-24 0 5.94147e-20 0 4.6698e-17 0
43.0282 0.000172497 2.95731e-05 0.000142924 0.828559 0.570296 2.51043e-31 0 5.22785e-27 0 2.96399e-23 0 5.22514e-19 0 2.96576e-16 0
45.2368 0.000172946 2.89532e-05 0.000143993 0.832589 0.564363 7.79791e-30 0 9.99319e-26 0 3.7153e-22 0 4.06349e-18 0 1.69229e-15 0
47.5588 0.000173304 2.85338e-05 0.00014477 0.835354 0.5587 2.03458e-28 0 1.64303e-24 0 4.08901e-21 0 2.84005e-17 0 8.81054e-15 0
50 0.00017363 2.80405e-05 0.000145589 0.838504 0.553037 4.45598e-27 0 2.31926e-23 0 3.94021e-20 0 1.77689e-16 0 4.16566e-14 0
52.5665 0.000173802 2.76291e-05 0.000146173 0.841031 0.54782 8.30726e-26 0 2.84717e-22 0 3.36412e-19 0 1.00601e-15 0 1.80681e-13 0
55.2648 0.000173997 2.73562e-05 0.00014664 0.842777 0.542173 1.33173e-24 0 3.06747e-21 0 2.56584e-18 0 5.19114e-15 0 7.23615e-13 0
58.1015 0.000174165 2.70662e-05 0.000147099 0.844594 0.536195 1.83958e-23 0 2.90348e-20 0 1.74857e-17 0 2.43949e-14 0 2.67211e-12 0
61.0839 0.000174352 2.67683e-05 0.000147584 0.84647 0.530897 2.20609e-22 0 2.43039e-19 0 1.07083e-16 0 1.04908e-13 0 9.13654e-12 0
64.2193 0.000174542 2.66341e-05 0.000147908 0.847405 0.525514 2.32781e-21 0 1.82169e-18 0 5.96246e-16 0 4.17324e-13 0 2.92234e-11 0
67.5157 0.000174598 2.65281e-05 0.00014807 0.848062 0.518508 2.16439e-20 0 1.22346e-17 0 3.01821e-15 0 1.53424e-12 0 8.73086e-11 0
70.9813 0.000174744 2.63374e-05 0.000148406 0.84928 0.511046 1.77688e-19 0 7.37114e-17 0 1.38963e-14 0 5.21095e-12 0 2.43438e-10 0
74.6248 0.000175184 2.6259e-05 0.000148925 0.850106 0.505154 1.3053e-18 0 4.03435e-16 0 5.88908e-14 0 1.65345e-11 0 6.40252e-10 0
78.4553 0.000175575 2.63729e-05 0.000149202 0.849791 0.499712 8.6555e-18 0 2.02199e-15 0 2.31411e-13 0 4.93388e-11 0 1.59815e-09 0
82.4824 0.000175592 2.65235e-05 0.000149069 0.848948 0.49186 5.17762e-17 0 9.26784e-15 0 8.4154e-13 0 1.38095e-10 0 3.77453e-09 0
86.7162 0.000175575 2.65868e-05 0.000148988 0.848573 0.481349 2.79526e-16 0 3.88398e-14 0 2.8299e-12 0 3.62013e-10 0 8.41906e-09 0
91.1674 0.000176065 2.6662e-05 0.000149403 0.848567 0.471048 1.37372e-15 0 1.50013e-13 0 8.86518e-12 0 8.94891e-10 0 1.7848e-08 0
95.847 0.00017707 2.69357e-05 0.000150134 0.847881 0.463403 6.21678e-15 0 5.39862e-13 0 2.61425e-11 0 2.10661e-09 0 3.63028e-08 0
100.767 0.000177987 2.74583e-05 0.000150528 0.845728 0.457534 2.60643e-14 0 1.82015e-12 0 7.29291e-11 0 4.74314e-09 0 7.11311e-08 0
105.939 0.000178345 2.81297e-05 0.000150216 0.842274 0.450068 1.01246e-13 0 5.7465e-12 0 1.92283e-10 0 1.01996e-08 0 1.34017e-07 0
111.377 0.000178194 2.87554e-05 0.000149438 0.838628 0.438002 3.63257e-13 0 1.69278e-11 0 4.77204e-10 0 2.08516e-08 0 2.41603e-07 0
117.094 0.000178224 2.92619e-05 0.000148962 0.835813 0.421308 1.20542e-12 0 4.6566e-11 0 1.11525e-09 0 4.05243e-08 0 4.16612e-07 0
123.105 0.000179148 2.97079e-05 0.000149441 0.834171 0.402972 3.72118e-12 0 1.20263e-10 0 2.46656e-09 0 7.5206e-08 0 6.90014e-07 0
129.424 0.000181021 2.98445e-05 0.000151176 0.835132 0.385913 1.06354e-11 0 2.90074e-10 0 5.13351e-09 0 1.32469e-07 0 1.09074e-06 0
136.067 0.00018332 2.96474e-05 0.000153673 0.838275 0.371979 2.82159e-11 0 6.54858e-10 0 1.00722e-08 0 2.21767e-07 0 1.64741e-06 0
143.051 0.000184733 2.84113e-05 0.000156321 0.846203 0.359334 6.79939e-11 0 1.35346e-09 0 1.82168e-08 0 3.44894e-07 0 2.32311e-06 0
150.394 0.000184617 2.67562e-05 0.000157861 0.855072 0.346467 1.5206e-10 0 2.6156e-09 0 3.10079e-08 0 5.08544e-07 0 3.12082e-06 0
158.114 0.000182518 2.50487e-05 0.000157469 0.86276 0.329229 3.20142e-10 0 4.79263e-09 0 5.03551e-08 0 7.20419e-07 0 4.0463e-06 0
166.23 0.000179204 2.3304e-05 0.0001559 0.869958 0.303715 6.36018e-10 0 8.34296e-09 0 7.81478e-08 0 9.81841e-07 0 5.06902e-06 0
174.763 0.000175747 2.16091e-05 0.000154138 0.877044 0.267642 1.19883e-09 0 1.38685e-08 0 1.16464e-07 0 1.29316e-06 0 6.1622e-06 0
183.733 0.000173397 2.04053e-05 0.000152992 0.88232 0.222897 2.19582e-09 0 2.25402e-08 0 1.70607e-07 0 1.68429e-06 0 7.43708e-06 0
193.164 0.000172652 1.93854e-05 0.000153267 0.88772 0.172486 3.86994e-09 0 3.54557e-08 0 2.43113e-07 0 2.14626e-06 0 8.81435e-06 0
203.079 0.000173671 1.86569e-05 0.000155014 0.892573 0.121019 6.62282e-09 0 5.44574e-08 0 3.39903e-07 0 2.69808e-06 0 1.03425e-05 0
213.503 0.000176137 1.83029e-05 0.000157834 0.896087 0.0723844 1.10963e-08 0 8.23223e-08 0 4.69882e-07 0 3.3711e-06 0 1.21027e-05 0
224.463 0.000179297 1.81287e-05 0.000161169 0.89889 0.0281938 1.80645e-08 0 1.21527e-07 0 6.37107e-07 0 4.15172e-06 0 1.40047e-05 0
235.984 0.00018236 1.8094e-05 0.000164266 0.900779 -0.0108648 2.85727e-08 0 1.75138e-07 0 8.46826e-07 0 5.03605e-06 0 1.60107e-05 0
248.097 0.00018444 1.81406e-05 0.000166299 0.901645 -0.0448797 4.3849e-08 0 2.46005e-07 0 1.10141e-06 0 6.00445e-06 0 1.80443e-05 0
260.832 0.000184777 1.83142e-05 0.000166462 0.900885 -0.0742916 6.55613e-08 0 3.38117e-07 0 1.40701e-06 0 7.06172e-06 0 2.01161e-05 0
274.221 0.000182598 1.84395e-05 0.000164159 0.899016 -0.100065 9.47394e-08 0 4.50995e-07 0 1.75059e-06 0 8.12188e-06 0 2.19897e-05 0
288.297 0.000177406 1.84286e-05 0.000158977 0.896122 -0.122878 1.31896e-07 0 5.81826e-07 0 2.11383e-06 0 9.10103e-06 0 2.34798e-05 0
303.095 0.000169044 1.82448e-05 0.000150799 0.892071 -0.143186 1.76805e-07 0 7.25435e-07 0 2.47487e-06 0 9.92514e-06 0 2.44596e-05 0
318.653 0.000157892 1.79117e-05 0.00013998 0.886557 -0.161383 2.28761e-07 0 8.7613e-07 0 2.81544e-06 0 1.05545e-05 0 2.49043e-05 0
335.009 0.000144502 1.73612e-05 0.000127141 0.879855 -0.177938 2.84811e-07 0 1.02163e-06 0 3.10156e-06 0 1.09056e-05 0 2.4694e-05 0
352.206 0.000129727 1.66223e-05 0.000113104 0.871867 -0.19307 3.41817e-07 0 1.15207e-06 0 3.3136e-06 0 1.09637e-05 0 2.38749e-05 0
370.284 0.000114554 1.57951e-05 9.87589e-05 0.862117 -0.206836 3.97793e-07 0 1.26365e-06 0 3.45266e-06 0 1.07833e-05 0 2.26293e-05 0
389.291 9.97276e-05 1.48884e-05 8.48392e-05 0.85071 -0.219507 4.49183e-07 0 1.34881e-06 0 3.50996e-06 0 1.03785e-05 0 2.10305e-05 0
409.273 8.58357e-05 1.39485e-05 7.18872e-05 0.837498 -0.231197 4.93656e-07 0 1.40515e-06 0 3.49117e-06 0 9.80109e-06 0 1.92138e-05 0
430.282 7.33239e-05 1.30532e-05 6.02707e-05 0.821979 -0.241857 5.31212e-07 0 1.43714e-06 0 3.41718e-06 0 9.13336e-06 0 1.73532e-05 0
452.368 6.23047e-05 1.22018e-05 5.01029e-05 0.80416 -0.251655 5.6026e-07 0 1.44432e-06 0 3.29409e-06 0 8.4042e-06 0 1.55028e-05 0
475.588 5.2776e-05 1.14035e-05 4.13724e-05 0.783925 -0.26068 5.80227e-07 0 1.42881e-06 0 3.1325e-06 0 7.64789e-06 0 1.37197e-05 0
500 4.46624e-05 1.06683e-05 3.39942e-05 0.761136 -0.268973 5.91303e-07 0 1.39414e-06 0 2.94422e-06 0 6.89531e-06 0 1.20486e-05 0
525.665 3.78908e-05 1.00383e-05 2.78525e-05 0.735072 -0.276368 5.96322e-07 0 1.34918e-06 0 2.75008e-06 0 6.19246e-06 0 1.05556e-05 0
552.648 3.22237e-05 9.46552e-06 2.27581e-05 0.706256 -0.283123 5.93437e-07 0 1.29119e-06 0 2.5451e-06 0 5.52221e-06 0 9.19593e-06 0
581.015 2.7505e-05 8.94564e-06 1.85594e-05 0.674764 -0.289279 5.83315e-07 0 1.22304e-06 0 2.33553e-06 0 4.89327e-06 0 7.97157e-06 0
610.838 2.35956e-05 8.47405e-06 1.51216e-05 0.640864 -0.294867 5.66795e-07 0 1.14747e-06 0 2.12657e-06 0 4.31092e-06 0 6.87929e-06 0
642.193 2.03609e-05 8.04518e-06 1.23157e-05 0.60487 -0.299922 5.44771e-07 0 1.06691e-06 0 1.92215e-06 0 3.77735e-06 0 5.91191e-06 0
675.157 1.76771e-05 7.653e-06 1.00241e-05 0.567067 -0.304491 5.18153e-07 0 9.83463e-07 0 1.72516e-06 0 3.29255e-06 0 5.05999e-06 0
709.813 1.54566e-05 7.30097e-06 8.15564e-06 0.527647 -0.308532 4.88484e-07 0 9.00097e-07 0 1.53971e-06 0 2.85888e-06 0 4.3189e-06 0
746.247 1.36362e-05 6.99716e-06 6.63904e-06 0.486869 -0.311941 4.57519e-07 0 8.19801e-07 0 1.36953e-06 0 2.47797e-06 0 3.68373e-06 0
784.553 1.21189e-05 6.71432e-06 5.40453e-06 0.445961 -0.314953 4.24571e-07 0 7.40965e-07 0 1.21052e-06 0 2.13769e-06 0 3.13028e-06 0
