# 0.00011885 0 141 : grain size, compostion index, size index
# Heating and cooling timescale: 0.000161373 3.16378e+07
# Ratio of heating to cooling to determine stochastic cutoff: 100
# Equilibrium emission is recorded even for those grains in the stochastic regime.
# Emission spectrum was computed for: 
# Type: IRSF
# Scales: 0.25 0.5 1 1.5 2 2.5 3 3.5 4 4.5 5 5.5 6 6.5 7 7.5 8 8.5 9 9.5 10
# StochasticallyHeated: 0 0 0 0 0 0 0 0 0 0 0 0 0 0 0 0 0 0 0 0 0
# Temperature: -1
# Wavelength  CExt  CAbs  CSca  Albedo G EqEm1 StEm1 EqEm2 StEm2 EqEm3 StEm3 EqEm4 StEm4 EqEm5 StEm5 EqEm6 StEm6 EqEm7 StEm7 EqEm8 StEm8 EqEm9 StEm9 EqEm10 StEm10 EqEm11 StEm11 EqEm12 StEm12 EqEm13 StEm13 EqEm14 StEm14 EqEm15 StEm15 EqEm16 StEm16 EqEm17 StEm17 EqEm18 StEm18 EqEm19 StEm19 EqEm20 StEm20 EqEm21 StEm21
0.05 2.35785e-08 8.76024e-09 1.48183e-08 0.628465 0.00576547 0 0 0 0 0 0 0 0 0 0 0 0 0 0 0 0 0 0 0 0 0 0 0 0 0 0 0 0 0 0 0 0 0 0 0 0 0 0 0 0 0 0
0.0525665 2.60612e-08 9.68266e-09 1.63785e-08 0.628465 0.00637255 0 0 0 0 0 0 0 0 0 0 0 0 0 0 0 0 0 0 0 0 0 0 0 0 0 0 0 0 0 0 0 0 0 0 0 0 0 0 0 0 0 0
0.0552647 2.88053e-08 1.07022e-08 1.81031e-08 0.628465 0.00704355 0 0 0 0 0 0 0 0 0 0 0 0 0 0 0 0 0 0 0 0 0 0 0 0 0 0 0 0 0 0 0 0 0 0 0 0 0 0 0 0 0 0
0.0581015 3.18384e-08 1.18291e-08 2.00093e-08 0.628465 0.0077852 0 0 0 0 0 0 0 0 0 0 0 0 0 0 0 0 0 0 0 0 0 0 0 0 0 0 0 0 0 0 0 0 0 0 0 0 0 0 0 0 0 0
0.0610839 3.51908e-08 1.30746e-08 2.21162e-08 0.628465 0.00860494 0 0 0 0 0 0 0 0 0 0 0 0 0 0 0 0 0 0 0 0 0 0 0 0 0 0 0 0 0 0 0 0 0 0 0 0 0 0 0 0 0 0
0.0642193 3.88962e-08 1.44513e-08 2.44449e-08 0.628465 0.009511 0 0 0 0 0 0 0 0 0 0 0 0 0 0 0 0 0 0 0 0 0 0 0 0 0 0 0 0 0 0 0 0 0 0 0 0 0 0 0 0 0 0
0.0675157 4.29918e-08 1.5973e-08 2.70188e-08 0.628465 0.0105125 0 0 0 0 0 0 0 0 0 0 0 0 0 0 0 0 0 0 0 0 0 0 0 0 0 0 0 0 0 0 0 0 0 0 0 0 0 0 0 0 0 0
0.0709813 4.75186e-08 1.76548e-08 2.98638e-08 0.628465 0.0116194 0 0 0 0 0 0 0 0 0 0 0 0 0 0 0 0 0 0 0 0 0 0 0 0 0 0 0 0 0 0 0 0 0 0 0 0 0 0 0 0 0 0
0.0746248 5.25221e-08 1.95138e-08 3.30083e-08 0.628465 0.0128428 0 0 0 0 0 0 0 0 0 0 0 0 0 0 0 0 0 0 0 0 0 0 0 0 0 0 0 0 0 0 0 0 0 0 0 0 0 0 0 0 0 0
0.0784553 5.80524e-08 2.15685e-08 3.64839e-08 0.628465 0.0141951 0 0 0 0 0 0 0 0 0 0 0 0 0 0 0 0 0 0 0 0 0 0 0 0 0 0 0 0 0 0 0 0 0 0 0 0 0 0 0 0 0 0
0.0824824 6.41651e-08 2.38396e-08 4.03255e-08 0.628465 0.0156898 0 0 0 0 0 0 0 0 0 0 0 0 0 0 0 0 0 0 0 0 0 0 0 0 0 0 0 0 0 0 0 0 0 0 0 0 0 0 0 0 0 0
0.0867162 7.09214e-08 2.63498e-08 4.45716e-08 0.628465 0.0173419 0 0 0 0 0 0 0 0 0 0 0 0 0 0 0 0 0 0 0 0 0 0 0 0 0 0 0 0 0 0 0 0 0 0 0 0 0 0 0 0 0 0
0.0911674 7.83891e-08 2.91243e-08 4.92648e-08 0.628465 0.0191679 0 0 0 0 0 0 0 0 0 0 0 0 0 0 0 0 0 0 0 0 0 0 0 0 0 0 0 0 0 0 0 0 0 0 0 0 0 0 0 0 0 0
0.095847 8.66431e-08 3.2191e-08 5.44521e-08 0.628465 0.0211862 0 0 0 0 0 0 0 0 0 0 0 0 0 0 0 0 0 0 0 0 0 0 0 0 0 0 0 0 0 0 0 0 0 0 0 0 0 0 0 0 0 0
0.100767 9.43007e-08 3.53109e-08 5.89898e-08 0.62555 0.0235692 0 0 0 0 0 0 0 0 0 0 0 0 0 0 0 0 0 0 0 0 0 0 0 0 0 0 0 0 0 0 0 0 0 0 0 0 0 0 0 0 0 0
0.105939 9.42638e-08 3.6835e-08 5.74287e-08 0.609234 0.0256046 0 0 0 0 0 0 0 0 0 0 0 0 0 0 0 0 0 0 0 0 0 0 0 0 0 0 0 0 0 0 0 0 0 0 0 0 0 0 0 0 0 0
0.111377 9.43708e-08 3.7221e-08 5.71498e-08 0.605587 0.0289403 0 0 0 0 0 0 0 0 0 0 0 0 0 0 0 0 0 0 0 0 0 0 0 0 0 0 0 0 0 0 0 0 0 0 0 0 0 0 0 0 0 0
0.117094 9.43359e-08 3.85038e-08 5.58321e-08 0.591844 0.0274507 0 0 0 0 0 0 0 0 0 0 0 0 0 0 0 0 0 0 0 0 0 0 0 0 0 0 0 0 0 0 0 0 0 0 0 0 0 0 0 0 0 0
0.123105 9.43945e-08 4.00121e-08 5.43824e-08 0.576118 0.0236555 0 0 0 0 0 0 0 0 0 0 0 0 0 0 0 0 0 0 0 0 0 0 0 0 0 0 0 0 0 0 0 0 0 0 0 0 0 0 0 0 0 0
0.129424 9.4522e-08 4.11933e-08 5.33287e-08 0.564194 0.0199126 0 0 0 0 0 0 0 0 0 0 0 0 0 0 0 0 0 0 0 0 0 0 0 0 0 0 0 0 0 0 0 0 0 0 0 0 0 0 0 0 0 0
0.136067 9.46624e-08 4.21496e-08 5.25128e-08 0.554738 0.0168557 0 0 0 0 0 0 0 0 0 0 0 0 0 0 0 0 0 0 0 0 0 0 0 0 0 0 0 0 0 0 0 0 0 0 0 0 0 0 0 0 0 0
0.143051 9.47829e-08 4.29603e-08 5.18226e-08 0.546751 0.0143876 0 0 0 0 0 0 0 0 0 0 0 0 0 0 0 0 0 0 0 0 0 0 0 0 0 0 0 0 0 0 0 0 0 0 0 0 0 0 0 0 0 0
0.150394 9.48446e-08 4.36246e-08 5.12201e-08 0.540042 0.0122986 0 0 0 0 0 0 0 0 0 0 0 0 0 0 0 0 0 0 0 0 0 0 0 0 0 0 0 0 0 0 0 0 0 0 0 0 0 0 0 0 0 0
0.158114 9.47942e-08 4.40418e-08 5.07524e-08 0.535396 0.01055 0 0 0 0 0 0 0 0 0 0 0 0 0 0 0 0 0 0 0 0 0 0 0 0 0 0 0 0 0 0 0 0 0 0 0 0 0 0 0 0 0 0
0.16623 9.46276e-08 4.39937e-08 5.06339e-08 0.535086 0.00908216 0 0 0 0 0 0 0 0 0 0 0 0 0 0 0 0 0 0 0 0 0 0 0 0 0 0 0 0 0 0 0 0 0 0 0 0 0 0 0 0 0 0
0.174762 9.44925e-08 4.33117e-08 5.11808e-08 0.541639 0.00782097 0 0 0 0 0 0 0 0 0 0 0 0 0 0 0 0 0 0 0 0 0 0 0 0 0 0 0 0 0 0 0 0 0 0 0 0 0 0 0 0 0 0
0.183733 9.46188e-08 4.18519e-08 5.27669e-08 0.557679 0.00667218 0 0 0 0 0 0 0 0 0 0 0 0 0 0 0 0 0 0 0 0 0 0 0 0 0 0 0 0 0 0 0 0 0 0 0 0 0 0 0 0 0 0
0.193164 9.52209e-08 3.94989e-08 5.5722e-08 0.585186 0.00556038 0 0 0 0 0 0 0 0 0 0 0 0 0 0 0 0 0 0 0 0 0 0 0 0 0 0 0 0 0 0 0 0 0 0 0 0 0 0 0 0 0 0
0.203079 9.6227e-08 3.67396e-08 5.94873e-08 0.618198 0.00446034 0 0 0 0 0 0 0 0 0 0 0 0 0 0 0 0 0 0 0 0 0 0 0 0 0 0 0 0 0 0 0 0 0 0 0 0 0 0 0 0 0 0
0.213503 9.74572e-08 3.43735e-08 6.30837e-08 0.647296 0.00342932 0 0 0 0 0 0 0 0 0 0 0 0 0 0 0 0 0 0 0 0 0 0 0 0 0 0 0 0 0 0 0 0 0 0 0 0 0 0 0 0 0 0
0.224463 9.87821e-08 3.29252e-08 6.58569e-08 0.666689 0.00254317 0 0 0 0 0 0 0 0 0 0 0 0 0 0 0 0 0 0 0 0 0 0 0 0 0 0 0 0 0 0 0 0 0 0 0 0 0 0 0 0 0 0
0.235984 1.00005e-07 3.24008e-08 6.76043e-08 0.676009 0.00182186 0 0 0 0 0 0 0 0 0 0 0 0 0 0 0 0 0 0 0 0 0 0 0 0 0 0 0 0 0 0 0 0 0 0 0 0 0 0 0 0 0 0
0.248097 1.00854e-07 3.25043e-08 6.83497e-08 0.677709 0.00138916 0 0 0 0 0 0 0 0 0 0 0 0 0 0 0 0 0 0 0 0 0 0 0 0 0 0 0 0 0 0 0 0 0 0 0 0 0 0 0 0 0 0
0.260832 1.01065e-07 3.30389e-08 6.8026e-08 0.673092 0.00141961 0 0 0 0 0 0 0 0 0 0 0 0 0 0 0 0 0 0 0 0 0 0 0 0 0 0 0 0 0 0 0 0 0 0 0 0 0 0 0 0 0 0
0.274221 1.00693e-07 3.40071e-08 6.6686e-08 0.66227 0.00187131 0 0 0 0 0 0 0 0 0 0 0 0 0 0 0 0 0 0 0 0 0 0 0 0 0 0 0 0 0 0 0 0 0 0 0 0 0 0 0 0 0 0
0.288297 1.00177e-07 3.53725e-08 6.48049e-08 0.646901 0.00251556 0 0 0 0 0 0 0 0 0 0 0 0 0 0 0 0 0 0 0 0 0 0 0 0 0 0 0 0 0 0 0 0 0 0 0 0 0 0 0 0 0 0
0.303095 9.99129e-08 3.68514e-08 6.30614e-08 0.631164 0.0028362 0 0 0 0 0 0 0 0 0 0 0 0 0 0 0 0 0 0 0 0 0 0 0 0 0 0 0 0 0 0 0 0 0 0 0 0 0 0 0 0 0 0
0.318653 9.99264e-08 3.81636e-08 6.17628e-08 0.618083 0.00297223 0 0 0 0 0 0 0 0 0 0 0 0 0 0 0 0 0 0 0 0 0 0 0 0 0 0 0 0 0 0 0 0 0 0 0 0 0 0 0 0 0 0
0.335009 1.00126e-07 3.9204e-08 6.09217e-08 0.608452 0.00293231 0 0 0 0 0 0 0 0 0 0 0 0 0 0 0 0 0 0 0 0 0 0 0 0 0 0 0 0 0 0 0 0 0 0 0 0 0 0 0 0 0 0
0.352205 1.00428e-07 3.99798e-08 6.04477e-08 0.601904 0.00278811 0 0 0 0 0 0 0 0 0 0 0 0 0 0 0 0 0 0 0 0 0 0 0 0 0 0 0 0 0 0 0 0 0 0 0 0 0 0 0 0 0 0
0.370284 1.00791e-07 4.05359e-08 6.02549e-08 0.597822 0.00261033 0 0 0 0 0 0 0 0 0 0 0 0 0 0 0 0 0 0 0 0 0 0 0 0 0 0 0 0 0 0 0 0 0 0 0 0 0 0 0 0 0 0
0.389291 1.01184e-07 4.09272e-08 6.02569e-08 0.595517 0.00243645 0 0 0 0 0 0 0 0 0 0 0 0 0 0 0 0 0 0 0 0 0 0 0 0 0 0 0 0 0 0 0 0 0 0 0 0 0 0 0 0 0 0
0.409273 1.01594e-07 4.12167e-08 6.03771e-08 0.594299 0.00226652 0 0 0 0 0 0 0 0 0 0 0 0 0 0 0 0 0 0 0 0 0 0 0 0 0 0 0 0 0 0 0 0 0 0 0 0 0 0 0 0 0 0
0.430281 1.02006e-07 4.14563e-08 6.05501e-08 0.593591 0.00210471 0 0 0 0 0 0 0 0 0 0 0 0 0 0 0 0 0 0 0 0 0 0 0 0 0 0 0 0 0 0 0 0 0 0 0 0 0 0 0 0 0 0
0.452368 1.02421e-07 4.16853e-08 6.07356e-08 0.593 0.00193723 0 0 0 0 0 0 0 0 0 0 0 0 0 0 0 0 0 0 0 0 0 0 0 0 0 0 0 0 0 0 0 0 0 0 0 0 0 0 0 0 0 0
0.475588 1.02836e-07 4.19234e-08 6.09123e-08 0.592327 0.00177642 0 0 0 0 0 0 0 0 0 0 0 0 0 0 0 0 0 0 0 0 0 0 0 0 0 0 0 0 0 0 0 0 0 0 0 0 0 0 0 0 0 0
0.5 1.03257e-07 4.21806e-08 6.1076e-08 0.591497 0.00162159 0 0 0 0 0 0 0 0 0 0 0 0 0 0 0 0 0 0 0 0 0 0 0 0 0 0 0 0 0 0 0 0 0 0 0 0 0 0 0 0 0 0
0.525665 1.03686e-07 4.24556e-08 6.12308e-08 0.590539 0.0014751 0 0 0 0 0 0 0 0 0 0 0 0 0 0 0 0 0 0 0 0 0 0 0 0 0 0 0 0 0 0 0 0 0 0 0 0 0 0 0 0 0 0
0.552648 1.04135e-07 4.27445e-08 6.13909e-08 0.58953 0.00134175 0 0 0 0 0 0 0 0 0 0 0 0 0 0 0 0 0 0 0 0 0 0 0 0 0 0 0 0 0 0 0 0 0 0 0 0 0 0 0 0 0 0
0.581015 1.04601e-07 4.30393e-08 6.15617e-08 0.588538 0.00121775 0 0 0 0 0 0 0 0 0 0 0 0 0 0 0 0 0 0 0 0 0 0 0 0 0 0 0 0 0 0 0 0 0 0 0 0 0 0 0 0 0 0
0.610839 1.05089e-07 4.33327e-08 6.17565e-08 0.587658 0.00110516 0 0 0 0 0 0 0 0 0 0 0 0 0 0 0 0 0 0 0 0 0 0 0 0 0 0 0 0 0 0 0 0 0 0 0 0 0 0 0 0 0 0
0.642193 1.05597e-07 4.36192e-08 6.19779e-08 0.586928 0.00100302 0 0 0 0 0 0 0 0 0 0 0 0 0 0 0 0 0 0 0 0 0 0 0 0 0 0 0 0 0 0 0 0 0 0 0 0 0 0 0 0 0 0
0.675157 1.06129e-07 4.38949e-08 6.2234e-08 0.5864 0.000910957 0 0 0 0 0 0 0 0 0 0 0 0 0 0 0 0 0 0 0 0 0 0 0 0 0 0 0 0 0 0 0 0 0 0 0 0 0 0 0 0 0 0
0.709813 1.06678e-07 4.41553e-08 6.2523e-08 0.586089 0.00082817 0 0 0 0 0 0 0 0 0 0 0 0 0 0 0 0 0 0 0 0 0 0 0 0 0 0 0 0 0 0 0 0 0 0 0 0 0 0 0 0 0 0
0.746248 1.07245e-07 4.43982e-08 6.28463e-08 0.586009 0.000754183 0 0 0 0 0 0 0 0 0 0 0 0 0 0 0 0 0 0 0 0 0 0 0 0 0 0 0 0 0 0 0 0 0 0 0 0 0 0 0 0 0 0
0.784553 1.07831e-07 4.46245e-08 6.32061e-08 0.586161 0.000686995 0 0 0 0 0 0 0 0 0 0 0 0 0 0 0 0 0 0 0 0 0 0 0 0 0 0 0 0 0 0 0 0 0 0 0 0 0 0 0 0 0 0
0.824824 1.08425e-07 4.4831e-08 6.35945e-08 0.586527 0.000626788 0 0 0 0 0 0 0 0 0 0 0 0 0 0 0 0 0 0 0 0 0 0 0 0 0 0 0 0 0 0 0 0 0 0 0 0 0 0 0 0 0 0
0.867162 1.09034e-07 4.50197e-08 6.40146e-08 0.587105 0.000572518 0 0 0 0 0 0 0 0 0 0 0 0 0 0 0 0 0 0 0 0 0 0 0 0 0 0 0 0 0 0 0 0 0 0 0 0 0 0 0 0 0 0
0.911674 1.09651e-07 4.51943e-08 6.44571e-08 0.587837 0.000523427 0 0 0 0 0 0 0 0 0 0 0 0 0 0 0 0 0 0 0 0 0 0 0 0 0 0 0 0 0 0 0 0 0 0 0 0 0 0 0 0 0 0
0.95847 1.1027e-07 4.53504e-08 6.492e-08 0.588734 0.00047944 0 0 0 0 0 0 0 0 0 0 0 0 0 0 0 0 0 0 0 0 0 0 0 0 0 0 0 0 0 0 0 0 0 0 0 0 0 0 0 0 0 0
1.00767 1.10895e-07 4.54977e-08 6.53975e-08 0.589723 0.0004395 0 0 0 0 0 0 0 0 0 0 0 0 0 0 0 0 0 0 0 0 0 0 0 0 0 0 0 0 0 0 0 0 0 0 0 0 0 0 0 0 0 0
1.05939 1.11517e-07 4.56307e-08 6.58861e-08 0.590818 0.000403275 0 0 0 0 0 0 0 0 0 0 0 0 0 0 0 0 0 0 0 0 0 0 0 0 0 0 0 0 0 0 0 0 0 0 0 0 0 0 0 0 0 0
1.11377 1.12135e-07 4.57487e-08 6.63865e-08 0.592022 0.000370298 0 0 0 0 0 0 0 0 0 0 0 0 0 0 0 0 0 0 0 0 0 0 0 0 0 0 0 0 0 0 0 0 0 0 0 0 0 0 0 0 0 0
1.17094 1.12757e-07 4.5872e-08 6.6885e-08 0.593178 0.000339515 0 0 0 0 0 0 0 0 0 0 0 0 0 0 0 0 0 0 0 0 0 0 0 0 0 0 0 0 0 0 0 0 0 0 0 0 0 0 0 0 0 0
1.23105 1.13353e-07 4.59719e-08 6.73815e-08 0.594438 0.000311294 0 0 0 0 0 0 0 0 0 0 0 0 0 0 0 0 0 0 0 0 0 0 0 0 0 0 0 0 0 0 0 0 0 0 0 0 0 0 0 0 0 0
1.29424 1.13963e-07 4.6076e-08 6.78868e-08 0.595692 0.000285362 0 0 0 0 0 0 0 0 0 0 0 0 0 0 0 0 0 0 0 0 0 0 0 0 0 0 0 0 0 0 0 0 0 0 0 0 0 0 0 0 0 0
1.36067 1.1457e-07 4.61941e-08 6.83758e-08 0.596804 0.000261742 0 0 0 0 0 0 0 0 0 0 0 0 0 0 0 0 0 0 0 0 0 0 0 0 0 0 0 0 0 0 0 0 0 0 0 0 0 0 0 0 0 0
1.43051 1.15135e-07 4.62882e-08 6.88465e-08 0.597965 0.000240209 0 0 0 0 0 0 0 0 0 0 0 0 0 0 0 0 0 0 0 0 0 0 0 0 0 0 0 0 0 0 0 0 0 0 0 0 0 0 0 0 0 0
1.50394 1.15707e-07 4.63759e-08 6.93308e-08 0.599195 0.000220279 0 0 0 0 0 0 0 0 0 0 0 0 0 0 0 0 0 0 0 0 0 0 0 0 0 0 0 0 0 0 0 0 0 0 0 0 0 0 0 0 0 0
1.58114 1.1632e-07 4.65137e-08 6.98059e-08 0.600121 0.000201732 0 0 0 0 0 0 0 0 0 0 0 0 0 0 0 0 0 0 0 0 0 0 0 0 0 0 0 0 0 0 0 0 0 0 0 0 0 0 0 0 0 0
1.6623 1.16874e-07 4.66494e-08 7.02244e-08 0.600857 0.000184534 0 0 0 0 0 0 0 0 0 0 0 0 0 0 0 0 0 0 0 0 0 0 0 0 0 0 0 0 0 0 0 0 0 0 0 0 0 0 0 0 0 0
1.74763 1.17368e-07 4.67326e-08 7.06356e-08 0.601829 0.000169005 0 0 0 0 0 0 0 0 0 0 0 0 0 0 0 0 0 0 0 0 0 0 0 0 0 0 0 0 0 0 0 0 0 0 0 0 0 0 0 0 0 0
1.83733 1.17925e-07 4.6839e-08 7.10859e-08 0.602807 0.000154804 0 0 0 0 0 0 0 0 0 0 0 0 0 0 0 0 0 0 0 0 0 0 0 0 0 0 0 0 0 0 0 0 0 0 0 0 0 0 0 0 0 0
1.93164 1.18569e-07 4.70428e-08 7.1526e-08 0.603245 0.000141793 0 0 0 0 0 0 0 0 0 0 0 0 0 0 0 0 0 0 0 0 0 0 0 0 0 0 0 0 0 0 0 0 0 0 0 0 0 0 0 0 0 0
2.03079 1.19143e-07 4.72697e-08 7.18729e-08 0.603251 0.000129725 0 0 0 0 0 0 0 0 0 0 0 0 0 0 0 0 0 0 0 0 0 0 0 0 0 0 0 0 0 0 0 0 0 0 0 0 0 0 0 0 0 0
2.13503 1.19564e-07 4.74158e-08 7.21483e-08 0.603428 0.000118657 0 0 0 0 0 0 0 0 0 0 0 0 0 0 0 0 0 0 0 0 0 0 0 0 0 0 0 0 0 0 0 0 0 0 0 0 0 0 0 0 0 0
2.24463 1.19981e-07 4.75092e-08 7.24715e-08 0.604026 0.000108569 0 0 0 0 0 0 0 0 0 0 0 0 0 0 0 0 0 0 0 0 0 0 0 0 0 0 0 0 0 0 0 0 0 0 0 0 0 0 0 0 0 0
2.35984 1.20579e-07 4.7688e-08 7.2891e-08 0.604508 9.92926e-05 0 0 0 0 0 0 0 0 0 0 0 0 0 0 0 0 0 0 0 0 0 0 0 0 0 0 0 0 0 0 0 0 0 0 0 0 0 0 0 0 0 0
2.48097 1.21341e-07 4.80314e-08 7.33097e-08 0.604162 9.07218e-05 0 0 0 0 0 0 0 0 0 0 0 0 0 0 0 0 0 0 0 0 0 0 0 0 0 0 0 0 0 0 0 0 0 0 0 0 0 0 0 0 0 0
2.60832 1.2204e-07 4.84544e-08 7.35852e-08 0.602962 8.27967e-05 0 0 0 0 0 0 0 0 0 0 0 0 0 0 0 0 0 0 0 0 0 0 0 0 0 0 0 0 0 0 0 0 0 0 0 0 0 0 0 0 0 0
2.74221 1.22464e-07 4.87975e-08 7.36662e-08 0.601535 7.55862e-05 0 0 0 0 0 0 0 0 0 0 0 0 0 0 0 0 0 0 0 0 0 0 0 0 0 0 0 0 0 0 0 0 0 0 0 0 0 0 0 0 0 0
2.88297 1.22654e-07 4.89874e-08 7.36668e-08 0.600605 6.90729e-05 0 0 0 0 0 0 0 0 0 0 0 0 0 0 0 0 0 0 0 0 0 0 0 0 0 0 0 0 0 0 0 0 0 0 0 0 0 0 0 0 0 0
3.03095 1.22874e-07 4.90988e-08 7.37748e-08 0.600412 6.31538e-05 0 0 0 0 0 0 0 0 0 0 0 0 0 0 0 0 0 0 0 0 0 0 0 0 0 0 0 0 0 0 0 0 0 0 0 0 0 0 0 0 0 0
3.18653 1.23401e-07 4.93074e-08 7.40932e-08 0.600428 5.76567e-05 0 0 0 0 0 0 0 0 0 0 0 0 0 0 0 0 0 0 0 0 0 0 0 0 0 0 0 0 0 0 0 0 0 0 0 0 0 0 0 0 0 0
3.35009 1.24313e-07 4.97463e-08 7.45668e-08 0.599831 5.2603e-05 0 0 0 0 0 0 0 0 0 0 0 0 0 0 0 0 0 0 0 0 0 0 0 0 0 0 0 0 0 0 0 0 0 0 0 0 0 0 0 0 0 0
3.52205 1.2544e-07 5.04303e-08 7.50095e-08 0.597972 4.80102e-05 0 0 0 0 0 0 0 0 0 0 0 0 0 0 0 0 0 0 0 0 0 0 0 0 0 0 0 0 0 0 0 0 0 0 0 0 0 0 0 0 0 0
3.70284 1.26452e-07 5.12439e-08 7.52077e-08 0.594754 4.38066e-05 0 0 0 0 0 0 0 0 0 0 0 0 0 0 0 0 0 0 0 0 0 0 0 0 0 0 0 0 0 0 0 0 0 0 0 0 0 0 0 0 0 0
3.89291 1.27042e-07 5.20036e-08 7.50388e-08 0.590659 3.9926e-05 0 0 0 0 0 0 0 0 0 0 0 0 0 0 0 0 0 0 0 0 0 0 0 0 0 0 0 0 0 0 0 0 0 0 0 0 0 0 0 0 0 0
4.09273 1.27041e-07 5.25433e-08 7.44978e-08 0.586407 3.62643e-05 0 0 0 0 0 0 0 0 0 0 0 0 0 0 0 0 0 0 0 0 0 0 0 0 0 0 0 0 0 0 0 0 0 0 0 0 0 0 0 0 0 0
4.30281 1.26568e-07 5.27986e-08 7.37692e-08 0.582843 3.29535e-05 0 0 0 0 0 0 0 0 0 0 0 0 0 0 0 0 0 0 0 0 0 0 0 0 0 0 0 0 0 0 0 0 0 0 0 0 0 0 0 0 0 0
4.52368 1.25958e-07 5.28273e-08 7.31312e-08 0.580598 2.99416e-05 0 0 0 0 0 0 0 0 0 0 0 0 0 0 0 0 0 0 0 0 0 0 0 0 0 0 0 0 0 0 0 0 0 0 0 0 0 0 0 0 0 0
4.75588 1.25667e-07 5.28038e-08 7.28634e-08 0.579812 2.71796e-05 0 0 0 0 0 0 0 0 0 0 0 0 0 0 0 0 0 0 0 0 0 0 0 0 0 0 0 0 0 0 0 0 0 0 0 0 0 0 0 0 0 0
5 1.26045e-07 5.29218e-08 7.31229e-08 0.580135 2.45398e-05 0 0 0 0 0 0 0 0 0 0 0 0 0 0 0 0 0 0 0 0 0 0 0 0 0 0 0 0 0 0 0 0 0 0 0 0 0 0 0 0 0 0
5.25665 1.27184e-07 5.3327e-08 7.38575e-08 0.580712 2.21678e-05 0 0 0 0 0 0 0 0 0 0 0 0 0 0 0 0 0 0 0 0 0 0 0 0 0 0 0 0 0 0 0 0 0 0 0 0 0 0 0 0 0 0
5.52648 1.28873e-07 5.40795e-08 7.47935e-08 0.580366 2.00489e-05 0 0 0 0 0 0 0 0 0 0 0 0 0 0 0 0 0 0 0 0 0 0 0 0 0 0 0 0 0 0 0 0 0 0 0 0 0 0 0 0 0 0
5.81015 1.3066e-07 5.5152e-08 7.55084e-08 0.577898 1.8115e-05 0 0 0 0 0 0 0 0 0 0 0 0 0 0 0 0 0 0 0 0 0 0 0 0 0 0 0 0 0 0 0 0 0 0 0 0 0 0 0 0 0 0
6.10839 1.32001e-07 5.64286e-08 7.55722e-08 0.572513 1.63023e-05 0 0 0 0 0 0 0 0 0 0 0 0 0 0 0 0 0 0 0 0 0 0 0 0 0 0 0 0 0 0 0 0 0 0 0 0 0 0 0 0 0 0
6.42193 1.32348e-07 5.80564e-08 7.42918e-08 0.561336 1.48144e-05 0 0 0 0 0 0 0 0 0 0 0 0 0 0 0 0 0 0 0 0 0 0 0 0 0 0 0 0 0 0 0 0 0 0 0 0 0 0 0 0 1.4013e-45 0
6.75157 1.31769e-07 5.94415e-08 7.23277e-08 0.548897 1.32279e-05 0 0 0 0 0 0 0 0 0 0 0 0 0 0 0 0 0 0 0 0 0 0 0 0 0 0 0 0 0 0 1.4013e-45 0 4.2039e-45 0 1.4013e-44 0 4.06377e-44 0 1.10703e-43 0 2.88667e-43 0
7.09813 1.30299e-07 6.09556e-08 6.93436e-08 0.532187 1.18448e-05 0 0 0 0 0 0 0 0 0 0 0 0 0 0 0 0 0 0 0 0 0 0 0 0 2.8026e-45 0 1.54143e-44 0 6.44597e-44 0 2.36819e-43 0 7.62306e-43 0 2.32195e-42 0 6.51043e-42 0 1.68646e-41 0 4.17026e-41 0
7.46248 1.28494e-07 6.26246e-08 6.58698e-08 0.512628 1.05694e-05 0 0 0 0 0 0 0 0 0 0 0 0 0 0 0 0 0 0 2.8026e-45 0 2.10195e-44 0 1.24716e-43 0 6.16571e-43 0 2.65126e-42 0 9.98285e-42 0 3.42071e-41 0 1.04115e-40 0 3.0044e-40 0 8.00898e-40 0 1.98025e-39 0 4.68511e-39 0
7.84553 1.2691e-07 6.45004e-08 6.24094e-08 0.491762 9.34187e-06 0 0 0 0 0 0 0 0 0 0 0 0 0 0 4.2039e-45 0 5.88545e-44 0 5.00264e-43 0 3.3435e-42 0 1.83794e-41 0 8.43652e-41 0 3.37961e-40 0 1.19265e-39 0 3.84797e-39 0 1.10925e-38 0 3.03951e-38 0 7.72383e-38 0 1.82718e-37 0 4.14496e-37 0
8.24824 1.25772e-07 6.63968e-08 5.93753e-08 0.472086 8.19911e-06 0 0 0 0 0 0 0 0 0 0 1.4013e-45 0 4.76441e-44 0 8.15556e-43 0 8.83238e-42 0 6.83441e-41 0 4.16596e-40 0 2.10714e-39 0 8.97891e-39 0 3.36127e-38 0 1.11535e-37 0 3.39854e-37 0 9.30342e-37 0 2.42684e-36 0 5.89244e-36 0 1.33655e-35 0 2.91311e-35 0
8.67162 1.24662e-07 6.77882e-08 5.68741e-08 0.456225 7.20916e-06 0 0 0 0 0 0 0 0 4.2039e-45 0 2.74654e-43 0 7.20828e-42 0 1.06863e-40 0 1.02974e-39 0 7.21042e-39 0 4.02389e-38 0 1.88041e-37 0 7.46529e-37 0 2.62021e-36 0 8.19995e-36 0 2.36629e-35 0 6.16687e-35 0 1.53509e-34 0 3.56925e-34 0 7.7786e-34 0 1.63212e-33 0
9.11674 1.2244e-07 6.79225e-08 5.45177e-08 0.44526 6.32492e-06 0 0 0 0 0 0 4.2039e-45 0 7.46892e-43 0 3.68527e-41 0 8.23668e-40 0 1.0705e-38 0 9.23529e-38 0 5.88055e-37 0 3.0175e-36 0 1.30786e-35 0 4.85422e-35 0 1.60246e-34 0 4.74318e-34 0 1.29973e-33 0 3.23252e-33 0 7.69612e-33 0 1.71721e-32 0 3.60272e-32 0 7.29065e-32 0
9.5847 1.17906e-07 6.63747e-08 5.15315e-08 0.437055 5.52644e-06 0 0 0 0 0 0 5.99756e-43 0 9.18733e-41 0 3.74692e-39 0 7.19581e-38 0 8.25152e-37 0 6.40772e-36 0 3.7275e-35 0 1.76592e-34 0 7.12505e-34 0 2.4805e-33 0 7.7247e-33 0 2.16848e-32 0 5.65673e-32 0 1.34565e-31 0 3.07093e-31 0 6.58878e-31 0 1.33321e-30 0 2.60668e-30 0
10.0767 1.10846e-07 6.35829e-08 4.72632e-08 0.426386 4.78203e-06 0 0 0 0 5.88545e-44 0 7.21879e-41 0 8.64125e-39 0 2.94056e-37 0 4.88849e-36 0 4.97625e-35 0 3.49631e-34 0 1.86633e-33 0 8.19516e-33 0 3.08885e-32 0 1.0118e-31 0 2.98094e-31 0 7.95682e-31 0 1.9807e-30 0 4.51659e-30 0 9.9004e-30 0 2.04645e-29 0 4.00083e-29 0 7.57046e-29 0
10.5939 1.02627e-07 6.08576e-08 4.17697e-08 0.407004 4.06995e-06 0 0 0 0 7.78001e-42 0 6.7668e-39 0 6.41255e-37 0 1.83694e-35 0 2.66217e-34 0 2.4197e-33 0 1.54572e-32 0 7.60318e-32 0 3.10593e-31 0 1.09723e-30 0 3.39186e-30 0 9.47944e-30 0 2.41186e-29 0 5.74239e-29 0 1.25778e-28 0 2.65342e-28 0 5.29369e-28 0 1.0016e-27 0 1.83714e-27 0
11.1377 9.53677e-08 5.96387e-08 3.57289e-08 0.374644 3.40803e-06 0 0 4.2039e-45 0 8.20668e-40 0 5.12892e-37 0 3.89194e-35 0 9.46432e-34 0 1.20376e-32 0 9.82351e-32 0 5.7321e-31 0 2.60855e-30 0 9.94843e-30 0 3.30444e-29 0 9.66738e-29 0 2.56958e-28 0 6.24639e-28 0 1.42553e-27 0 3.00514e-27 0 6.11275e-27 0 1.17908e-26 0 2.1625e-26 0 3.85073e-26 0
11.7094 8.73921e-08 5.76985e-08 2.96936e-08 0.339775 2.82232e-06 0 0 6.97847e-43 0 6.71785e-38 0 3.06608e-35 0 1.88333e-33 0 3.91908e-32 0 4.40262e-31 0 3.24283e-30 0 1.73608e-29 0 7.3371e-29 0 2.62117e-28 0 8.2108e-28 0 2.27947e-27 0 5.77642e-27 0 1.34459e-26 0 2.94742e-26 0 5.99124e-26 0 1.17715e-25 0 2.19892e-25 0 3.91527e-25 0 6.7782e-25 0
12.3105 8.43543e-08 5.98635e-08 2.44908e-08 0.290332 2.20615e-06 0 0 8.5276e-41 0 4.69078e-36 0 1.58766e-33 0 7.97605e-32 0 1.43114e-30 0 1.42862e-29 0 9.54531e-29 0 4.70826e-28 0 1.85461e-27 0 6.22625e-27 0 1.84461e-26 0 4.87194e-26 0 1.1798e-25 0 2.63529e-25 0 5.55952e-25 0 1.09162e-24 0 2.07523e-24 0 3.76004e-24 0 6.50897e-24 0 1.09705e-23 0
12.9424 7.98729e-08 6.00668e-08 1.98061e-08 0.247971 1.60871e-06 7.14662e-44 0 7.89238e-39 0 2.54787e-34 0 6.48917e-32 0 2.69257e-30 0 4.19606e-29 0 3.74361e-28 0 2.27976e-27 0 1.04021e-26 0 3.83216e-26 0 1.21265e-25 0 3.40711e-25 0 8.58202e-25 0 1.99042e-24 0 4.27485e-24 0 8.69564e-24 0 1.65207e-23 0 3.04369e-23 0 5.35704e-23 0 9.02836e-23 0 1.48339e-22 0
