# 2.57845e-05 1 63 : grain size, compostion index, size index
# Heating and cooling timescale: 0.00415853 1.02607e+06
# Ratio of heating to cooling to determine stochastic cutoff: 100
# Equilibrium emission is recorded even for those grains in the stochastic regime.
# Emission spectrum was computed for: 
# Type: IRSF
# Scales: 0.25 0.5 1 1.5 2 2.5 3 3.5 4 4.5 5 5.5 6 6.5 7 7.5 8 8.5 9 9.5 10
# StochasticallyHeated: 0 0 0 0 0 0 0 0 0 0 0 0 0 0 0 0 0 0 0 0 0
# Temperature: -1
# Wavelength  CExt  CAbs  CSca  Albedo G EqEm1 StEm1 EqEm2 StEm2 EqEm3 StEm3 EqEm4 StEm4 EqEm5 StEm5 EqEm6 StEm6 EqEm7 StEm7 EqEm8 StEm8 EqEm9 StEm9 EqEm10 StEm10 EqEm11 StEm11 EqEm12 StEm12 EqEm13 StEm13 EqEm14 StEm14 EqEm15 StEm15 EqEm16 StEm16 EqEm17 StEm17 EqEm18 StEm18 EqEm19 StEm19 EqEm20 StEm20 EqEm21 StEm21
0.05 4.42156e-09 1.56058e-09 2.86098e-09 0.647053 0.857214 0 0 0 0 0 0 0 0 0 0 0 0 0 0 0 0 0 0 0 0 0 0 0 0 0 0 0 0 0 0 0 0 0 0 0 0 0 0 0 0 0 0
0.0525665 4.44927e-09 1.55441e-09 2.89487e-09 0.650638 0.845328 0 0 0 0 0 0 0 0 0 0 0 0 0 0 0 0 0 0 0 0 0 0 0 0 0 0 0 0 0 0 0 0 0 0 0 0 0 0 0 0 0 0
0.0552647 4.47844e-09 1.55582e-09 2.92262e-09 0.652598 0.835443 0 0 0 0 0 0 0 0 0 0 0 0 0 0 0 0 0 0 0 0 0 0 0 0 0 0 0 0 0 0 0 0 0 0 0 0 0 0 0 0 0 0
0.0581015 4.50506e-09 1.56655e-09 2.93851e-09 0.652268 0.829297 0 0 0 0 0 0 0 0 0 0 0 0 0 0 0 0 0 0 0 0 0 0 0 0 0 0 0 0 0 0 0 0 0 0 0 0 0 0 0 0 0 0
0.0610839 4.53169e-09 1.56069e-09 2.971e-09 0.655605 0.820995 0 0 0 0 0 0 0 0 0 0 0 0 0 0 0 0 0 0 0 0 0 0 0 0 0 0 0 0 0 0 0 0 0 0 0 0 0 0 0 0 0 0
0.0642193 4.57154e-09 1.52654e-09 3.045e-09 0.666077 0.80408 0 0 0 0 0 0 0 0 0 0 0 0 0 0 0 0 0 0 0 0 0 0 0 0 0 0 0 0 0 0 0 0 0 0 0 0 0 0 0 0 0 0
0.0675157 4.62906e-09 1.50602e-09 3.12304e-09 0.674659 0.785849 0 0 0 0 0 0 0 0 0 0 0 0 0 0 0 0 0 0 0 0 0 0 0 0 0 0 0 0 0 0 0 0 0 0 0 0 0 0 0 0 0 0
0.0709813 4.69156e-09 1.54411e-09 3.14744e-09 0.670874 0.779476 0 0 0 0 0 0 0 0 0 0 0 0 0 0 0 0 0 0 0 0 0 0 0 0 0 0 0 0 0 0 0 0 0 0 0 0 0 0 0 0 0 0
0.0746248 4.74683e-09 1.60855e-09 3.13828e-09 0.661132 0.780801 0 0 0 0 0 0 0 0 0 0 0 0 0 0 0 0 0 0 0 0 0 0 0 0 0 0 0 0 0 0 0 0 0 0 0 0 0 0 0 0 0 0
0.0784553 4.79107e-09 1.676e-09 3.11507e-09 0.650182 0.785214 0 0 0 0 0 0 0 0 0 0 0 0 0 0 0 0 0 0 0 0 0 0 0 0 0 0 0 0 0 0 0 0 0 0 0 0 0 0 0 0 0 0
0.0824824 4.82327e-09 1.7412e-09 3.08207e-09 0.639 0.790087 0 0 0 0 0 0 0 0 0 0 0 0 0 0 0 0 0 0 0 0 0 0 0 0 0 0 0 0 0 0 0 0 0 0 0 0 0 0 0 0 0 0
0.0867162 4.85285e-09 1.77414e-09 3.07871e-09 0.634413 0.788411 0 0 0 0 0 0 0 0 0 0 0 0 0 0 0 0 0 0 0 0 0 0 0 0 0 0 0 0 0 0 0 0 0 0 0 0 0 0 0 0 0 0
0.0911674 4.88937e-09 1.795e-09 3.09437e-09 0.632877 0.78321 0 0 0 0 0 0 0 0 0 0 0 0 0 0 0 0 0 0 0 0 0 0 0 0 0 0 0 0 0 0 0 0 0 0 0 0 0 0 0 0 0 0
0.095847 4.91811e-09 1.82702e-09 3.09109e-09 0.628512 0.780811 0 0 0 0 0 0 0 0 0 0 0 0 0 0 0 0 0 0 0 0 0 0 0 0 0 0 0 0 0 0 0 0 0 0 0 0 0 0 0 0 0 0
0.100767 4.91367e-09 1.89113e-09 3.02254e-09 0.615129 0.789483 0 0 0 0 0 0 0 0 0 0 0 0 0 0 0 0 0 0 0 0 0 0 0 0 0 0 0 0 0 0 0 0 0 0 0 0 0 0 0 0 0 0
0.105939 4.90206e-09 1.9483e-09 2.95376e-09 0.602555 0.801254 0 0 0 0 0 0 0 0 0 0 0 0 0 0 0 0 0 0 0 0 0 0 0 0 0 0 0 0 0 0 0 0 0 0 0 0 0 0 0 0 0 0
0.111377 4.86146e-09 2.03955e-09 2.82191e-09 0.580465 0.824314 0 0 0 0 0 0 0 0 0 0 0 0 0 0 0 0 0 0 0 0 0 0 0 0 0 0 0 0 0 0 0 0 0 0 0 0 0 0 0 0 0 0
0.117094 4.85943e-09 2.1549e-09 2.70453e-09 0.556553 0.852921 0 0 0 0 0 0 0 0 0 0 0 0 0 0 0 0 0 0 0 0 0 0 0 0 0 0 0 0 0 0 0 0 0 0 0 0 0 0 0 0 0 0
0.123105 4.87301e-09 2.24184e-09 2.63116e-09 0.539947 0.873079 0 0 0 0 0 0 0 0 0 0 0 0 0 0 0 0 0 0 0 0 0 0 0 0 0 0 0 0 0 0 0 0 0 0 0 0 0 0 0 0 0 0
0.129424 4.89295e-09 2.32378e-09 2.56918e-09 0.525077 0.890903 0 0 0 0 0 0 0 0 0 0 0 0 0 0 0 0 0 0 0 0 0 0 0 0 0 0 0 0 0 0 0 0 0 0 0 0 0 0 0 0 0 0
0.136067 4.90705e-09 2.39425e-09 2.51279e-09 0.512079 0.905505 0 0 0 0 0 0 0 0 0 0 0 0 0 0 0 0 0 0 0 0 0 0 0 0 0 0 0 0 0 0 0 0 0 0 0 0 0 0 0 0 0 0
0.143051 4.89147e-09 2.43818e-09 2.4533e-09 0.501546 0.915414 0 0 0 0 0 0 0 0 0 0 0 0 0 0 0 0 0 0 0 0 0 0 0 0 0 0 0 0 0 0 0 0 0 0 0 0 0 0 0 0 0 0
0.150394 4.81573e-09 2.43099e-09 2.38474e-09 0.495198 0.921744 0 0 0 0 0 0 0 0 0 0 0 0 0 0 0 0 0 0 0 0 0 0 0 0 0 0 0 0 0 0 0 0 0 0 0 0 0 0 0 0 0 0
0.158114 4.70995e-09 2.39084e-09 2.31912e-09 0.492387 0.921088 0 0 0 0 0 0 0 0 0 0 0 0 0 0 0 0 0 0 0 0 0 0 0 0 0 0 0 0 0 0 0 0 0 0 0 0 0 0 0 0 0 0
0.16623 4.68063e-09 2.32585e-09 2.35478e-09 0.50309 0.90845 0 0 0 0 0 0 0 0 0 0 0 0 0 0 0 0 0 0 0 0 0 0 0 0 0 0 0 0 0 0 0 0 0 0 0 0 0 0 0 0 0 0
0.174762 4.77119e-09 2.25107e-09 2.52011e-09 0.528194 0.882429 0 0 0 0 0 0 0 0 0 0 0 0 0 0 0 0 0 0 0 0 0 0 0 0 0 0 0 0 0 0 0 0 0 0 0 0 0 0 0 0 0 0
0.183733 4.90534e-09 2.17801e-09 2.72733e-09 0.555992 0.849743 0 0 0 0 0 0 0 0 0 0 0 0 0 0 0 0 0 0 0 0 0 0 0 0 0 0 0 0 0 0 0 0 0 0 0 0 0 0 0 0 0 0
0.193164 5.06447e-09 2.12185e-09 2.94262e-09 0.581032 0.817681 0 0 0 0 0 0 0 0 0 0 0 0 0 0 0 0 0 0 0 0 0 0 0 0 0 0 0 0 0 0 0 0 0 0 0 0 0 0 0 0 0 0
0.203079 5.23166e-09 2.09691e-09 3.13475e-09 0.599188 0.791792 0 0 0 0 0 0 0 0 0 0 0 0 0 0 0 0 0 0 0 0 0 0 0 0 0 0 0 0 0 0 0 0 0 0 0 0 0 0 0 0 0 0
0.213503 5.41695e-09 2.09268e-09 3.32428e-09 0.61368 0.77212 0 0 0 0 0 0 0 0 0 0 0 0 0 0 0 0 0 0 0 0 0 0 0 0 0 0 0 0 0 0 0 0 0 0 0 0 0 0 0 0 0 0
0.224463 5.59003e-09 2.10912e-09 3.48091e-09 0.6227 0.758921 0 0 0 0 0 0 0 0 0 0 0 0 0 0 0 0 0 0 0 0 0 0 0 0 0 0 0 0 0 0 0 0 0 0 0 0 0 0 0 0 0 0
0.235984 5.67364e-09 2.10285e-09 3.57079e-09 0.629365 0.74745 0 0 0 0 0 0 0 0 0 0 0 0 0 0 0 0 0 0 0 0 0 0 0 0 0 0 0 0 0 0 0 0 0 0 0 0 0 0 0 0 0 0
0.248097 5.64873e-09 2.0979e-09 3.55083e-09 0.628607 0.738351 0 0 0 0 0 0 0 0 0 0 0 0 0 0 0 0 0 0 0 0 0 0 0 0 0 0 0 0 0 0 0 0 0 0 0 0 0 0 0 0 0 0
0.260832 5.59296e-09 2.12249e-09 3.47047e-09 0.620508 0.733448 0 0 0 0 0 0 0 0 0 0 0 0 0 0 0 0 0 0 0 0 0 0 0 0 0 0 0 0 0 0 0 0 0 0 0 0 0 0 0 0 0 0
0.274221 5.53641e-09 2.15622e-09 3.38019e-09 0.610538 0.729753 0 0 0 0 0 0 0 0 0 0 0 0 0 0 0 0 0 0 0 0 0 0 0 0 0 0 0 0 0 0 0 0 0 0 0 0 0 0 0 0 0 0
0.288297 5.51399e-09 2.22549e-09 3.2885e-09 0.596393 0.732366 0 0 0 0 0 0 0 0 0 0 0 0 0 0 0 0 0 0 0 0 0 0 0 0 0 0 0 0 0 0 0 0 0 0 0 0 0 0 0 0 0 0
0.303095 5.51628e-09 2.28618e-09 3.2301e-09 0.585558 0.73368 0 0 0 0 0 0 0 0 0 0 0 0 0 0 0 0 0 0 0 0 0 0 0 0 0 0 0 0 0 0 0 0 0 0 0 0 0 0 0 0 0 0
0.318653 5.52451e-09 2.33962e-09 3.18489e-09 0.576501 0.734028 0 0 0 0 0 0 0 0 0 0 0 0 0 0 0 0 0 0 0 0 0 0 0 0 0 0 0 0 0 0 0 0 0 0 0 0 0 0 0 0 0 0
0.335009 5.5462e-09 2.39241e-09 3.15379e-09 0.56864 0.734221 0 0 0 0 0 0 0 0 0 0 0 0 0 0 0 0 0 0 0 0 0 0 0 0 0 0 0 0 0 0 0 0 0 0 0 0 0 0 0 0 0 0
0.352205 5.57678e-09 2.44282e-09 3.13397e-09 0.561967 0.73317 0 0 0 0 0 0 0 0 0 0 0 0 0 0 0 0 0 0 0 0 0 0 0 0 0 0 0 0 0 0 0 0 0 0 0 0 0 0 0 0 0 0
0.370284 5.60721e-09 2.48592e-09 3.12129e-09 0.556656 0.73003 0 0 0 0 0 0 0 0 0 0 0 0 0 0 0 0 0 0 0 0 0 0 0 0 0 0 0 0 0 0 0 0 0 0 0 0 0 0 0 0 0 0
0.389291 5.63788e-09 2.52031e-09 3.11757e-09 0.552969 0.724993 0 0 0 0 0 0 0 0 0 0 0 0 0 0 0 0 0 0 0 0 0 0 0 0 0 0 0 0 0 0 0 0 0 0 0 0 0 0 0 0 0 0
0.409273 5.67517e-09 2.55614e-09 3.11903e-09 0.549592 0.720045 0 0 0 0 0 0 0 0 0 0 0 0 0 0 0 0 0 0 0 0 0 0 0 0 0 0 0 0 0 0 0 0 0 0 0 0 0 0 0 0 0 0
0.430281 5.71724e-09 2.5958e-09 3.12144e-09 0.545969 0.71527 0 0 0 0 0 0 0 0 0 0 0 0 0 0 0 0 0 0 0 0 0 0 0 0 0 0 0 0 0 0 0 0 0 0 0 0 0 0 0 0 0 0
0.452368 5.75447e-09 2.63696e-09 3.1175e-09 0.541754 0.709792 0 0 0 0 0 0 0 0 0 0 0 0 0 0 0 0 0 0 0 0 0 0 0 0 0 0 0 0 0 0 0 0 0 0 0 0 0 0 0 0 0 0
0.475588 5.77975e-09 2.67656e-09 3.10319e-09 0.536907 0.702538 0 0 0 0 0 0 0 0 0 0 0 0 0 0 0 0 0 0 0 0 0 0 0 0 0 0 0 0 0 0 0 0 0 0 0 0 0 0 0 0 0 0
0.5 5.78743e-09 2.71633e-09 3.0711e-09 0.530649 0.693321 0 0 0 0 0 0 0 0 0 0 0 0 0 0 0 0 0 0 0 0 0 0 0 0 0 0 0 0 0 0 0 0 0 0 0 0 0 0 0 0 0 0
0.525665 5.76104e-09 2.74247e-09 3.01857e-09 0.523963 0.67828 0 0 0 0 0 0 0 0 0 0 0 0 0 0 0 0 0 0 0 0 0 0 0 0 0 0 0 0 0 0 0 0 0 0 0 0 0 0 0 0 0 0
0.552648 5.74784e-09 2.76918e-09 2.97866e-09 0.518223 0.652855 0 0 0 0 0 0 0 0 0 0 0 0 0 0 0 0 0 0 0 0 0 0 0 0 0 0 0 0 0 0 0 0 0 0 0 0 0 0 0 0 0 0
0.581015 5.82916e-09 2.82403e-09 3.00513e-09 0.515534 0.63024 0 0 0 0 0 0 0 0 0 0 0 0 0 0 0 0 0 0 0 0 0 0 0 0 0 0 0 0 0 0 0 0 0 0 0 0 0 0 0 0 0 0
0.610839 5.91272e-09 2.85353e-09 3.05919e-09 0.517391 0.614446 0 0 0 0 0 0 0 0 0 0 0 0 0 0 0 0 0 0 0 0 0 0 0 0 0 0 0 0 0 0 0 0 0 0 0 0 0 0 0 0 0 0
0.642193 5.94166e-09 2.82537e-09 3.11629e-09 0.524482 0.592899 0 0 0 0 0 0 0 0 0 0 0 0 0 0 0 0 0 0 0 0 0 0 0 0 0 0 0 0 0 0 0 0 0 0 0 0 0 0 0 0 0 0
0.675157 6.13854e-09 2.83284e-09 3.30569e-09 0.538515 0.560793 0 0 0 0 0 0 0 0 0 0 0 0 0 0 0 0 0 0 0 0 0 0 0 0 0 0 0 0 0 0 0 0 0 0 0 0 0 0 0 0 0 0
0.709813 6.33316e-09 2.72985e-09 3.60331e-09 0.56896 0.527892 0 0 0 0 0 0 0 0 0 0 0 0 0 0 0 0 0 0 0 0 0 0 0 0 0 0 0 0 0 0 0 0 0 0 0 0 0 0 0 0 0 0
0.746248 6.56652e-09 2.61814e-09 3.94837e-09 0.601289 0.519284 0 0 0 0 0 0 0 0 0 0 0 0 0 0 0 0 0 0 0 0 0 0 0 0 0 0 0 0 0 0 0 0 0 0 0 0 0 0 0 0 0 0
0.784553 6.89054e-09 2.61315e-09 4.27738e-09 0.620762 0.523056 0 0 0 0 0 0 0 0 0 0 0 0 0 0 0 0 0 0 0 0 0 0 0 0 0 0 0 0 0 0 0 0 0 0 0 0 0 0 0 0 0 0
0.824824 7.27289e-09 2.6973e-09 4.57559e-09 0.62913 0.528579 0 0 0 0 0 0 0 0 0 0 0 0 0 0 0 0 0 0 0 0 0 0 0 0 0 0 0 0 0 0 0 0 0 0 0 0 0 0 0 0 0 0
0.867162 7.57506e-09 2.77989e-09 4.79517e-09 0.633021 0.517294 0 0 0 0 0 0 0 0 0 0 0 0 0 0 0 0 0 0 0 0 0 0 0 0 0 0 0 0 0 0 0 0 0 0 0 0 0 0 0 0 0 0
0.911674 7.28183e-09 2.59234e-09 4.68949e-09 0.643999 0.481007 0 0 0 0 0 0 0 0 0 0 0 0 0 0 0 0 0 0 0 0 0 0 0 0 0 0 0 0 0 0 0 0 0 0 0 0 0 0 0 0 0 0
0.95847 6.95328e-09 2.36375e-09 4.58953e-09 0.660053 0.441921 0 0 0 0 0 0 0 0 0 0 0 0 0 0 0 0 0 0 0 0 0 0 0 0 0 0 0 0 0 0 0 0 0 0 0 0 0 0 0 0 0 0
1.00767 6.8958e-09 2.24476e-09 4.65104e-09 0.674475 0.406313 0 0 0 0 0 0 0 0 0 0 0 0 0 0 0 0 0 0 0 0 0 0 0 0 0 0 0 0 0 0 0 0 0 0 0 0 0 0 0 0 0 0
1.05939 7.00813e-09 2.20476e-09 4.80337e-09 0.6854 0.374154 0 0 0 0 0 0 0 0 0 0 0 0 0 0 0 0 0 0 0 0 0 0 0 0 0 0 0 0 0 0 0 0 0 0 0 0 0 0 0 0 0 0
1.11377 7.23441e-09 2.21216e-09 5.02225e-09 0.694217 0.348044 0 0 0 0 0 0 0 0 0 0 0 0 0 0 0 0 0 0 0 0 0 0 0 0 0 0 0 0 0 0 0 0 0 0 0 0 0 0 0 0 0 0
1.17094 7.45932e-09 2.25813e-09 5.20119e-09 0.697274 0.331216 0 0 0 0 0 0 0 0 0 0 0 0 0 0 0 0 0 0 0 0 0 0 0 0 0 0 0 0 0 0 0 0 0 0 0 0 0 0 0 0 0 0
1.23105 7.39592e-09 2.28615e-09 5.10977e-09 0.69089 0.320865 0 0 0 0 0 0 0 0 0 0 0 0 0 0 0 0 0 0 0 0 0 0 0 0 0 0 0 0 0 0 0 0 0 0 0 0 0 0 0 0 0 0
1.29424 6.91944e-09 2.25092e-09 4.66852e-09 0.674696 0.305698 0 0 0 0 0 0 0 0 0 0 0 0 0 0 0 0 0 0 0 0 0 0 0 0 0 0 0 0 0 0 0 0 0 0 0 0 0 0 0 0 0 0
1.36067 6.36674e-09 2.1971e-09 4.16965e-09 0.654911 0.277651 0 0 0 0 0 0 0 0 0 0 0 0 0 0 0 0 0 0 0 0 0 0 0 0 0 0 0 0 0 0 0 0 0 0 0 0 0 0 0 0 0 0
1.43051 5.96841e-09 2.16963e-09 3.79878e-09 0.636481 0.240421 0 0 0 0 0 0 0 0 0 0 0 0 0 0 0 0 0 0 0 0 0 0 0 0 0 0 0 0 0 0 0 0 0 0 0 0 0 0 0 0 0 0
1.50394 5.69788e-09 2.1679e-09 3.52998e-09 0.619525 0.202387 0 0 0 0 0 0 0 0 0 0 0 0 0 0 0 0 0 0 0 0 0 0 0 0 0 0 0 0 0 0 0 0 0 0 0 0 0 0 0 0 0 0
1.58114 5.47434e-09 2.174e-09 3.30034e-09 0.602875 0.167956 0 0 0 0 0 0 0 0 0 0 0 0 0 0 0 0 0 0 0 0 0 0 0 0 0 0 0 0 0 0 0 0 0 0 0 0 0 0 0 0 0 0
1.6623 5.24503e-09 2.17266e-09 3.07238e-09 0.585769 0.138089 0 0 0 0 0 0 0 0 0 0 0 0 0 0 0 0 0 0 0 0 0 0 0 0 0 0 0 0 0 0 0 0 0 0 0 0 0 0 0 0 0 0
1.74763 4.98186e-09 2.15434e-09 2.82752e-09 0.567564 0.112649 0 0 0 0 0 0 0 0 0 0 0 0 0 0 0 0 0 0 0 0 0 0 0 0 0 0 0 0 0 0 0 0 0 0 0 0 0 0 0 0 0 0
1.83733 4.67495e-09 2.11387e-09 2.56108e-09 0.54783 0.0911026 0 0 0 0 0 0 0 0 0 0 0 0 0 0 0 0 0 0 0 0 0 0 0 0 0 0 0 0 0 0 0 0 0 0 0 0 0 0 0 0 0 0
1.93164 4.32775e-09 2.04972e-09 2.27803e-09 0.526377 0.0728245 0 0 0 0 0 0 0 0 0 0 0 0 0 0 0 0 0 0 0 0 0 0 0 0 0 0 0 0 0 0 0 0 0 0 0 0 0 0 0 0 0 0
2.03079 3.95334e-09 1.96463e-09 1.98871e-09 0.503045 0.0574435 0 0 0 0 0 0 0 0 0 0 0 0 0 0 0 0 0 0 0 0 0 0 0 0 0 0 0 0 0 0 0 0 0 0 0 0 0 0 0 0 0 0
2.13503 3.56936e-09 1.86303e-09 1.70633e-09 0.478049 0.0446425 0 0 0 0 0 0 0 0 0 0 0 0 0 0 0 0 0 0 0 0 0 0 0 0 0 0 0 0 0 0 0 0 0 0 0 0 0 0 0 0 0 0
2.24463 3.1929e-09 1.75183e-09 1.44107e-09 0.451334 0.0340844 0 0 0 0 0 0 0 0 0 0 0 0 0 0 0 0 0 0 0 0 0 0 0 0 0 0 0 0 0 0 0 0 0 0 0 0 0 0 0 0 0 0
2.35984 2.83786e-09 1.63685e-09 1.20101e-09 0.423211 0.0257465 0 0 0 0 0 0 0 0 0 0 0 0 0 0 0 0 0 0 0 0 0 0 0 0 0 0 0 0 0 0 0 0 0 0 0 0 0 0 0 0 0 0
2.48097 2.51182e-09 1.52142e-09 9.904e-10 0.394296 0.0193177 0 0 0 0 0 0 0 0 0 0 0 0 0 0 0 0 0 0 0 0 0 0 0 0 0 0 0 0 0 0 0 0 0 0 0 0 0 0 0 0 0 0
2.60832 2.21841e-09 1.40745e-09 8.10962e-10 0.36556 0.0143693 0 0 0 0 0 0 0 0 0 0 0 0 0 0 0 0 0 0 0 0 0 0 0 0 0 0 0 0 0 0 0 0 0 0 0 0 0 0 0 0 0 0
2.74221 1.9575e-09 1.29733e-09 6.60168e-10 0.337252 0.0107174 0 0 0 0 0 0 0 0 0 0 0 0 0 0 0 0 0 0 0 0 0 0 0 0 0 0 0 0 0 0 0 0 0 0 0 0 0 0 0 0 0 0
2.88297 1.72795e-09 1.193e-09 5.34949e-10 0.309587 0.00840154 0 0 0 0 0 0 0 0 0 0 0 0 0 0 0 0 0 0 0 0 0 0 0 0 0 0 0 0 0 0 0 0 0 0 0 0 0 0 0 0 0 0
3.03095 1.5266e-09 1.09409e-09 4.32511e-10 0.283316 0.00698727 0 0 0 0 0 0 0 0 0 0 0 0 0 0 0 0 0 0 0 0 0 0 0 0 0 0 0 0 0 0 0 0 0 0 0 0 0 0 0 0 0 0
3.18653 1.34977e-09 1.00053e-09 3.49233e-10 0.258736 0.00627433 0 0 0 0 0 0 0 0 0 0 0 0 0 0 0 0 0 0 0 0 0 0 0 0 0 0 0 0 0 0 0 0 0 0 0 0 0 0 0 0 0 0
3.35009 1.19433e-09 9.12627e-10 2.81699e-10 0.235865 0.00608229 0 0 0 0 0 0 0 0 0 0 0 0 0 0 0 0 0 0 0 0 0 0 0 0 0 0 0 0 0 0 0 0 0 0 0 0 0 0 0 0 0 0
3.52205 1.05772e-09 8.30622e-10 2.27098e-10 0.214705 0.00628278 0 0 0 0 0 0 0 0 0 0 0 0 0 0 0 0 0 0 0 0 0 0 0 0 0 0 0 0 0 0 0 0 0 0 0 0 0 0 0 0 0 0
3.70284 9.37738e-10 7.54499e-10 1.83239e-10 0.195405 0.00671496 0 0 0 0 0 0 0 0 0 0 0 0 0 0 0 0 0 0 0 0 0 0 0 0 0 0 0 0 0 0 0 0 0 0 0 0 0 0 0 0 0 0
3.89291 8.31816e-10 6.83939e-10 1.47877e-10 0.177776 0.00729772 0 0 0 0 0 0 0 0 0 0 0 0 0 0 0 0 0 0 0 0 0 0 0 0 0 0 0 0 0 0 0 0 0 0 0 0 0 0 0 0 0 0
4.09273 7.38022e-10 6.1861e-10 1.19412e-10 0.1618 0.00768683 0 0 0 0 0 0 0 0 0 0 0 0 0 0 0 0 0 0 0 0 0 0 0 0 0 0 0 0 0 0 0 0 0 0 0 0 0 0 0 0 0 0
4.30281 6.55425e-10 5.58923e-10 9.65019e-11 0.147236 0.00802379 0 0 0 0 0 0 0 0 0 0 0 0 0 0 0 0 0 0 0 0 0 0 0 0 0 0 0 0 0 0 0 0 0 0 0 0 0 0 0 0 0 0
4.52368 5.82686e-10 5.04591e-10 7.80952e-11 0.134026 0.00828523 0 0 0 0 0 0 0 0 0 0 0 0 0 0 0 0 0 0 0 0 0 0 0 0 0 0 0 0 0 0 0 0 0 0 0 0 0 0 0 0 0 0
4.75588 5.18375e-10 4.55139e-10 6.32359e-11 0.121989 0.00845333 0 0 0 0 0 0 0 0 0 0 0 0 0 0 0 0 0 0 0 0 0 0 0 0 0 0 0 0 0 0 0 0 0 0 0 0 0 0 0 0 0 0
5 4.61284e-10 4.10048e-10 5.12361e-11 0.111073 0.00839258 0 0 0 0 0 0 0 0 0 0 0 0 0 0 0 0 0 0 0 0 0 0 0 0 0 0 0 0 0 0 0 0 1.4013e-45 0 1.4013e-45 0 5.60519e-45 0 1.26117e-44 0 2.94273e-44 0
5.25665 4.11143e-10 3.69573e-10 4.15694e-11 0.101107 0.00813456 0 0 0 0 0 0 0 0 0 0 0 0 0 0 0 0 0 0 0 0 0 0 0 0 1.4013e-45 0 4.2039e-45 0 1.26117e-44 0 3.92364e-44 0 1.12104e-43 0 2.84464e-43 0 7.1186e-43 0 1.60869e-42 0 3.58873e-42 0
5.52648 3.66937e-10 3.3318e-10 3.37569e-11 0.0919964 0.00784315 0 0 0 0 0 0 0 0 0 0 0 0 0 0 0 0 0 0 1.4013e-45 0 7.00649e-45 0 3.50325e-44 0 1.42932e-43 0 4.94658e-43 0 1.59468e-42 0 4.58225e-42 0 1.23454e-41 0 3.00032e-41 0 7.17633e-41 0 1.55883e-40 0 3.34455e-40 0
5.81015 3.27754e-10 3.00336e-10 2.74179e-11 0.0836539 0.00753789 0 0 0 0 0 0 0 0 0 0 0 0 0 0 2.8026e-45 0 2.66247e-44 0 1.79366e-43 0 9.26258e-43 0 4.06517e-42 0 1.53036e-41 0 4.99437e-41 0 1.51895e-40 0 4.14665e-40 0 1.06456e-39 0 2.47731e-39 0 5.67853e-39 0 1.18763e-38 0 2.45489e-38 0
6.10839 2.92945e-10 2.70664e-10 2.22805e-11 0.0760571 0.00713998 0 0 0 0 0 0 0 0 0 0 1.4013e-45 0 3.22299e-44 0 3.83956e-43 0 3.05483e-42 0 1.86191e-41 0 8.90259e-41 0 3.63591e-40 0 1.28317e-39 0 3.95259e-39 0 1.13857e-38 0 2.9595e-38 0 7.25603e-38 0 1.62031e-37 0 3.5667e-37 0 7.19559e-37 0 1.43556e-36 0
6.42193 2.6235e-10 2.44229e-10 1.81215e-11 0.0690738 0.00693861 0 0 0 0 0 0 0 0 5.60519e-45 0 2.10195e-43 0 3.59293e-42 0 3.78841e-41 0 2.72642e-40 0 1.52161e-39 0 6.74052e-39 0 2.57012e-38 0 8.52877e-38 0 2.48672e-37 0 6.80256e-37 0 1.68762e-36 0 3.96042e-36 0 8.50365e-36 0 1.80112e-35 0 3.51125e-35 0 6.77283e-35 0
6.75157 2.34944e-10 2.20194e-10 1.475e-11 0.0627811 0.00635428 0 0 0 0 0 0 5.60519e-45 0 6.65617e-43 0 2.09536e-41 0 3.12484e-40 0 2.93696e-39 0 1.91952e-38 0 9.85021e-38 0 4.05766e-37 0 1.44929e-36 0 4.53582e-36 0 1.25518e-35 0 3.26898e-35 0 7.758e-35 0 1.74633e-34 0 3.61234e-34 0 7.37586e-34 0 1.3918e-33 0 2.59989e-33 0
7.09813 2.10686e-10 1.98679e-10 1.20069e-11 0.0569896 0.00584667 0 0 0 0 1.4013e-45 0 7.28675e-43 0 6.17945e-41 0 1.64476e-39 0 2.14966e-38 0 1.81106e-37 0 1.07999e-36 0 5.11678e-36 0 1.96702e-35 0 6.60229e-35 0 1.95435e-34 0 5.146e-34 0 1.27903e-33 0 2.90999e-33 0 6.29599e-33 0 1.25694e-32 0 2.47857e-32 0 4.5342e-32 0 8.21542e-32 0
7.46248 1.89144e-10 1.79367e-10 9.77686e-12 0.05169 0.00531966 0 0 0 0 1.20512e-43 0 6.6301e-41 0 4.52499e-39 0 1.02609e-37 0 1.18291e-36 0 8.98098e-36 0 4.90851e-35 0 2.15547e-34 0 7.7589e-34 0 2.45477e-33 0 6.89139e-33 0 1.7308e-32 0 4.11481e-32 0 8.99355e-32 0 1.87387e-31 0 3.61685e-31 0 6.89953e-31 0 1.2255e-30 0 2.15694e-30 0
7.84553 1.70005e-10 1.62037e-10 7.96843e-12 0.0468717 0.00468651 0 0 0 0 1.18326e-41 0 4.7588e-39 0 2.64271e-37 0 5.14556e-36 0 5.26453e-35 0 3.62033e-34 0 1.82121e-33 0 7.44008e-33 0 2.51581e-32 0 7.5243e-32 0 2.00851e-31 0 4.82266e-31 0 1.09908e-30 0 2.31222e-30 0 4.64807e-30 0 8.68799e-30 0 1.60588e-29 0 2.77349e-29 0 4.74859e-29 0
8.24824 1.5309e-10 1.46595e-10 6.49572e-12 0.0424306 0.00395261 0 0 1.96182e-44 0 9.09387e-40 0 2.72918e-37 0 1.24568e-35 0 2.09816e-34 0 1.91627e-33 0 1.19939e-32 0 5.57592e-32 0 2.12663e-31 0 6.77579e-31 0 1.92096e-30 0 4.88774e-30 0 1.12447e-29 0 2.46162e-29 0 4.99405e-29 0 9.70265e-29 0 1.75903e-28 0 3.15532e-28 0 5.30602e-28 0 8.84921e-28 0
8.67162 1.381e-10 1.32806e-10 5.29408e-12 0.038335 0.00332178 0 0 2.01787e-42 0 5.56599e-38 0 1.26437e-35 0 4.78887e-34 0 7.02722e-33 0 5.76104e-32 0 3.29698e-31 0 1.42197e-30 0 5.08019e-30 0 1.52959e-29 0 4.12134e-29 0 1.0019e-28 0 2.21308e-28 0 4.66293e-28 0 9.13882e-28 0 1.71888e-27 0 3.02701e-27 0 5.27706e-27 0 8.65161e-27 0 1.4073e-26 0
9.11674 1.24801e-10 1.20485e-10 4.31655e-12 0.0345874 0.00275764 2.8026e-45 0 1.63822e-40 0 2.74351e-36 0 4.78181e-34 0 1.51666e-32 0 1.95202e-31 0 1.44408e-30 0 7.58955e-30 0 3.04787e-29 0 1.02327e-28 0 2.91952e-28 0 7.49476e-28 0 1.74465e-27 0 3.70747e-27 0 7.53246e-27 0 1.42856e-26 0 2.60531e-26 0 4.46302e-26 0 7.5722e-26 0 1.21184e-25 0 1.92495e-25 0
9.5847 1.12991e-10 1.09471e-10 3.51939e-12 0.0311477 0.00225288 3.06884e-43 0 1.05682e-38 0 1.1008e-34 0 1.4913e-32 0 3.99542e-31 0 4.53924e-30 0 3.04548e-29 0 1.47604e-28 0 5.53859e-28 0 1.75271e-27 0 4.75119e-27 0 1.16482e-26 0 2.60191e-26 0 5.3294e-26 0 1.04594e-25 0 1.92264e-25 0 3.40499e-25 0 5.68162e-25 0 9.39411e-25 0 1.46929e-24 0 2.28175e-24 0
10.0767 1.02488e-10 9.96193e-11 2.86912e-12 0.0279945 0.00175534 2.64887e-41 0 5.47789e-37 0 3.63211e-33 0 3.87196e-31 0 8.83502e-30 0 8.91452e-29 0 5.45016e-28 0 2.4456e-27 0 8.60294e-27 0 2.57354e-26 0 6.64474e-26 0 1.55926e-25 0 3.34898e-25 0 6.6236e-25 0 1.25784e-24 0 2.24444e-24 0 3.86552e-24 0 6.29082e-24 0 1.01491e-23 0 1.55309e-23 0 2.36061e-23 0
10.5939 9.31987e-11 9.08607e-11 2.33797e-12 0.0250858 0.00121643 1.81274e-39 0 2.30777e-35 0 9.95761e-32 0 8.4513e-30 0 1.65533e-28 0 1.49197e-27 0 8.34988e-27 0 3.48196e-26 0 1.1519e-25 0 3.26636e-25 0 8.05191e-25 0 1.81239e-24 0 3.75005e-24 0 7.17395e-24 0 1.32035e-23 0 2.29031e-23 0 3.8412e-23 0 6.10436e-23 0 9.62099e-23 0 1.442e-22 0 2.14742e-22 0
11.1377 8.5133e-11 8.32287e-11 1.90429e-12 0.0223684 0.000684604 9.96819e-38 0 7.99943e-34 0 2.29376e-30 0 1.56728e-28 0 2.65478e-27 0 2.14923e-26 0 1.10583e-25 0 4.30083e-25 0 1.34207e-24 0 3.6168e-24 0 8.53156e-24 0 1.84577e-23 0 3.68592e-23 0 6.83144e-23 0 1.22042e-22 0 2.06079e-22 0 3.3701e-22 0 5.23592e-22 0 8.07098e-22 0 1.18602e-21 0 1.7322e-21 0
