# 2.32712e-06 4 40 : grain size, compostion index, size index
# This grain was stochastically heated: No
# Heating and cooling timescale: 272.439 54206.3
# Ratio of heating to cooling to determine stochastic cutoff: 100
# Equilibrium emission is recorded even for those grains in the stochastic regime.
# Emission spectrum was computed for: 
# Type: IRSF
# Scale: 1
# Temperature: -1
# Wavelength  CExt  CAbs  CSca  Albedo G EqEmission StEmission
0.05 2.77169e-11 1.77001e-11 1.00168e-11 0.361396 0.772383 0 0
0.0525665 2.83405e-11 1.81268e-11 1.02137e-11 0.360394 0.754892 0 0
0.0552647 2.91692e-11 1.85385e-11 1.06306e-11 0.364448 0.734226 0 0
0.0581015 3.06843e-11 1.91932e-11 1.14911e-11 0.374494 0.710133 0 0
0.0610839 3.29317e-11 2.03013e-11 1.26305e-11 0.383535 0.686398 0 0
0.0642193 3.53803e-11 2.16833e-11 1.3697e-11 0.387137 0.66589 0 0
0.0675157 3.77103e-11 2.31139e-11 1.45964e-11 0.387067 0.6481 0 0
0.0709813 3.97822e-11 2.44539e-11 1.53283e-11 0.385305 0.631924 0 0
0.0746248 4.14985e-11 2.5611e-11 1.58875e-11 0.382845 0.616376 0 0
0.0784553 4.26879e-11 2.64959e-11 1.6192e-11 0.37931 0.600463 0 0
0.0824824 4.30604e-11 2.69809e-11 1.60796e-11 0.373418 0.58289 0 0
0.0867162 4.25013e-11 2.70479e-11 1.54534e-11 0.363599 0.55517 0 0
0.0911674 4.3327e-11 2.74358e-11 1.58911e-11 0.366772 0.520603 0 0
0.095847 4.42734e-11 2.76464e-11 1.6627e-11 0.375553 0.485694 0 0
0.100767 4.4816e-11 2.764e-11 1.7176e-11 0.383255 0.450256 0 0
0.105939 4.50272e-11 2.74743e-11 1.75529e-11 0.389829 0.420575 0 0
0.111377 4.4578e-11 2.72168e-11 1.73612e-11 0.389456 0.394815 0 0
0.117094 4.38733e-11 2.68368e-11 1.70365e-11 0.388311 0.371017 0 0
0.123105 4.27026e-11 2.61778e-11 1.65248e-11 0.386975 0.348674 0 0
0.129424 4.09742e-11 2.51365e-11 1.58377e-11 0.386529 0.327302 0 0
0.136067 3.87362e-11 2.36797e-11 1.50565e-11 0.388694 0.307198 0 0
0.143051 3.62451e-11 2.17628e-11 1.44823e-11 0.399566 0.291716 0 0
0.150394 3.09467e-11 1.74772e-11 1.34694e-11 0.435246 0.282131 0 0
0.158114 2.28779e-11 1.16509e-11 1.1227e-11 0.490735 0.255807 0 0
0.16623 1.58492e-11 7.12851e-12 8.72066e-12 0.550228 0.21921 0 0
0.174762 1.10752e-11 4.46518e-12 6.60999e-12 0.59683 0.18667 0 0
0.183733 7.74793e-12 2.77363e-12 4.9743e-12 0.642017 0.160418 0 0
0.193164 5.5274e-12 1.77364e-12 3.75376e-12 0.679118 0.139546 0 0
0.203079 4.01757e-12 1.16839e-12 2.84918e-12 0.70918 0.122564 0 0
0.213503 2.99382e-12 8.23277e-13 2.17054e-12 0.725008 0.108341 0 0
0.224463 2.33245e-12 6.65328e-13 1.66712e-12 0.714751 0.0963267 0 0
0.235984 1.90577e-12 6.09638e-13 1.29614e-12 0.68011 0.0860903 0 0
0.248097 1.60622e-12 5.87526e-13 1.01869e-12 0.634218 0.0772257 0 0
0.260832 1.36379e-12 5.57717e-13 8.06076e-13 0.591055 0.0694181 0 0
0.274221 1.16787e-12 5.27036e-13 6.40832e-13 0.548719 0.0624865 0 0
0.288297 1.00955e-12 4.97545e-13 5.12002e-13 0.50716 0.0563225 0 0
0.303095 8.80441e-13 4.70027e-13 4.10414e-13 0.466146 0.0508079 0 0
0.318653 7.73749e-13 4.44027e-13 3.29722e-13 0.426136 0.0458569 0 0
0.335009 6.85232e-13 4.19598e-13 2.65634e-13 0.387655 0.0414136 0 0
0.352205 6.1122e-13 3.96787e-13 2.14433e-13 0.350828 0.0374162 0 0
0.370284 5.48651e-13 3.75321e-13 1.7333e-13 0.315921 0.0338119 0 0
0.389291 4.95557e-13 3.55214e-13 1.40343e-13 0.283202 0.0305629 0 0
0.409273 4.50046e-13 3.36182e-13 1.13864e-13 0.253006 0.0276372 0 0
0.430281 4.10628e-13 3.18201e-13 9.24271e-14 0.225087 0.0249919 0 0
0.452368 3.76438e-13 3.01302e-13 7.51365e-14 0.199598 0.0226047 0 0
0.475588 3.46498e-13 2.85383e-13 6.11153e-14 0.17638 0.0204461 0 0
0.5 3.20261e-13 2.70487e-13 4.97741e-14 0.155417 0.0184979 0 0
0.525665 2.97055e-13 2.56506e-13 4.05487e-14 0.136502 0.0167347 0 0
0.552647 2.76418e-13 2.43389e-13 3.30289e-14 0.119489 0.0151377 0 0
0.581015 2.57887e-13 2.30928e-13 2.69593e-14 0.104539 0.0136984 0 0
0.610839 2.41245e-13 2.19234e-13 2.20104e-14 0.0912369 0.0123961 0 0
0.642193 2.26199e-13 2.08234e-13 1.79654e-14 0.0794228 0.0112159 0 0
0.675157 2.1256e-13 1.97892e-13 1.46681e-14 0.0690066 0.010148 0 0
0.709813 2.00169e-13 1.8818e-13 1.19889e-14 0.0598939 0.00918383 0 0
0.746248 1.88833e-13 1.79034e-13 9.7989e-15 0.051892 0.00831072 0 0
0.784553 1.78408e-13 1.70401e-13 8.00702e-15 0.0448804 0.00751973 0 0
0.824824 1.68714e-13 1.62169e-13 6.54582e-15 0.0387982 0.00680435 0 0
0.867162 1.59706e-13 1.5435e-13 5.3561e-15 0.0335372 0.00615826 0 0
0.911674 1.51316e-13 1.46935e-13 4.38185e-15 0.0289582 0.00557299 0 0
0.95847 1.43446e-13 1.39861e-13 3.58456e-15 0.024989 0.00504299 0 0
1.00767 1.36112e-13 1.33178e-13 2.93322e-15 0.0215501 0.00456365 0 0
1.05939 1.29291e-13 1.26891e-13 2.40056e-15 0.018567 0.00412993 0 0
1.11377 1.22896e-13 1.20932e-13 1.96413e-15 0.0159821 0.00373705 0 0
1.17094 1.16865e-13 1.15258e-13 1.60646e-15 0.0137463 0.00338115 2.43829e-298 0
1.23105 1.11193e-13 1.09878e-13 1.31462e-15 0.0118228 0.00305956 7.51534e-284 0
1.29424 1.0611e-13 1.05035e-13 1.07541e-15 0.0101349 0.00276826 4.48996e-270 0
1.36067 1.0138e-13 1.005e-13 8.80103e-16 0.0086812 0.00250481 5.62419e-257 0
1.43051 9.6914e-14 9.61943e-14 7.19737e-16 0.00742655 0.00226603 1.59333e-244 0
1.50394 9.26947e-14 9.21057e-14 5.89024e-16 0.00635445 0.00205038 1.09778e-232 0
1.58114 8.86808e-14 8.81989e-14 4.81918e-16 0.00543431 0.00185509 1.97028e-221 0
1.6623 8.48554e-14 8.44614e-14 3.93964e-16 0.00464277 0.00167805 9.8373e-211 0
1.74762 8.1269e-14 8.09469e-14 3.22145e-16 0.00396393 0.00151799 1.45553e-200 0
1.83733 7.80042e-14 7.77408e-14 2.63363e-16 0.00337626 0.00137315 6.78093e-191 0
1.93164 7.49635e-14 7.47482e-14 2.15217e-16 0.00287096 0.00124196 1.05165e-181 0
2.03079 7.21016e-14 7.19257e-14 1.75848e-16 0.00243889 0.00112325 5.72701e-173 0
2.13503 6.93981e-14 6.92544e-14 1.43688e-16 0.00207049 0.00101593 1.15252e-164 0
2.24463 6.68854e-14 6.67681e-14 1.17335e-16 0.00175427 0.000918719 9.0023e-157 0
2.35984 6.44909e-14 6.43952e-14 9.57687e-17 0.00148499 0.000830699 2.85617e-149 0
2.48097 6.22319e-14 6.21538e-14 7.80913e-17 0.00125484 0.000750951 3.84799e-142 0
2.60832 6.01459e-14 6.00822e-14 6.36969e-17 0.00105904 0.000678928 2.29714e-135 0
2.74221 5.81686e-14 5.81167e-14 5.19301e-17 0.000892752 0.000613732 6.31787e-129 0
2.88297 5.63357e-14 5.62934e-14 4.22649e-17 0.000750233 0.00055458 8.32038e-123 0
3.03095 5.46057e-14 5.45713e-14 3.43935e-17 0.000629852 0.000501127 5.43621e-117 0
3.18653 5.30961e-14 5.30681e-14 2.79743e-17 0.000526862 0.00045278 1.82777e-111 0
3.35009 5.16702e-14 5.16475e-14 2.27233e-17 0.000439776 0.000408977 3.25969e-106 0
3.52205 5.01257e-14 5.01073e-14 1.84253e-17 0.000367582 0.000369274 3.16804e-101 0
3.70284 4.8606e-14 4.85911e-14 1.49315e-17 0.000307194 0.000333405 1.73277e-96 0
3.89291 4.71385e-14 4.71264e-14 1.20759e-17 0.00025618 0.000300899 5.48862e-92 0
4.09273 4.57489e-14 4.57392e-14 9.74007e-18 0.000212903 0.000271413 1.03467e-87 0
4.30281 4.42955e-14 4.42877e-14 7.83388e-18 0.000176855 0.00024469 1.18694e-83 0
4.52368 4.29579e-14 4.29516e-14 6.28391e-18 0.000146281 0.000220502 8.52249e-80 0
4.75588 4.17976e-14 4.17925e-14 5.01977e-18 0.000120097 0.000198555 3.92549e-76 0
5 4.09261e-14 4.09221e-14 3.98507e-18 9.73722e-05 0.000178597 1.1891e-72 0
5.25665 4.04511e-14 4.04479e-14 3.14338e-18 7.77081e-05 0.000160483 2.42612e-69 0
5.52648 4.03173e-14 4.03149e-14 2.46296e-18 6.10892e-05 0.000144067 3.3967e-66 0
5.81015 4.07257e-14 4.07238e-14 1.90678e-18 4.68201e-05 0.000129099 3.34241e-63 0
6.10839 4.15026e-14 4.15012e-14 1.45735e-18 3.51146e-05 0.000115494 2.3423e-60 0
6.42193 4.21163e-14 4.21152e-14 1.09366e-18 2.59675e-05 0.000103114 1.17377e-57 0
6.75157 4.22238e-14 4.22231e-14 7.90346e-19 1.8718e-05 9.16818e-05 4.24037e-55 0
7.09813 4.28987e-14 4.28981e-14 5.29282e-19 1.2338e-05 8.09203e-05 1.15053e-52 0
7.46248 5.2856e-14 5.28557e-14 2.9823e-19 5.6423e-06 7.04325e-05 2.84675e-50 0
7.84553 1.02722e-13 1.02722e-13 1.49049e-19 1.45099e-06 6.04445e-05 8.4723e-48 0
8.24824 2.1368e-13 2.1368e-13 1.82135e-19 8.52371e-07 5.19458e-05 2.0853e-45 0
8.67162 3.26138e-13 3.26137e-13 3.27613e-19 1.00452e-06 4.52245e-05 2.94693e-43 0
9.11674 4.80826e-13 4.80825e-13 6.38862e-19 1.32868e-06 3.85423e-05 3.18551e-41 0
9.5847 5.41e-13 5.40999e-13 9.0877e-19 1.6798e-06 3.45183e-05 2.10503e-39 0
10.0767 4.84733e-13 4.84732e-13 8.73872e-19 1.80279e-06 3.27837e-05 8.96892e-38 0
10.5939 4.06633e-13 4.06633e-13 7.92338e-19 1.94853e-06 3.2218e-05 2.92716e-36 0
11.1377 3.19673e-13 3.19672e-13 6.27107e-19 1.96171e-06 3.30202e-05 7.39624e-35 0
11.7094 2.55252e-13 2.55252e-13 4.92804e-19 1.93066e-06 3.32144e-05 1.58284e-33 0
12.3105 1.99316e-13 1.99315e-13 3.77776e-19 1.89536e-06 3.30416e-05 2.78709e-32 0
12.9424 1.55558e-13 1.55558e-13 2.8151e-19 1.80968e-06 3.16236e-05 4.16158e-31 0
13.6067 1.24313e-13 1.24312e-13 2.01592e-19 1.62166e-06 2.87445e-05 5.44202e-30 0
14.3051 1.14174e-13 1.14174e-13 1.38314e-19 1.21143e-06 2.4625e-05 7.04867e-29 0
15.0394 1.27063e-13 1.27063e-13 1.02906e-19 8.09881e-07 2.08516e-05 9.60377e-28 0
15.8114 1.46665e-13 1.46665e-13 8.52834e-20 5.81485e-07 1.78856e-05 1.18632e-26 0
16.623 1.68553e-13 1.68553e-13 7.79777e-20 4.6263e-07 1.54601e-05 1.28383e-25 0
17.4762 1.8587e-13 1.8587e-13 7.61911e-20 4.09915e-07 1.35189e-05 1.18034e-24 0
18.3733 1.9186e-13 1.9186e-13 7.5174e-20 3.91816e-07 1.20422e-05 9.04786e-24 0
19.3164 1.82941e-13 1.82941e-13 7.10719e-20 3.88496e-07 1.10537e-05 5.73858e-23 0
20.3079 1.63476e-13 1.63476e-13 6.26331e-20 3.83132e-07 1.0489e-05 3.07187e-22 0
21.3503 1.46018e-13 1.46018e-13 5.31338e-20 3.63885e-07 9.93811e-06 1.48777e-21 0
22.4463 1.30594e-13 1.30594e-13 4.47526e-20 3.42685e-07 9.41197e-06 6.5628e-21 0
23.5984 1.17076e-13 1.17076e-13 3.72288e-20 3.17989e-07 8.89755e-06 2.65166e-20 0
24.8097 1.05364e-13 1.05364e-13 3.10026e-20 2.94242e-07 8.39103e-06 9.87197e-20 0
26.0832 9.46394e-14 9.46394e-14 2.56102e-20 2.70608e-07 7.91792e-06 3.38081e-19 0
27.4221 8.48777e-14 8.48777e-14 2.11543e-20 2.49233e-07 7.47854e-06 1.0698e-18 0
28.8297 7.64213e-14 7.64213e-14 1.74701e-20 2.28603e-07 7.0417e-06 3.15672e-18 0
30.3095 6.87769e-14 6.87769e-14 1.44199e-20 2.09662e-07 6.62877e-06 8.67971e-18 0
31.8653 6.20383e-14 6.20383e-14 1.18544e-20 1.91082e-07 6.21986e-06 2.23756e-17 0
33.5009 5.58616e-14 5.58616e-14 9.7613e-21 1.74741e-07 5.84125e-06 5.40386e-17 0
35.2206 5.07448e-14 5.07448e-14 8.01996e-21 1.58045e-07 5.44645e-06 1.23947e-16 0
37.0284 4.60163e-14 4.60163e-14 6.59137e-21 1.4324e-07 5.0807e-06 2.67952e-16 0
38.9291 4.16349e-14 4.16349e-14 5.42304e-21 1.30252e-07 4.74425e-06 5.47242e-16 0
40.9273 3.758e-14 3.758e-14 4.46731e-21 1.18875e-07 4.43513e-06 1.05848e-15 0
43.0282 3.38993e-14 3.38993e-14 3.67099e-21 1.08291e-07 4.13785e-06 1.9474e-15 0
45.2368 3.05073e-14 3.05073e-14 3.01554e-21 9.88464e-08 3.86006e-06 3.41024e-15 0
47.5588 2.75019e-14 2.75019e-14 2.47426e-21 8.99668e-08 3.58969e-06 5.72058e-15 0
50 2.47101e-14 2.47101e-14 2.03148e-21 8.22128e-08 3.34026e-06 9.16578e-15 0
52.5665 2.22272e-14 2.22272e-14 1.66573e-21 7.49408e-08 3.09897e-06 1.41199e-14 0
55.2648 1.99796e-14 1.99796e-14 1.36493e-21 6.83163e-08 2.87045e-06 2.09153e-14 0
58.1015 1.79507e-14 1.79507e-14 1.11892e-21 6.23328e-08 2.655e-06 2.98535e-14 0
61.0839 1.6129e-14 1.6129e-14 9.16542e-22 5.68256e-08 2.45043e-06 4.11559e-14 0
64.2193 1.44825e-14 1.44825e-14 7.50435e-22 5.18167e-08 2.25808e-06 5.48527e-14 0
67.5157 1.30105e-14 1.30105e-14 6.14322e-22 4.72176e-08 2.07685e-06 7.08753e-14 0
70.9813 1.16887e-14 1.16887e-14 5.02982e-22 4.30313e-08 1.90737e-06 8.88802e-14 0
74.6248 1.05084e-14 1.05084e-14 4.11586e-22 3.91674e-08 1.74821e-06 1.08401e-13 0
78.4553 9.44438e-15 9.44438e-15 3.36732e-22 3.56542e-08 1.60053e-06 1.28634e-13 0
82.4824 8.49122e-15 8.49122e-15 2.75595e-22 3.24565e-08 1.46375e-06 1.48814e-13 0
86.7162 7.63998e-15 7.63998e-15 2.25522e-22 2.95187e-08 1.33687e-06 1.68117e-13 0
91.1674 6.87518e-15 6.87518e-15 1.84501e-22 2.68358e-08 1.21949e-06 1.85577e-13 0
95.847 6.18734e-15 6.18734e-15 1.50913e-22 2.43906e-08 1.11174e-06 2.00371e-13 0
100.767 5.57255e-15 5.57255e-15 1.23516e-22 2.21651e-08 1.01244e-06 2.11996e-13 0
105.939 5.02846e-15 5.02846e-15 1.01054e-22 2.00964e-08 9.21154e-07 2.20268e-13 0
111.377 4.52906e-15 4.52906e-15 8.26619e-23 1.82514e-08 8.37684e-07 2.2413e-13 0
117.094 4.07875e-15 4.07875e-15 6.7636e-23 1.65825e-08 7.61666e-07 2.23945e-13 0
123.105 3.6778e-15 3.6778e-15 5.53532e-23 1.50506e-08 6.92056e-07 2.20225e-13 0
129.424 3.32194e-15 3.32194e-15 4.52952e-23 1.36352e-08 6.28185e-07 2.13429e-13 0
136.067 2.99245e-15 2.99245e-15 3.70573e-23 1.23836e-08 5.70711e-07 2.03119e-13 0
143.051 2.70646e-15 2.70646e-15 3.03272e-23 1.12055e-08 5.17643e-07 1.91257e-13 0
150.394 2.43792e-15 2.43792e-15 2.48204e-23 1.0181e-08 4.69872e-07 1.76884e-13 0
158.114 2.21109e-15 2.21109e-15 2.03082e-23 9.18472e-09 4.26122e-07 1.62556e-13 0
166.23 1.99673e-15 1.99673e-15 1.66135e-23 8.32033e-09 3.86119e-07 1.46903e-13 0
174.763 1.79433e-15 1.79433e-15 1.36006e-23 7.5798e-09 3.50305e-07 1.30558e-13 0
183.733 1.62599e-15 1.62599e-15 1.11317e-23 6.84613e-09 3.17094e-07 1.15708e-13 0
193.164 1.46757e-15 1.46757e-15 9.10882e-24 6.20674e-09 2.88114e-07 1.01068e-13 0
203.079 1.32245e-15 1.32245e-15 7.45504e-24 5.63732e-09 2.60877e-07 8.72658e-14 0
213.503 1.19666e-15 1.19666e-15 6.10393e-24 5.10079e-09 2.3565e-07 7.49574e-14 0
224.463 1.07755e-15 1.07755e-15 4.99653e-24 4.63693e-09 2.13344e-07 6.35063e-14 0
235.984 9.73657e-16 9.73657e-16 4.08908e-24 4.19971e-09 1.94306e-07 5.35433e-14 0
248.097 8.76095e-16 8.76095e-16 3.34929e-24 3.82298e-09 1.75402e-07 4.46031e-14 0
260.832 7.79647e-16 7.79647e-16 2.74206e-24 3.51705e-09 1.58132e-07 3.64775e-14 0
274.221 6.92713e-16 6.92713e-16 2.24362e-24 3.23888e-09 1.45402e-07 2.9579e-14 0
288.297 6.18573e-16 6.18573e-16 1.83497e-24 2.96646e-09 1.30291e-07 2.39493e-14 0
303.095 5.51332e-16 5.51332e-16 1.50165e-24 2.72368e-09 1.1693e-07 1.92368e-14 0
318.653 4.96378e-16 4.96378e-16 1.22856e-24 2.47504e-09 1.06719e-07 1.55186e-14 0
335.009 4.44018e-16 4.44018e-16 1.00484e-24 2.26306e-09 9.4816e-08 1.23715e-14 0
352.206 3.96068e-16 3.96068e-16 8.22015e-25 2.07544e-09 8.76859e-08 9.78534e-15 0
370.284 3.57974e-16 3.57974e-16 6.72684e-25 1.87914e-09 7.7022e-08 7.80517e-15 0
389.291 3.21733e-16 3.21733e-16 5.50324e-25 1.7105e-09 7.26632e-08 6.16337e-15 0
409.273 2.90229e-16 2.90229e-16 4.50108e-25 1.55087e-09 5.99202e-08 4.86458e-15 0
430.282 2.62939e-16 2.62939e-16 3.68329e-25 1.40082e-09 5.87002e-08 3.84095e-15 0
452.368 2.37558e-16 2.37558e-16 3.01393e-25 1.26871e-09 5.36617e-08 3.0133e-15 0
475.588 2.16326e-16 2.16326e-16 2.46588e-25 1.13989e-09 4.45886e-08 2.37451e-15 0
500 1.96136e-16 1.96136e-16 2.01716e-25 1.02845e-09 4.48901e-08 1.85702e-15 0
525.665 1.79201e-16 1.79201e-16 1.65131e-25 9.21482e-10 4.60429e-08 1.45908e-15 0
552.648 1.63367e-16 1.63367e-16 1.35143e-25 8.27236e-10 3.31589e-08 1.14064e-15 0
581.015 1.49638e-16 1.49638e-16 1.10573e-25 7.38936e-10 3.37515e-08 8.93541e-16 0
610.838 1.36936e-16 1.36936e-16 9.04935e-26 6.60847e-10 2.30042e-08 6.9758e-16 0
642.193 1.25681e-16 1.25681e-16 7.40866e-26 5.89481e-10 3.52794e-08 5.4492e-16 0
675.157 1.15554e-16 1.15554e-16 6.06381e-26 5.24759e-10 1.64324e-08 4.25477e-16 0
709.813 1.0644e-16 1.0644e-16 4.96184e-26 4.66164e-10 2.75689e-08 3.32143e-16 0
746.247 9.81299e-17 9.81299e-17 4.06226e-26 4.13968e-10 3.60022e-08 2.59006e-16 0
784.553 9.05746e-17 9.05746e-17 3.32549e-26 3.67155e-10 5.81639e-09 2.0184e-16 0
824.824 8.3665e-17 8.3665e-17 2.72185e-26 3.25327e-10 3.65563e-09 1.57142e-16 0
867.162 7.72048e-17 7.72048e-17 2.22761e-26 2.88533e-10 2.20172e-08 1.22022e-16 0
911.674 7.11639e-17 7.11639e-17 1.82422e-26 2.56341e-10 6.50673e-09 9.45022e-17 0
958.471 6.56788e-17 6.56788e-17 1.49363e-26 2.27415e-10 1.45222e-08 7.31766e-17 0
1007.67 6.05285e-17 6.05285e-17 1.22261e-26 2.01989e-10 2.38451e-08 5.65054e-17 0
1059.39 5.59931e-17 5.59931e-17 1.00091e-26 1.78755e-10 -9.9935e-09 4.37418e-17 0
1113.77 5.16817e-17 5.16817e-17 8.19585e-27 1.58583e-10 4.88629e-09 3.37453e-17 0
1170.94 4.75792e-17 4.75792e-17 6.70916e-27 1.41011e-10 1.42093e-08 2.59369e-17 0
1231.05 4.379e-17 4.379e-17 5.49168e-27 1.25409e-10 3.16923e-08 1.99087e-17 0
1294.24 4.05032e-17 4.05032e-17 4.49736e-27 1.11037e-10 -1.37964e-09 1.53423e-17 0
1360.67 3.74117e-17 3.74117e-17 3.68245e-27 9.84304e-11 -7.95874e-09 1.17959e-17 0
1430.51 3.44708e-17 3.44708e-17 3.01446e-27 8.74497e-11 -1.96786e-08 9.03878e-18 0
1503.94 3.16972e-17 3.16972e-17 2.46745e-27 7.78446e-11 -1.39871e-09 6.90641e-18 0
1581.14 2.93917e-17 2.93917e-17 2.02071e-27 6.87511e-11 -1.24271e-08 5.31724e-18 0
1662.3 2.72014e-17 2.72014e-17 1.6544e-27 6.08202e-11 7.14327e-08 4.08279e-18 0
1747.63 2.51175e-17 2.51175e-17 1.35412e-27 5.39113e-11 -1.66788e-08 3.12564e-18 0
1837.33 2.31371e-17 2.31371e-17 1.10864e-27 4.7916e-11 1.44069e-08 2.38549e-18 0
1931.64 2.12551e-17 2.12551e-17 9.07861e-28 4.27126e-11 -2.76645e-08 1.81454e-18 0
2030.79 1.95423e-17 1.95423e-17 7.43216e-28 3.80312e-11 -5.32148e-09 1.38056e-18 0
2135.03 1.80862e-17 1.80862e-17 6.08231e-28 3.36295e-11 -4.71374e-10 1.0567e-18 0
2244.63 1.67034e-17 1.67034e-17 4.98058e-28 2.98178e-11 -6.31131e-08 8.06695e-19 0
2359.84 1.53879e-17 1.53879e-17 4.07786e-28 2.65004e-11 5.73359e-09 6.13994e-19 0
2480.97 1.4143e-17 1.4143e-17 3.33786e-28 2.36008e-11 -1.19878e-08 4.6601e-19 0
2608.32 1.30832e-17 1.30832e-17 2.73217e-28 2.0883e-11 2.62422e-08 3.55833e-19 0
2742.21 1.20817e-17 1.20817e-17 2.23755e-28 1.85202e-11 -1.39524e-07 2.71112e-19 0
2882.96 1.11289e-17 1.11289e-17 1.83201e-28 1.64617e-11 -1.30288e-07 2.05963e-19 0
3030.95 1.0247e-17 1.0247e-17 1.49954e-28 1.46339e-11 4.82718e-08 1.56343e-19 0
3186.53 9.50093e-18 9.50093e-18 1.22764e-28 1.29212e-11 8.63698e-08 1.19464e-19 0
3350.09 8.79168e-18 8.79168e-18 1.00523e-28 1.14338e-11 -3.61936e-08 9.10714e-20 0
3522.05 8.11687e-18 8.11687e-18 8.22894e-29 1.01381e-11 -3.37484e-07 6.92465e-20 0
3702.84 7.47482e-18 7.47482e-18 6.73455e-29 9.00965e-12 -2.06532e-08 5.25016e-20 0
3892.91 6.86506e-18 6.86506e-18 5.51491e-29 8.0333e-12 -1.70504e-07 3.96875e-20 0
4092.73 6.32329e-18 6.32329e-18 4.51537e-29 7.14086e-12 1.43168e-07 3.00794e-20 0
4302.81 5.85161e-18 5.85161e-18 3.69591e-29 6.31606e-12 -3.14547e-08 2.28983e-20 0
4523.68 5.40302e-18 5.40302e-18 3.02503e-29 5.59878e-12 1.8547e-07 1.73882e-20 0
4755.88 4.97687e-18 4.97687e-18 2.47719e-29 4.9774e-12 2.35545e-07 1.31694e-20 0
5000 4.5746e-18 4.5746e-18 2.02802e-29 4.43322e-12 4.48687e-07 9.95077e-21 0
