# 0.000169365 1 81 : grain size, compostion index, size index
# Heating and cooling timescale: 0.000105622 3.92623e+07
# Ratio of heating to cooling to determine stochastic cutoff: 100
# Equilibrium emission is recorded even for those grains in the stochastic regime.
# Emission spectrum was computed for: 
# Type: IRSF
# Scales: 0.25 0.5 1 1.5 2 2.5 3 3.5 4 4.5 5 5.5 6 6.5 7 7.5 8 8.5 9 9.5 10
# StochasticallyHeated: 0 0 0 0 0 0 0 0 0 0 0 0 0 0 0 0 0 0 0 0 0
# Temperature: -1
# Wavelength  CExt  CAbs  CSca  Albedo G EqEm1 StEm1 EqEm2 StEm2 EqEm3 StEm3 EqEm4 StEm4 EqEm5 StEm5 EqEm6 StEm6 EqEm7 StEm7 EqEm8 StEm8 EqEm9 StEm9 EqEm10 StEm10 EqEm11 StEm11 EqEm12 StEm12 EqEm13 StEm13 EqEm14 StEm14 EqEm15 StEm15 EqEm16 StEm16 EqEm17 StEm17 EqEm18 StEm18 EqEm19 StEm19 EqEm20 StEm20 EqEm21 StEm21
0.05 1.84269e-07 6.45246e-08 1.19745e-07 0.649835 0.857097 0 0 0 0 0 0 0 0 0 0 0 0 0 0 0 0 0 0 0 0 0 0 0 0 0 0 0 0 0 0 0 0 0 0 0 0 0 0 0 0 0 0
0.0525665 1.84535e-07 6.36126e-08 1.20922e-07 0.655281 0.844955 0 0 0 0 0 0 0 0 0 0 0 0 0 0 0 0 0 0 0 0 0 0 0 0 0 0 0 0 0 0 0 0 0 0 0 0 0 0 0 0 0 0
0.0552647 1.84811e-07 6.29682e-08 1.21843e-07 0.659283 0.834887 0 0 0 0 0 0 0 0 0 0 0 0 0 0 0 0 0 0 0 0 0 0 0 0 0 0 0 0 0 0 0 0 0 0 0 0 0 0 0 0 0 0
0.0581015 1.85074e-07 6.27524e-08 1.22322e-07 0.660934 0.82873 0 0 0 0 0 0 0 0 0 0 0 0 0 0 0 0 0 0 0 0 0 0 0 0 0 0 0 0 0 0 0 0 0 0 0 0 0 0 0 0 0 0
0.0610839 1.85338e-07 6.19748e-08 1.23363e-07 0.665611 0.820273 0 0 0 0 0 0 0 0 0 0 0 0 0 0 0 0 0 0 0 0 0 0 0 0 0 0 0 0 0 0 0 0 0 0 0 0 0 0 0 0 0 0
0.0642193 1.85685e-07 5.98907e-08 1.25794e-07 0.67746 0.802613 0 0 0 0 0 0 0 0 0 0 0 0 0 0 0 0 0 0 0 0 0 0 0 0 0 0 0 0 0 0 0 0 0 0 0 0 0 0 0 0 0 0
0.0675157 1.86144e-07 5.79144e-08 1.28229e-07 0.688872 0.783335 0 0 0 0 0 0 0 0 0 0 0 0 0 0 0 0 0 0 0 0 0 0 0 0 0 0 0 0 0 0 0 0 0 0 0 0 0 0 0 0 0 0
0.0709813 1.86641e-07 5.80029e-08 1.28638e-07 0.689228 0.776529 0 0 0 0 0 0 0 0 0 0 0 0 0 0 0 0 0 0 0 0 0 0 0 0 0 0 0 0 0 0 0 0 0 0 0 0 0 0 0 0 0 0
0.0746248 1.87112e-07 5.92043e-08 1.27907e-07 0.683589 0.777933 0 0 0 0 0 0 0 0 0 0 0 0 0 0 0 0 0 0 0 0 0 0 0 0 0 0 0 0 0 0 0 0 0 0 0 0 0 0 0 0 0 0
0.0784553 1.87541e-07 6.07424e-08 1.26799e-07 0.676112 0.782765 0 0 0 0 0 0 0 0 0 0 0 0 0 0 0 0 0 0 0 0 0 0 0 0 0 0 0 0 0 0 0 0 0 0 0 0 0 0 0 0 0 0
0.0824824 1.87952e-07 6.24657e-08 1.25486e-07 0.66765 0.788495 0 0 0 0 0 0 0 0 0 0 0 0 0 0 0 0 0 0 0 0 0 0 0 0 0 0 0 0 0 0 0 0 0 0 0 0 0 0 0 0 0 0
0.0867162 1.88355e-07 6.3095e-08 1.2526e-07 0.665022 0.787436 0 0 0 0 0 0 0 0 0 0 0 0 0 0 0 0 0 0 0 0 0 0 0 0 0 0 0 0 0 0 0 0 0 0 0 0 0 0 0 0 0 0
0.0911674 1.88815e-07 6.31574e-08 1.25657e-07 0.665506 0.78248 0 0 0 0 0 0 0 0 0 0 0 0 0 0 0 0 0 0 0 0 0 0 0 0 0 0 0 0 0 0 0 0 0 0 0 0 0 0 0 0 0 0
0.095847 1.89255e-07 6.3808e-08 1.25447e-07 0.662846 0.780734 0 0 0 0 0 0 0 0 0 0 0 0 0 0 0 0 0 0 0 0 0 0 0 0 0 0 0 0 0 0 0 0 0 0 0 0 0 0 0 0 0 0
0.100767 1.89466e-07 6.6278e-08 1.23188e-07 0.650186 0.791595 0 0 0 0 0 0 0 0 0 0 0 0 0 0 0 0 0 0 0 0 0 0 0 0 0 0 0 0 0 0 0 0 0 0 0 0 0 0 0 0 0 0
0.105939 1.89563e-07 6.86424e-08 1.20921e-07 0.637892 0.805572 0 0 0 0 0 0 0 0 0 0 0 0 0 0 0 0 0 0 0 0 0 0 0 0 0 0 0 0 0 0 0 0 0 0 0 0 0 0 0 0 0 0
0.111377 1.89305e-07 7.26096e-08 1.16695e-07 0.616441 0.832196 0 0 0 0 0 0 0 0 0 0 0 0 0 0 0 0 0 0 0 0 0 0 0 0 0 0 0 0 0 0 0 0 0 0 0 0 0 0 0 0 0 0
0.117094 1.89203e-07 7.66595e-08 1.12544e-07 0.594831 0.86338 0 0 0 0 0 0 0 0 0 0 0 0 0 0 0 0 0 0 0 0 0 0 0 0 0 0 0 0 0 0 0 0 0 0 0 0 0 0 0 0 0 0
0.123105 1.89311e-07 7.93883e-08 1.09923e-07 0.580647 0.885252 0 0 0 0 0 0 0 0 0 0 0 0 0 0 0 0 0 0 0 0 0 0 0 0 0 0 0 0 0 0 0 0 0 0 0 0 0 0 0 0 0 0
0.129424 1.89494e-07 8.17898e-08 1.07705e-07 0.568379 0.904559 0 0 0 0 0 0 0 0 0 0 0 0 0 0 0 0 0 0 0 0 0 0 0 0 0 0 0 0 0 0 0 0 0 0 0 0 0 0 0 0 0 0
0.136067 1.89665e-07 8.37794e-08 1.05885e-07 0.558276 0.920206 0 0 0 0 0 0 0 0 0 0 0 0 0 0 0 0 0 0 0 0 0 0 0 0 0 0 0 0 0 0 0 0 0 0 0 0 0 0 0 0 0 0
0.143051 1.89705e-07 8.53353e-08 1.0437e-07 0.550168 0.932389 0 0 0 0 0 0 0 0 0 0 0 0 0 0 0 0 0 0 0 0 0 0 0 0 0 0 0 0 0 0 0 0 0 0 0 0 0 0 0 0 0 0
0.150394 1.89487e-07 8.61211e-08 1.03366e-07 0.545505 0.940193 0 0 0 0 0 0 0 0 0 0 0 0 0 0 0 0 0 0 0 0 0 0 0 0 0 0 0 0 0 0 0 0 0 0 0 0 0 0 0 0 0 0
0.158114 1.89203e-07 8.56265e-08 1.03577e-07 0.547437 0.940915 0 0 0 0 0 0 0 0 0 0 0 0 0 0 0 0 0 0 0 0 0 0 0 0 0 0 0 0 0 0 0 0 0 0 0 0 0 0 0 0 0 0
0.16623 1.8931e-07 8.34061e-08 1.05904e-07 0.55942 0.930373 0 0 0 0 0 0 0 0 0 0 0 0 0 0 0 0 0 0 0 0 0 0 0 0 0 0 0 0 0 0 0 0 0 0 0 0 0 0 0 0 0 0
0.174762 1.90037e-07 7.95266e-08 1.1051e-07 0.58152 0.904961 0 0 0 0 0 0 0 0 0 0 0 0 0 0 0 0 0 0 0 0 0 0 0 0 0 0 0 0 0 0 0 0 0 0 0 0 0 0 0 0 0 0
0.183733 1.91027e-07 7.48889e-08 1.16138e-07 0.607967 0.87095 0 0 0 0 0 0 0 0 0 0 0 0 0 0 0 0 0 0 0 0 0 0 0 0 0 0 0 0 0 0 0 0 0 0 0 0 0 0 0 0 0 0
0.193164 1.92171e-07 7.0239e-08 1.21932e-07 0.634497 0.836162 0 0 0 0 0 0 0 0 0 0 0 0 0 0 0 0 0 0 0 0 0 0 0 0 0 0 0 0 0 0 0 0 0 0 0 0 0 0 0 0 0 0
0.203079 1.93435e-07 6.63772e-08 1.27058e-07 0.656851 0.807628 0 0 0 0 0 0 0 0 0 0 0 0 0 0 0 0 0 0 0 0 0 0 0 0 0 0 0 0 0 0 0 0 0 0 0 0 0 0 0 0 0 0
0.213503 1.94872e-07 6.32501e-08 1.31622e-07 0.675428 0.784695 0 0 0 0 0 0 0 0 0 0 0 0 0 0 0 0 0 0 0 0 0 0 0 0 0 0 0 0 0 0 0 0 0 0 0 0 0 0 0 0 0 0
0.224463 1.96634e-07 6.16769e-08 1.34957e-07 0.686336 0.76923 0 0 0 0 0 0 0 0 0 0 0 0 0 0 0 0 0 0 0 0 0 0 0 0 0 0 0 0 0 0 0 0 0 0 0 0 0 0 0 0 0 0
0.235984 1.98497e-07 6.1373e-08 1.37124e-07 0.690811 0.759052 0 0 0 0 0 0 0 0 0 0 0 0 0 0 0 0 0 0 0 0 0 0 0 0 0 0 0 0 0 0 0 0 0 0 0 0 0 0 0 0 0 0
0.248097 1.99841e-07 6.26483e-08 1.37193e-07 0.68651 0.75557 0 0 0 0 0 0 0 0 0 0 0 0 0 0 0 0 0 0 0 0 0 0 0 0 0 0 0 0 0 0 0 0 0 0 0 0 0 0 0 0 0 0
0.260832 2.002e-07 6.45181e-08 1.35682e-07 0.677731 0.756777 0 0 0 0 0 0 0 0 0 0 0 0 0 0 0 0 0 0 0 0 0 0 0 0 0 0 0 0 0 0 0 0 0 0 0 0 0 0 0 0 0 0
0.274221 2.00006e-07 6.63468e-08 1.33659e-07 0.668275 0.759534 0 0 0 0 0 0 0 0 0 0 0 0 0 0 0 0 0 0 0 0 0 0 0 0 0 0 0 0 0 0 0 0 0 0 0 0 0 0 0 0 0 0
0.288297 1.99703e-07 6.85938e-08 1.31109e-07 0.656521 0.767402 0 0 0 0 0 0 0 0 0 0 0 0 0 0 0 0 0 0 0 0 0 0 0 0 0 0 0 0 0 0 0 0 0 0 0 0 0 0 0 0 0 0
0.303095 1.99708e-07 7.02408e-08 1.29467e-07 0.648283 0.773538 0 0 0 0 0 0 0 0 0 0 0 0 0 0 0 0 0 0 0 0 0 0 0 0 0 0 0 0 0 0 0 0 0 0 0 0 0 0 0 0 0 0
0.318653 1.9983e-07 7.16482e-08 1.28182e-07 0.641455 0.778977 0 0 0 0 0 0 0 0 0 0 0 0 0 0 0 0 0 0 0 0 0 0 0 0 0 0 0 0 0 0 0 0 0 0 0 0 0 0 0 0 0 0
0.335009 2.00093e-07 7.28585e-08 1.27235e-07 0.635877 0.783692 0 0 0 0 0 0 0 0 0 0 0 0 0 0 0 0 0 0 0 0 0 0 0 0 0 0 0 0 0 0 0 0 0 0 0 0 0 0 0 0 0 0
0.352205 2.00481e-07 7.382e-08 1.26661e-07 0.631785 0.786959 0 0 0 0 0 0 0 0 0 0 0 0 0 0 0 0 0 0 0 0 0 0 0 0 0 0 0 0 0 0 0 0 0 0 0 0 0 0 0 0 0 0
0.370284 2.00943e-07 7.45804e-08 1.26363e-07 0.628849 0.78885 0 0 0 0 0 0 0 0 0 0 0 0 0 0 0 0 0 0 0 0 0 0 0 0 0 0 0 0 0 0 0 0 0 0 0 0 0 0 0 0 0 0
0.389291 2.01448e-07 7.51533e-08 1.26295e-07 0.626935 0.78934 0 0 0 0 0 0 0 0 0 0 0 0 0 0 0 0 0 0 0 0 0 0 0 0 0 0 0 0 0 0 0 0 0 0 0 0 0 0 0 0 0 0
0.409273 2.01974e-07 7.56772e-08 1.26297e-07 0.625312 0.78946 0 0 0 0 0 0 0 0 0 0 0 0 0 0 0 0 0 0 0 0 0 0 0 0 0 0 0 0 0 0 0 0 0 0 0 0 0 0 0 0 0 0
0.430281 2.02511e-07 7.61811e-08 1.2633e-07 0.623818 0.789397 0 0 0 0 0 0 0 0 0 0 0 0 0 0 0 0 0 0 0 0 0 0 0 0 0 0 0 0 0 0 0 0 0 0 0 0 0 0 0 0 0 0
0.452368 2.03091e-07 7.67114e-08 1.2638e-07 0.622281 0.789506 0 0 0 0 0 0 0 0 0 0 0 0 0 0 0 0 0 0 0 0 0 0 0 0 0 0 0 0 0 0 0 0 0 0 0 0 0 0 0 0 0 0
0.475588 2.03699e-07 7.72434e-08 1.26456e-07 0.620796 0.789538 0 0 0 0 0 0 0 0 0 0 0 0 0 0 0 0 0 0 0 0 0 0 0 0 0 0 0 0 0 0 0 0 0 0 0 0 0 0 0 0 0 0
0.5 2.04351e-07 7.77557e-08 1.26595e-07 0.619499 0.789307 0 0 0 0 0 0 0 0 0 0 0 0 0 0 0 0 0 0 0 0 0 0 0 0 0 0 0 0 0 0 0 0 0 0 0 0 0 0 0 0 0 0
0.525665 2.05044e-07 7.82622e-08 1.26782e-07 0.618316 0.788901 0 0 0 0 0 0 0 0 0 0 0 0 0 0 0 0 0 0 0 0 0 0 0 0 0 0 0 0 0 0 0 0 0 0 0 0 0 0 0 0 0 0
0.552648 2.05757e-07 7.87663e-08 1.26991e-07 0.617188 0.788343 0 0 0 0 0 0 0 0 0 0 0 0 0 0 0 0 0 0 0 0 0 0 0 0 0 0 0 0 0 0 0 0 0 0 0 0 0 0 0 0 0 0
0.581015 2.06525e-07 7.91762e-08 1.27349e-07 0.616626 0.787011 0 0 0 0 0 0 0 0 0 0 0 0 0 0 0 0 0 0 0 0 0 0 0 0 0 0 0 0 0 0 0 0 0 0 0 0 0 0 0 0 0 0
0.610839 2.07305e-07 7.95925e-08 1.27712e-07 0.61606 0.785591 0 0 0 0 0 0 0 0 0 0 0 0 0 0 0 0 0 0 0 0 0 0 0 0 0 0 0 0 0 0 0 0 0 0 0 0 0 0 0 0 0 0
0.642193 2.08121e-07 8.00148e-08 1.28106e-07 0.615537 0.784106 0 0 0 0 0 0 0 0 0 0 0 0 0 0 0 0 0 0 0 0 0 0 0 0 0 0 0 0 0 0 0 0 0 0 0 0 0 0 0 0 0 0
0.675157 2.08947e-07 8.03982e-08 1.28549e-07 0.615222 0.782227 0 0 0 0 0 0 0 0 0 0 0 0 0 0 0 0 0 0 0 0 0 0 0 0 0 0 0 0 0 0 0 0 0 0 0 0 0 0 0 0 0 0
0.709813 2.09709e-07 8.07401e-08 1.28969e-07 0.61499 0.779902 0 0 0 0 0 0 0 0 0 0 0 0 0 0 0 0 0 0 0 0 0 0 0 0 0 0 0 0 0 0 0 0 0 0 0 0 0 0 0 0 0 0
0.746248 2.10804e-07 8.1059e-08 1.29745e-07 0.615477 0.777778 0 0 0 0 0 0 0 0 0 0 0 0 0 0 0 0 0 0 0 0 0 0 0 0 0 0 0 0 0 0 0 0 0 0 0 0 0 0 0 0 0 0
0.784553 2.11483e-07 8.13462e-08 1.30137e-07 0.615354 0.774796 0 0 0 0 0 0 0 0 0 0 0 0 0 0 0 0 0 0 0 0 0 0 0 0 0 0 0 0 0 0 0 0 0 0 0 0 0 0 0 0 0 0
0.824824 2.11898e-07 8.15609e-08 1.30337e-07 0.615093 0.770909 0 0 0 0 0 0 0 0 0 0 0 0 0 0 0 0 0 0 0 0 0 0 0 0 0 0 0 0 0 0 0 0 0 0 0 0 0 0 0 0 0 0
0.867162 2.13735e-07 8.16729e-08 1.32063e-07 0.617878 0.768455 0 0 0 0 0 0 0 0 0 0 0 0 0 0 0 0 0 0 0 0 0 0 0 0 0 0 0 0 0 0 0 0 0 0 0 0 0 0 0 0 0 0
0.911674 2.15003e-07 8.16833e-08 1.3332e-07 0.620083 0.765162 0 0 0 0 0 0 0 0 0 0 0 0 0 0 0 0 0 0 0 0 0 0 0 0 0 0 0 0 0 0 0 0 0 0 0 0 0 0 0 0 0 0
0.95847 2.14015e-07 8.16357e-08 1.32379e-07 0.618552 0.758663 0 0 0 0 0 0 0 0 0 0 0 0 0 0 0 0 0 0 0 0 0 0 0 0 0 0 0 0 0 0 0 0 0 0 0 0 0 0 0 0 0 0
1.00767 2.14335e-07 8.14142e-08 1.32921e-07 0.620154 0.751738 0 0 0 0 0 0 0 0 0 0 0 0 0 0 0 0 0 0 0 0 0 0 0 0 0 0 0 0 0 0 0 0 0 0 0 0 0 0 0 0 0 0
1.05939 2.18141e-07 8.11445e-08 1.36996e-07 0.628017 0.748174 0 0 0 0 0 0 0 0 0 0 0 0 0 0 0 0 0 0 0 0 0 0 0 0 0 0 0 0 0 0 0 0 0 0 0 0 0 0 0 0 0 0
1.11377 2.21396e-07 8.06669e-08 1.40729e-07 0.635644 0.744187 0 0 0 0 0 0 0 0 0 0 0 0 0 0 0 0 0 0 0 0 0 0 0 0 0 0 0 0 0 0 0 0 0 0 0 0 0 0 0 0 0 0
1.17094 2.19885e-07 7.9772e-08 1.40113e-07 0.63721 0.734946 0 0 0 0 0 0 0 0 0 0 0 0 0 0 0 0 0 0 0 0 0 0 0 0 0 0 0 0 0 0 0 0 0 0 0 0 0 0 0 0 0 0
1.23105 2.15507e-07 7.8349e-08 1.37158e-07 0.636444 0.716689 0 0 0 0 0 0 0 0 0 0 0 0 0 0 0 0 0 0 0 0 0 0 0 0 0 0 0 0 0 0 0 0 0 0 0 0 0 0 0 0 0 0
1.29424 2.15558e-07 7.84432e-08 1.37115e-07 0.636093 0.711106 0 0 0 0 0 0 0 0 0 0 0 0 0 0 0 0 0 0 0 0 0 0 0 0 0 0 0 0 0 0 0 0 0 0 0 0 0 0 0 0 0 0
1.36067 2.22633e-07 7.86141e-08 1.44019e-07 0.646889 0.712255 0 0 0 0 0 0 0 0 0 0 0 0 0 0 0 0 0 0 0 0 0 0 0 0 0 0 0 0 0 0 0 0 0 0 0 0 0 0 0 0 0 0
1.43051 2.29403e-07 7.66463e-08 1.52757e-07 0.665888 0.715371 0 0 0 0 0 0 0 0 0 0 0 0 0 0 0 0 0 0 0 0 0 0 0 0 0 0 0 0 0 0 0 0 0 0 0 0 0 0 0 0 0 0
1.50394 2.31115e-07 7.58511e-08 1.55264e-07 0.671803 0.707414 0 0 0 0 0 0 0 0 0 0 0 0 0 0 0 0 0 0 0 0 0 0 0 0 0 0 0 0 0 0 0 0 0 0 0 0 0 0 0 0 0 0
1.58114 2.27699e-07 7.51812e-08 1.52518e-07 0.669822 0.683057 0 0 0 0 0 0 0 0 0 0 0 0 0 0 0 0 0 0 0 0 0 0 0 0 0 0 0 0 0 0 0 0 0 0 0 0 0 0 0 0 0 0
1.6623 2.24024e-07 7.41543e-08 1.49869e-07 0.668989 0.66509 0 0 0 0 0 0 0 0 0 0 0 0 0 0 0 0 0 0 0 0 0 0 0 0 0 0 0 0 0 0 0 0 0 0 0 0 0 0 0 0 0 0
1.74763 2.15045e-07 7.19502e-08 1.43095e-07 0.665419 0.625131 0 0 0 0 0 0 0 0 0 0 0 0 0 0 0 0 0 0 0 0 0 0 0 0 0 0 0 0 0 0 0 0 0 0 0 0 0 0 0 0 0 0
1.83733 2.21777e-07 7.30441e-08 1.48733e-07 0.670641 0.616104 0 0 0 0 0 0 0 0 0 0 0 0 0 0 0 0 0 0 0 0 0 0 0 0 0 0 0 0 0 0 0 0 0 0 0 0 0 0 0 0 0 0
1.93164 2.19689e-07 6.92355e-08 1.50453e-07 0.684847 0.6305 0 0 0 0 0 0 0 0 0 0 0 0 0 0 0 0 0 0 0 0 0 0 0 0 0 0 0 0 0 0 0 0 0 0 0 0 0 0 0 0 0 0
2.03079 2.39527e-07 7.16134e-08 1.67913e-07 0.701021 0.637521 0 0 0 0 0 0 0 0 0 0 0 0 0 0 0 0 0 0 0 0 0 0 0 0 0 0 0 0 0 0 0 0 0 0 0 0 0 0 0 0 0 0
2.13503 2.36301e-07 6.72151e-08 1.69086e-07 0.715554 0.652076 0 0 0 0 0 0 0 0 0 0 0 0 0 0 0 0 0 0 0 0 0 0 0 0 0 0 0 0 0 0 0 0 0 0 0 0 0 0 0 0 0 0
2.24463 2.54952e-07 6.97677e-08 1.85184e-07 0.72635 0.665747 0 0 0 0 0 0 0 0 0 0 0 0 0 0 0 0 0 0 0 0 0 0 0 0 0 0 0 0 0 0 0 0 0 0 0 0 0 0 0 0 0 0
2.35984 2.4863e-07 6.93798e-08 1.7925e-07 0.720952 0.637153 0 0 0 0 0 0 0 0 0 0 0 0 0 0 0 0 0 0 0 0 0 0 0 0 0 0 0 0 0 0 0 0 0 0 0 0 0 0 0 0 0 0
2.48097 2.44899e-07 6.52404e-08 1.79658e-07 0.733602 0.654744 0 0 0 0 0 0 0 0 0 0 0 0 0 0 0 0 0 0 0 0 0 0 0 0 0 0 0 0 0 0 0 0 0 0 0 0 0 0 0 0 0 0
2.60832 2.47767e-07 7.10484e-08 1.76718e-07 0.713245 0.62376 0 0 0 0 0 0 0 0 0 0 0 0 0 0 0 0 0 0 0 0 0 0 0 0 0 0 0 0 0 0 0 0 0 0 0 0 0 0 0 0 0 0
2.74221 2.23156e-07 6.40642e-08 1.59092e-07 0.712918 0.581013 0 0 0 0 0 0 0 0 0 0 0 0 0 0 0 0 0 0 0 0 0 0 0 0 0 0 0 0 0 0 0 0 0 0 0 0 0 0 0 0 0 0
2.88297 2.27184e-07 6.80523e-08 1.59132e-07 0.700453 0.560857 0 0 0 0 0 0 0 0 0 0 0 0 0 0 0 0 0 0 0 0 0 0 0 0 0 0 0 0 0 0 0 0 0 0 0 0 0 0 0 0 0 0
3.03095 2.25187e-07 6.81729e-08 1.57014e-07 0.697261 0.507662 0 0 0 0 0 0 0 0 0 0 0 0 0 0 0 0 0 0 0 0 0 0 0 0 0 0 0 0 0 0 0 0 0 0 0 0 0 0 0 0 0 0
3.18653 2.11908e-07 6.43931e-08 1.47515e-07 0.696127 0.446605 0 0 0 0 0 0 0 0 0 0 0 0 0 0 0 0 0 0 0 0 0 0 0 0 0 0 0 0 0 0 0 0 0 0 0 0 0 0 0 0 0 0
3.35009 2.15529e-07 6.44506e-08 1.51078e-07 0.700965 0.44026 0 0 0 0 0 0 0 0 0 0 0 0 0 0 0 0 0 0 0 0 0 0 0 0 0 0 0 0 0 0 0 0 0 0 0 0 0 0 0 0 0 0
3.52205 2.29841e-07 6.68483e-08 1.62993e-07 0.709154 0.394925 0 0 0 0 0 0 0 0 0 0 0 0 0 0 0 0 0 0 0 0 0 0 0 0 0 0 0 0 0 0 0 0 0 0 0 0 0 0 0 0 0 0
3.70284 2.37716e-07 6.34659e-08 1.7425e-07 0.733018 0.434071 0 0 0 0 0 0 0 0 0 0 0 0 0 0 0 0 0 0 0 0 0 0 0 0 0 0 0 0 0 0 0 0 0 0 0 0 0 0 0 0 0 0
3.89291 2.42119e-07 6.24829e-08 1.79636e-07 0.741933 0.462314 0 0 0 0 0 0 0 0 0 0 0 0 0 0 0 0 0 0 0 0 0 0 0 0 0 0 0 0 0 0 0 0 0 0 0 0 0 0 0 0 0 0
4.09273 2.64722e-07 6.51684e-08 1.99554e-07 0.753824 0.471562 0 0 0 0 0 0 0 0 0 0 0 0 0 0 0 0 0 0 0 0 0 0 0 0 0 0 0 0 0 0 0 0 0 0 0 0 0 0 0 0 0 0
4.30281 2.77231e-07 6.5659e-08 2.11572e-07 0.763162 0.425348 0 0 0 0 0 0 0 0 0 0 0 0 0 0 0 0 0 0 0 0 0 0 0 0 0 0 0 0 0 0 0 0 0 0 0 0 0 0 0 0 0 0
4.52368 2.69771e-07 5.86196e-08 2.11152e-07 0.782706 0.427209 0 0 0 0 0 0 0 0 0 0 0 0 0 0 0 0 0 0 0 0 0 0 0 0 0 0 0 0 0 0 0 0 0 0 0 0 0 0 0 0 0 0
4.75588 2.83478e-07 5.79226e-08 2.25556e-07 0.795672 0.439365 0 0 0 0 0 0 0 0 0 0 0 0 0 0 0 0 0 0 0 0 0 0 0 0 0 0 0 0 0 0 0 0 0 0 0 0 0 0 0 0 0 0
5 3.03041e-07 5.9442e-08 2.43598e-07 0.803848 0.453898 0 0 0 0 0 0 0 0 0 0 0 0 0 0 0 0 0 0 0 0 0 0 0 0 0 0 0 0 0 0 0 0 0 0 0 0 0 0 0 0 0 0
5.25665 3.29742e-07 6.29639e-08 2.66779e-07 0.809051 0.458839 0 0 0 0 0 0 0 0 0 0 0 0 0 0 0 0 0 0 0 0 0 0 0 0 0 0 0 0 0 0 0 0 0 0 0 0 0 0 0 0 0 0
5.52648 3.27483e-07 6.38563e-08 2.63626e-07 0.805009 0.438684 0 0 0 0 0 0 0 0 0 0 0 0 0 0 0 0 0 0 0 0 0 0 0 0 0 0 0 0 0 0 0 0 0 0 0 0 0 0 0 0 0 0
5.81015 2.94167e-07 5.8716e-08 2.35451e-07 0.800399 0.406963 0 0 0 0 0 0 0 0 0 0 0 0 0 0 0 0 0 0 0 0 0 0 0 0 0 0 0 0 0 0 0 0 0 0 0 0 0 0 0 0 0 0
6.10839 2.80764e-07 5.54201e-08 2.25343e-07 0.802609 0.376966 0 0 0 0 0 0 0 0 0 0 0 0 0 0 0 0 0 0 0 0 0 0 0 0 0 0 0 0 0 0 0 0 0 0 0 0 0 0 0 0 0 0
6.42193 2.79766e-07 5.3837e-08 2.25929e-07 0.807564 0.346429 0 0 0 0 0 0 0 0 0 0 0 0 0 0 0 0 0 0 0 0 0 0 0 0 0 0 0 0 0 0 0 0 0 0 0 0 0 0 0 0 0 0
6.75157 2.85505e-07 5.32979e-08 2.32207e-07 0.813321 0.317482 0 0 0 0 0 0 0 0 0 0 0 0 0 0 0 0 0 0 0 0 0 0 0 0 0 0 0 0 0 0 0 0 0 0 0 0 0 0 0 0 0 0
7.09813 2.94421e-07 5.38234e-08 2.40598e-07 0.817189 0.294225 0 0 0 0 0 0 0 0 0 0 0 0 0 0 0 0 0 0 0 0 0 0 0 0 0 0 0 0 0 0 0 0 0 0 0 0 0 0 0 0 0 0
7.46248 2.97383e-07 5.49572e-08 2.42425e-07 0.815197 0.278483 0 0 0 0 0 0 0 0 0 0 0 0 0 0 0 0 0 0 0 0 0 0 0 0 0 0 0 0 0 0 0 0 0 0 0 0 0 0 0 0 0 0
7.84553 2.82968e-07 5.51887e-08 2.27779e-07 0.804965 0.263596 0 0 0 0 0 0 0 0 0 0 0 0 0 0 0 0 0 0 0 0 0 0 0 0 0 0 0 0 0 0 0 0 0 0 0 0 0 0 0 0 0 0
8.24824 2.59155e-07 5.41307e-08 2.05024e-07 0.791126 0.238506 0 0 0 0 0 0 0 0 0 0 0 0 0 0 0 0 0 0 0 0 0 0 0 0 0 0 0 0 0 0 0 0 0 0 0 0 0 0 0 0 0 0
8.67162 2.39941e-07 5.30367e-08 1.86905e-07 0.77896 0.201401 0 0 0 0 0 0 0 0 0 0 0 0 0 0 0 0 0 0 0 0 0 0 0 0 0 0 0 0 0 0 1.4013e-45 0 2.8026e-45 0 8.40779e-45 0 2.10195e-44 0 5.04467e-44 0 1.20512e-43 0
9.11674 2.27112e-07 5.24817e-08 1.7463e-07 0.768917 0.159713 0 0 0 0 0 0 0 0 0 0 0 0 0 0 0 0 0 0 0 0 0 0 1.4013e-45 0 2.8026e-45 0 1.4013e-44 0 4.90454e-44 0 1.55544e-43 0 4.55422e-43 0 1.21212e-42 0 3.04782e-42 0 7.26153e-42 0 1.64372e-41 0
9.5847 2.17232e-07 5.23e-08 1.64932e-07 0.759244 0.120154 0 0 0 0 0 0 0 0 0 0 0 0 0 0 0 0 0 0 4.2039e-45 0 2.52234e-44 0 1.28919e-43 0 5.57717e-43 0 2.09074e-42 0 7.00649e-42 0 2.07434e-41 0 5.78106e-41 0 1.46597e-40 0 3.52382e-40 0 8.0485e-40 0 1.75057e-39 0
10.0767 2.07839e-07 5.2171e-08 1.55668e-07 0.748983 0.085399 0 0 0 0 0 0 0 0 0 0 0 0 0 0 8.40779e-45 0 8.82818e-44 0 6.45999e-43 0 3.72745e-42 0 1.72626e-41 0 6.92928e-41 0 2.43414e-40 0 7.69054e-40 0 2.15953e-39 0 5.72467e-39 0 1.38719e-38 0 3.19471e-38 0 7.00841e-38 0 1.4676e-37 0
10.5939 1.97331e-07 5.17838e-08 1.45547e-07 0.737579 0.0552831 0 0 0 0 0 0 0 0 0 0 4.2039e-45 0 8.96831e-44 0 1.28919e-42 0 1.17793e-41 0 7.83228e-41 0 4.14655e-40 0 1.78227e-39 0 6.68447e-39 0 2.20843e-38 0 6.59634e-38 0 1.76122e-37 0 4.45177e-37 0 1.03312e-36 0 2.28432e-36 0 4.82266e-36 0 9.74098e-36 0
11.1377 1.84906e-07 5.10026e-08 1.33904e-07 0.724171 0.0289687 0 0 0 0 0 0 0 0 9.80909e-45 0 5.5071e-43 0 1.17891e-41 0 1.48079e-40 0 1.21409e-39 0 7.35929e-39 0 3.59169e-38 0 1.43769e-37 0 5.0551e-37 0 1.57546e-36 0 4.46091e-36 0 1.1353e-35 0 2.74262e-35 0 6.10851e-35 0 1.29932e-34 0 2.64485e-34 0 5.16189e-34 0
11.7094 1.72775e-07 4.97379e-08 1.23037e-07 0.712123 0.00977345 0 0 0 0 0 0 8.40779e-45 0 1.48257e-42 0 6.43827e-41 0 1.18755e-39 0 1.31828e-38 0 9.75331e-38 0 5.41412e-37 0 2.44555e-36 0 9.14815e-36 0 3.02508e-35 0 8.91887e-35 0 2.40026e-34 0 5.8363e-34 0 1.35049e-33 0 2.89255e-33 0 5.93004e-33 0 1.16593e-32 0 2.20242e-32 0
12.3105 1.56565e-07 4.78633e-08 1.08702e-07 0.694291 -0.0116465 0 0 0 0 0 0 1.16308e-42 0 1.60854e-40 0 5.81196e-39 0 9.29835e-38 0 9.17744e-37 0 6.15788e-36 0 3.14386e-35 0 1.31929e-34 0 4.62724e-34 0 1.44333e-33 0 4.03658e-33 0 1.03507e-32 0 2.40995e-32 0 5.35271e-32 0 1.10462e-31 0 2.18659e-31 0 4.15954e-31 0 7.61708e-31 0
12.9424 1.40526e-07 4.55537e-08 9.49722e-08 0.675834 -0.0292425 0 0 0 0 9.10844e-44 0 1.24567e-40 0 1.35412e-38 0 4.10665e-37 0 5.73829e-36 0 5.06467e-35 0 3.09669e-34 0 1.46003e-33 0 5.7125e-33 0 1.88452e-32 0 5.56062e-32 0 1.47898e-31 0 3.62203e-31 0 8.09228e-31 0 1.72868e-30 0 3.44343e-30 0 6.59277e-30 0 1.21537e-29 0 2.16085e-29 0
13.6067 1.24618e-07 4.30462e-08 8.15715e-08 0.654574 -0.0448069 0 0 0 0 1.08755e-41 0 1.03893e-38 0 8.98295e-37 0 2.30622e-35 0 2.8332e-34 0 2.24838e-33 0 1.25841e-32 0 5.50054e-32 0 2.01347e-31 0 6.26627e-31 0 1.75384e-30 0 4.44719e-30 0 1.04252e-29 0 2.23953e-29 0 4.61006e-29 0 8.87915e-29 0 1.64693e-28 0 2.94678e-28 0 5.09402e-28 0
14.3051 1.09517e-07 4.05198e-08 6.89971e-08 0.630013 -0.0586627 0 0 2.8026e-45 0 1.00261e-39 0 6.85139e-37 0 4.76485e-35 0 1.04403e-33 0 1.13476e-32 0 8.13906e-32 0 4.18803e-31 0 1.7034e-30 0 5.85249e-30 0 1.72319e-29 0 4.58657e-29 0 1.11136e-28 0 2.49913e-28 0 5.17188e-28 0 1.02775e-27 0 1.91715e-27 0 3.45032e-27 0 6.00062e-27 0 1.00996e-26 0
15.0394 9.57126e-08 3.80897e-08 5.76229e-08 0.602041 -0.0709821 0 0 4.09179e-43 0 7.2899e-38 0 3.62218e-35 0 2.04783e-33 0 3.85924e-32 0 3.73336e-31 0 2.43217e-30 0 1.1553e-29 0 4.38785e-29 0 1.4194e-28 0 3.9646e-28 0 1.006e-27 0 2.33453e-27 0 5.04602e-27 0 1.00783e-26 0 1.93672e-26 0 3.5044e-26 0 6.12854e-26 0 1.03743e-25 0 1.70226e-25 0
15.8114 8.3519e-08 3.58712e-08 4.76478e-08 0.570502 -0.0818811 0 0 4.29176e-41 0 4.24231e-36 0 1.55672e-33 0 7.22732e-32 0 1.18012e-30 0 1.02189e-29 0 6.07517e-29 0 2.67436e-28 0 9.51657e-28 0 2.90698e-27 0 7.72245e-27 0 1.87244e-26 0 4.17023e-26 0 8.68092e-26 0 1.67624e-25 0 3.12008e-25 0 5.4845e-25 0 9.33317e-25 0 1.53982e-24 0 2.46625e-24 0
