# 3.91758e-05 1 67 : grain size, compostion index, size index
# Heating and cooling timescale: 0.0017305 1.54626e+06
# Ratio of heating to cooling to determine stochastic cutoff: 100
# Equilibrium emission is recorded even for those grains in the stochastic regime.
# Emission spectrum was computed for: 
# Type: IRSF
# Scales: 0.25 0.5 1 1.5 2 2.5 3 3.5 4 4.5 5 5.5 6 6.5 7 7.5 8 8.5 9 9.5 10
# StochasticallyHeated: 0 0 0 0 0 0 0 0 0 0 0 0 0 0 0 0 0 0 0 0 0
# Temperature: -1
# Wavelength  CExt  CAbs  CSca  Albedo G EqEm1 StEm1 EqEm2 StEm2 EqEm3 StEm3 EqEm4 StEm4 EqEm5 StEm5 EqEm6 StEm6 EqEm7 StEm7 EqEm8 StEm8 EqEm9 StEm9 EqEm10 StEm10 EqEm11 StEm11 EqEm12 StEm12 EqEm13 StEm13 EqEm14 StEm14 EqEm15 StEm15 EqEm16 StEm16 EqEm17 StEm17 EqEm18 StEm18 EqEm19 StEm19 EqEm20 StEm20 EqEm21 StEm21
0.05 1.01136e-08 3.54746e-09 6.56615e-09 0.649239 0.858217 0 0 0 0 0 0 0 0 0 0 0 0 0 0 0 0 0 0 0 0 0 0 0 0 0 0 0 0 0 0 0 0 0 0 0 0 0 0 0 0 0 0
0.0525665 1.01592e-08 3.51977e-09 6.63941e-09 0.653538 0.84633 0 0 0 0 0 0 0 0 0 0 0 0 0 0 0 0 0 0 0 0 0 0 0 0 0 0 0 0 0 0 0 0 0 0 0 0 0 0 0 0 0 0
0.0552647 1.02071e-08 3.50844e-09 6.69863e-09 0.656273 0.836461 0 0 0 0 0 0 0 0 0 0 0 0 0 0 0 0 0 0 0 0 0 0 0 0 0 0 0 0 0 0 0 0 0 0 0 0 0 0 0 0 0 0
0.0581015 1.02512e-08 3.51928e-09 6.73187e-09 0.656694 0.830378 0 0 0 0 0 0 0 0 0 0 0 0 0 0 0 0 0 0 0 0 0 0 0 0 0 0 0 0 0 0 0 0 0 0 0 0 0 0 0 0 0 0
0.0610839 1.02952e-08 3.49462e-09 6.80056e-09 0.660558 0.822103 0 0 0 0 0 0 0 0 0 0 0 0 0 0 0 0 0 0 0 0 0 0 0 0 0 0 0 0 0 0 0 0 0 0 0 0 0 0 0 0 0 0
0.0642193 1.03591e-08 3.40229e-09 6.95678e-09 0.671564 0.80505 0 0 0 0 0 0 0 0 0 0 0 0 0 0 0 0 0 0 0 0 0 0 0 0 0 0 0 0 0 0 0 0 0 0 0 0 0 0 0 0 0 0
0.0675157 1.04495e-08 3.33142e-09 7.11809e-09 0.681189 0.786566 0 0 0 0 0 0 0 0 0 0 0 0 0 0 0 0 0 0 0 0 0 0 0 0 0 0 0 0 0 0 0 0 0 0 0 0 0 0 0 0 0 0
0.0709813 1.05481e-08 3.3872e-09 7.16093e-09 0.678882 0.780087 0 0 0 0 0 0 0 0 0 0 0 0 0 0 0 0 0 0 0 0 0 0 0 0 0 0 0 0 0 0 0 0 0 0 0 0 0 0 0 0 0 0
0.0746248 1.06376e-08 3.50496e-09 7.1326e-09 0.670511 0.78146 0 0 0 0 0 0 0 0 0 0 0 0 0 0 0 0 0 0 0 0 0 0 0 0 0 0 0 0 0 0 0 0 0 0 0 0 0 0 0 0 0 0
0.0784553 1.07128e-08 3.63586e-09 7.07693e-09 0.660606 0.786045 0 0 0 0 0 0 0 0 0 0 0 0 0 0 0 0 0 0 0 0 0 0 0 0 0 0 0 0 0 0 0 0 0 0 0 0 0 0 0 0 0 0
0.0824824 1.07733e-08 3.76976e-09 7.0035e-09 0.650082 0.791281 0 0 0 0 0 0 0 0 0 0 0 0 0 0 0 0 0 0 0 0 0 0 0 0 0 0 0 0 0 0 0 0 0 0 0 0 0 0 0 0 0 0
0.0867162 1.08287e-08 3.83421e-09 6.99448e-09 0.645921 0.789921 0 0 0 0 0 0 0 0 0 0 0 0 0 0 0 0 0 0 0 0 0 0 0 0 0 0 0 0 0 0 0 0 0 0 0 0 0 0 0 0 0 0
0.0911674 1.08945e-08 3.86975e-09 7.02475e-09 0.644798 0.784914 0 0 0 0 0 0 0 0 0 0 0 0 0 0 0 0 0 0 0 0 0 0 0 0 0 0 0 0 0 0 0 0 0 0 0 0 0 0 0 0 0 0
0.095847 1.09495e-08 3.93473e-09 7.01481e-09 0.640649 0.782844 0 0 0 0 0 0 0 0 0 0 0 0 0 0 0 0 0 0 0 0 0 0 0 0 0 0 0 0 0 0 0 0 0 0 0 0 0 0 0 0 0 0
0.100767 1.09514e-08 4.08229e-09 6.86916e-09 0.627237 0.792333 0 0 0 0 0 0 0 0 0 0 0 0 0 0 0 0 0 0 0 0 0 0 0 0 0 0 0 0 0 0 0 0 0 0 0 0 0 0 0 0 0 0
0.105939 1.09377e-08 4.21468e-09 6.723e-09 0.614664 0.804905 0 0 0 0 0 0 0 0 0 0 0 0 0 0 0 0 0 0 0 0 0 0 0 0 0 0 0 0 0 0 0 0 0 0 0 0 0 0 0 0 0 0
0.111377 1.0868e-08 4.42299e-09 6.44503e-09 0.593027 0.829095 0 0 0 0 0 0 0 0 0 0 0 0 0 0 0 0 0 0 0 0 0 0 0 0 0 0 0 0 0 0 0 0 0 0 0 0 0 0 0 0 0 0
0.117094 1.08586e-08 4.66721e-09 6.19139e-09 0.570183 0.858501 0 0 0 0 0 0 0 0 0 0 0 0 0 0 0 0 0 0 0 0 0 0 0 0 0 0 0 0 0 0 0 0 0 0 0 0 0 0 0 0 0 0
0.123105 1.08782e-08 4.84572e-09 6.03247e-09 0.554547 0.879218 0 0 0 0 0 0 0 0 0 0 0 0 0 0 0 0 0 0 0 0 0 0 0 0 0 0 0 0 0 0 0 0 0 0 0 0 0 0 0 0 0 0
0.129424 1.09081e-08 5.01194e-09 5.89619e-09 0.540531 0.897589 0 0 0 0 0 0 0 0 0 0 0 0 0 0 0 0 0 0 0 0 0 0 0 0 0 0 0 0 0 0 0 0 0 0 0 0 0 0 0 0 0 0
0.136067 1.09297e-08 5.15367e-09 5.77608e-09 0.528473 0.912426 0 0 0 0 0 0 0 0 0 0 0 0 0 0 0 0 0 0 0 0 0 0 0 0 0 0 0 0 0 0 0 0 0 0 0 0 0 0 0 0 0 0
0.143051 1.09143e-08 5.25708e-09 5.65726e-09 0.518333 0.923841 0 0 0 0 0 0 0 0 0 0 0 0 0 0 0 0 0 0 0 0 0 0 0 0 0 0 0 0 0 0 0 0 0 0 0 0 0 0 0 0 0 0
0.150394 1.08164e-08 5.27892e-09 5.53752e-09 0.511954 0.930695 0 0 0 0 0 0 0 0 0 0 0 0 0 0 0 0 0 0 0 0 0 0 0 0 0 0 0 0 0 0 0 0 0 0 0 0 0 0 0 0 0 0
0.158114 1.06797e-08 5.21089e-09 5.4688e-09 0.512075 0.93046 0 0 0 0 0 0 0 0 0 0 0 0 0 0 0 0 0 0 0 0 0 0 0 0 0 0 0 0 0 0 0 0 0 0 0 0 0 0 0 0 0 0
0.16623 1.06582e-08 5.06521e-09 5.59297e-09 0.524759 0.919064 0 0 0 0 0 0 0 0 0 0 0 0 0 0 0 0 0 0 0 0 0 0 0 0 0 0 0 0 0 0 0 0 0 0 0 0 0 0 0 0 0 0
0.174762 1.07986e-08 4.87107e-09 5.92752e-09 0.548916 0.893529 0 0 0 0 0 0 0 0 0 0 0 0 0 0 0 0 0 0 0 0 0 0 0 0 0 0 0 0 0 0 0 0 0 0 0 0 0 0 0 0 0 0
0.183733 1.10008e-08 4.66559e-09 6.33523e-09 0.575887 0.860525 0 0 0 0 0 0 0 0 0 0 0 0 0 0 0 0 0 0 0 0 0 0 0 0 0 0 0 0 0 0 0 0 0 0 0 0 0 0 0 0 0 0
0.193164 1.12412e-08 4.48402e-09 6.75719e-09 0.601109 0.82765 0 0 0 0 0 0 0 0 0 0 0 0 0 0 0 0 0 0 0 0 0 0 0 0 0 0 0 0 0 0 0 0 0 0 0 0 0 0 0 0 0 0
0.203079 1.15101e-08 4.36684e-09 7.14331e-09 0.62061 0.801506 0 0 0 0 0 0 0 0 0 0 0 0 0 0 0 0 0 0 0 0 0 0 0 0 0 0 0 0 0 0 0 0 0 0 0 0 0 0 0 0 0 0
0.213503 1.18149e-08 4.30535e-09 7.50956e-09 0.635601 0.781368 0 0 0 0 0 0 0 0 0 0 0 0 0 0 0 0 0 0 0 0 0 0 0 0 0 0 0 0 0 0 0 0 0 0 0 0 0 0 0 0 0 0
0.224463 1.21297e-08 4.32504e-09 7.80465e-09 0.643433 0.76825 0 0 0 0 0 0 0 0 0 0 0 0 0 0 0 0 0 0 0 0 0 0 0 0 0 0 0 0 0 0 0 0 0 0 0 0 0 0 0 0 0 0
0.235984 1.23274e-08 4.33892e-09 7.98852e-09 0.648027 0.758228 0 0 0 0 0 0 0 0 0 0 0 0 0 0 0 0 0 0 0 0 0 0 0 0 0 0 0 0 0 0 0 0 0 0 0 0 0 0 0 0 0 0
0.248097 1.23373e-08 4.37007e-09 7.96726e-09 0.645785 0.751798 0 0 0 0 0 0 0 0 0 0 0 0 0 0 0 0 0 0 0 0 0 0 0 0 0 0 0 0 0 0 0 0 0 0 0 0 0 0 0 0 0 0
0.260832 1.22503e-08 4.43534e-09 7.81495e-09 0.63794 0.748946 0 0 0 0 0 0 0 0 0 0 0 0 0 0 0 0 0 0 0 0 0 0 0 0 0 0 0 0 0 0 0 0 0 0 0 0 0 0 0 0 0 0
0.274221 1.21573e-08 4.51906e-09 7.63824e-09 0.628284 0.747872 0 0 0 0 0 0 0 0 0 0 0 0 0 0 0 0 0 0 0 0 0 0 0 0 0 0 0 0 0 0 0 0 0 0 0 0 0 0 0 0 0 0
0.288297 1.21055e-08 4.6586e-09 7.44688e-09 0.615166 0.752252 0 0 0 0 0 0 0 0 0 0 0 0 0 0 0 0 0 0 0 0 0 0 0 0 0 0 0 0 0 0 0 0 0 0 0 0 0 0 0 0 0 0
0.303095 1.21046e-08 4.77653e-09 7.32803e-09 0.605394 0.755556 0 0 0 0 0 0 0 0 0 0 0 0 0 0 0 0 0 0 0 0 0 0 0 0 0 0 0 0 0 0 0 0 0 0 0 0 0 0 0 0 0 0
0.318653 1.21187e-08 4.88279e-09 7.23589e-09 0.597086 0.758229 0 0 0 0 0 0 0 0 0 0 0 0 0 0 0 0 0 0 0 0 0 0 0 0 0 0 0 0 0 0 0 0 0 0 0 0 0 0 0 0 0 0
0.335009 1.21543e-08 4.98504e-09 7.16924e-09 0.589853 0.760395 0 0 0 0 0 0 0 0 0 0 0 0 0 0 0 0 0 0 0 0 0 0 0 0 0 0 0 0 0 0 0 0 0 0 0 0 0 0 0 0 0 0
0.352205 1.22019e-08 5.07395e-09 7.12794e-09 0.584167 0.761043 0 0 0 0 0 0 0 0 0 0 0 0 0 0 0 0 0 0 0 0 0 0 0 0 0 0 0 0 0 0 0 0 0 0 0 0 0 0 0 0 0 0
0.370284 1.22587e-08 5.15188e-09 7.10687e-09 0.579738 0.76038 0 0 0 0 0 0 0 0 0 0 0 0 0 0 0 0 0 0 0 0 0 0 0 0 0 0 0 0 0 0 0 0 0 0 0 0 0 0 0 0 0 0
0.389291 1.23203e-08 5.22027e-09 7.10005e-09 0.576288 0.75821 0 0 0 0 0 0 0 0 0 0 0 0 0 0 0 0 0 0 0 0 0 0 0 0 0 0 0 0 0 0 0 0 0 0 0 0 0 0 0 0 0 0
0.409273 1.23811e-08 5.2833e-09 7.09778e-09 0.573276 0.755328 0 0 0 0 0 0 0 0 0 0 0 0 0 0 0 0 0 0 0 0 0 0 0 0 0 0 0 0 0 0 0 0 0 0 0 0 0 0 0 0 0 0
0.430281 1.2447e-08 5.34832e-09 7.0987e-09 0.570313 0.75226 0 0 0 0 0 0 0 0 0 0 0 0 0 0 0 0 0 0 0 0 0 0 0 0 0 0 0 0 0 0 0 0 0 0 0 0 0 0 0 0 0 0
0.452368 1.2516e-08 5.4205e-09 7.09552e-09 0.566915 0.748973 0 0 0 0 0 0 0 0 0 0 0 0 0 0 0 0 0 0 0 0 0 0 0 0 0 0 0 0 0 0 0 0 0 0 0 0 0 0 0 0 0 0
0.475588 1.25759e-08 5.48741e-09 7.08851e-09 0.563657 0.744525 0 0 0 0 0 0 0 0 0 0 0 0 0 0 0 0 0 0 0 0 0 0 0 0 0 0 0 0 0 0 0 0 0 0 0 0 0 0 0 0 0 0
0.5 1.26517e-08 5.55339e-09 7.09831e-09 0.561056 0.739565 0 0 0 0 0 0 0 0 0 0 0 0 0 0 0 0 0 0 0 0 0 0 0 0 0 0 0 0 0 0 0 0 0 0 0 0 0 0 0 0 0 0
0.525665 1.27618e-08 5.61803e-09 7.14376e-09 0.559777 0.735003 0 0 0 0 0 0 0 0 0 0 0 0 0 0 0 0 0 0 0 0 0 0 0 0 0 0 0 0 0 0 0 0 0 0 0 0 0 0 0 0 0 0
0.552648 1.29229e-08 5.67133e-09 7.25161e-09 0.561143 0.731434 0 0 0 0 0 0 0 0 0 0 0 0 0 0 0 0 0 0 0 0 0 0 0 0 0 0 0 0 0 0 0 0 0 0 0 0 0 0 0 0 0 0
0.581015 1.30958e-08 5.70766e-09 7.3881e-09 0.56416 0.726827 0 0 0 0 0 0 0 0 0 0 0 0 0 0 0 0 0 0 0 0 0 0 0 0 0 0 0 0 0 0 0 0 0 0 0 0 0 0 0 0 0 0
0.610839 1.3242e-08 5.7376e-09 7.50437e-09 0.566711 0.723234 0 0 0 0 0 0 0 0 0 0 0 0 0 0 0 0 0 0 0 0 0 0 0 0 0 0 0 0 0 0 0 0 0 0 0 0 0 0 0 0 0 0
0.642193 1.33516e-08 5.80525e-09 7.54637e-09 0.565202 0.718836 0 0 0 0 0 0 0 0 0 0 0 0 0 0 0 0 0 0 0 0 0 0 0 0 0 0 0 0 0 0 0 0 0 0 0 0 0 0 0 0 0 0
0.675157 1.31535e-08 5.72568e-09 7.42785e-09 0.564704 0.69896 0 0 0 0 0 0 0 0 0 0 0 0 0 0 0 0 0 0 0 0 0 0 0 0 0 0 0 0 0 0 0 0 0 0 0 0 0 0 0 0 0 0
0.709813 1.3105e-08 5.81591e-09 7.28911e-09 0.556208 0.679457 0 0 0 0 0 0 0 0 0 0 0 0 0 0 0 0 0 0 0 0 0 0 0 0 0 0 0 0 0 0 0 0 0 0 0 0 0 0 0 0 0 0
0.746248 1.30122e-08 5.92475e-09 7.08742e-09 0.544676 0.659328 0 0 0 0 0 0 0 0 0 0 0 0 0 0 0 0 0 0 0 0 0 0 0 0 0 0 0 0 0 0 0 0 0 0 0 0 0 0 0 0 0 0
0.784553 1.24943e-08 5.66597e-09 6.82833e-09 0.546515 0.608112 0 0 0 0 0 0 0 0 0 0 0 0 0 0 0 0 0 0 0 0 0 0 0 0 0 0 0 0 0 0 0 0 0 0 0 0 0 0 0 0 0 0
0.824824 1.27943e-08 5.78416e-09 7.01011e-09 0.54791 0.555576 0 0 0 0 0 0 0 0 0 0 0 0 0 0 0 0 0 0 0 0 0 0 0 0 0 0 0 0 0 0 0 0 0 0 0 0 0 0 0 0 0 0
0.867162 1.31343e-08 5.72038e-09 7.4139e-09 0.56447 0.532054 0 0 0 0 0 0 0 0 0 0 0 0 0 0 0 0 0 0 0 0 0 0 0 0 0 0 0 0 0 0 0 0 0 0 0 0 0 0 0 0 0 0
0.911674 1.34025e-08 5.61686e-09 7.78561e-09 0.580909 0.536894 0 0 0 0 0 0 0 0 0 0 0 0 0 0 0 0 0 0 0 0 0 0 0 0 0 0 0 0 0 0 0 0 0 0 0 0 0 0 0 0 0 0
0.95847 1.3627e-08 5.52893e-09 8.09804e-09 0.594266 0.539188 0 0 0 0 0 0 0 0 0 0 0 0 0 0 0 0 0 0 0 0 0 0 0 0 0 0 0 0 0 0 0 0 0 0 0 0 0 0 0 0 0 0
1.00767 1.47674e-08 5.75842e-09 9.00894e-09 0.610057 0.512487 0 0 0 0 0 0 0 0 0 0 0 0 0 0 0 0 0 0 0 0 0 0 0 0 0 0 0 0 0 0 0 0 0 0 0 0 0 0 0 0 0 0
1.05939 1.47265e-08 5.20659e-09 9.51994e-09 0.646448 0.484643 0 0 0 0 0 0 0 0 0 0 0 0 0 0 0 0 0 0 0 0 0 0 0 0 0 0 0 0 0 0 0 0 0 0 0 0 0 0 0 0 0 0
1.11377 1.52716e-08 4.94395e-09 1.03277e-08 0.676266 0.488045 0 0 0 0 0 0 0 0 0 0 0 0 0 0 0 0 0 0 0 0 0 0 0 0 0 0 0 0 0 0 0 0 0 0 0 0 0 0 0 0 0 0
1.17094 1.61011e-08 4.98013e-09 1.1121e-08 0.690697 0.498655 0 0 0 0 0 0 0 0 0 0 0 0 0 0 0 0 0 0 0 0 0 0 0 0 0 0 0 0 0 0 0 0 0 0 0 0 0 0 0 0 0 0
1.23105 1.72552e-08 5.19403e-09 1.20612e-08 0.698989 0.507778 0 0 0 0 0 0 0 0 0 0 0 0 0 0 0 0 0 0 0 0 0 0 0 0 0 0 0 0 0 0 0 0 0 0 0 0 0 0 0 0 0 0
1.29424 1.81119e-08 5.41031e-09 1.27016e-08 0.701284 0.496257 0 0 0 0 0 0 0 0 0 0 0 0 0 0 0 0 0 0 0 0 0 0 0 0 0 0 0 0 0 0 0 0 0 0 0 0 0 0 0 0 0 0
1.36067 1.68619e-08 5.04065e-09 1.18212e-08 0.701062 0.461882 0 0 0 0 0 0 0 0 0 0 0 0 0 0 0 0 0 0 0 0 0 0 0 0 0 0 0 0 0 0 0 0 0 0 0 0 0 0 0 0 0 0
1.43051 1.59082e-08 4.66366e-09 1.12445e-08 0.706839 0.427862 0 0 0 0 0 0 0 0 0 0 0 0 0 0 0 0 0 0 0 0 0 0 0 0 0 0 0 0 0 0 0 0 0 0 0 0 0 0 0 0 0 0
1.50394 1.57548e-08 4.49406e-09 1.12607e-08 0.714749 0.395685 0 0 0 0 0 0 0 0 0 0 0 0 0 0 0 0 0 0 0 0 0 0 0 0 0 0 0 0 0 0 0 0 0 0 0 0 0 0 0 0 0 0
1.58114 1.60096e-08 4.42786e-09 1.15817e-08 0.723425 0.364735 0 0 0 0 0 0 0 0 0 0 0 0 0 0 0 0 0 0 0 0 0 0 0 0 0 0 0 0 0 0 0 0 0 0 0 0 0 0 0 0 0 0
1.6623 1.65435e-08 4.43679e-09 1.21067e-08 0.731811 0.338538 0 0 0 0 0 0 0 0 0 0 0 0 0 0 0 0 0 0 0 0 0 0 0 0 0 0 0 0 0 0 0 0 0 0 0 0 0 0 0 0 0 0
1.74763 1.71105e-08 4.50924e-09 1.26012e-08 0.736463 0.320784 0 0 0 0 0 0 0 0 0 0 0 0 0 0 0 0 0 0 0 0 0 0 0 0 0 0 0 0 0 0 0 0 0 0 0 0 0 0 0 0 0 0
1.83733 1.70228e-08 4.57448e-09 1.24484e-08 0.731274 0.309854 0 0 0 0 0 0 0 0 0 0 0 0 0 0 0 0 0 0 0 0 0 0 0 0 0 0 0 0 0 0 0 0 0 0 0 0 0 0 0 0 0 0
1.93164 1.58971e-08 4.54651e-09 1.13506e-08 0.714003 0.295539 0 0 0 0 0 0 0 0 0 0 0 0 0 0 0 0 0 0 0 0 0 0 0 0 0 0 0 0 0 0 0 0 0 0 0 0 0 0 0 0 0 0
2.03079 1.45367e-08 4.48058e-09 1.00561e-08 0.691774 0.268536 0 0 0 0 0 0 0 0 0 0 0 0 0 0 0 0 0 0 0 0 0 0 0 0 0 0 0 0 0 0 0 0 0 0 0 0 0 0 0 0 0 0
2.13503 1.35759e-08 4.45419e-09 9.1217e-09 0.671905 0.23132 0 0 0 0 0 0 0 0 0 0 0 0 0 0 0 0 0 0 0 0 0 0 0 0 0 0 0 0 0 0 0 0 0 0 0 0 0 0 0 0 0 0
2.24463 1.29222e-08 4.46803e-09 8.45413e-09 0.654235 0.192141 0 0 0 0 0 0 0 0 0 0 0 0 0 0 0 0 0 0 0 0 0 0 0 0 0 0 0 0 0 0 0 0 0 0 0 0 0 0 0 0 0 0
2.35984 1.24037e-08 4.4974e-09 7.90627e-09 0.637414 0.15627 0 0 0 0 0 0 0 0 0 0 0 0 0 0 0 0 0 0 0 0 0 0 0 0 0 0 0 0 0 0 0 0 0 0 0 0 0 0 0 0 0 0
2.48097 1.18884e-08 4.51297e-09 7.37542e-09 0.620389 0.12497 0 0 0 0 0 0 0 0 0 0 0 0 0 0 0 0 0 0 0 0 0 0 0 0 0 0 0 0 0 0 0 0 0 0 0 0 0 0 0 0 0 0
2.60832 1.13096e-08 4.4911e-09 6.81846e-09 0.602894 0.0981062 0 0 0 0 0 0 0 0 0 0 0 0 0 0 0 0 0 0 0 0 0 0 0 0 0 0 0 0 0 0 0 0 0 0 0 0 0 0 0 0 0 0
2.74221 1.06357e-08 4.42073e-09 6.21494e-09 0.584349 0.0749464 0 0 0 0 0 0 0 0 0 0 0 0 0 0 0 0 0 0 0 0 0 0 0 0 0 0 0 0 0 0 0 0 0 0 0 0 0 0 0 0 0 0
2.88297 9.87153e-09 4.30307e-09 5.56846e-09 0.564093 0.0550389 0 0 0 0 0 0 0 0 0 0 0 0 0 0 0 0 0 0 0 0 0 0 0 0 0 0 0 0 0 0 0 0 0 0 0 0 0 0 0 0 0 0
3.03095 9.03853e-09 4.13761e-09 4.90092e-09 0.542225 0.0378518 0 0 0 0 0 0 0 0 0 0 0 0 0 0 0 0 0 0 0 0 0 0 0 0 0 0 0 0 0 0 0 0 0 0 0 0 0 0 0 0 0 0
3.18653 8.17514e-09 3.93538e-09 4.23976e-09 0.518616 0.0230987 0 0 0 0 0 0 0 0 0 0 0 0 0 0 0 0 0 0 0 0 0 0 0 0 0 0 0 0 0 0 0 0 0 0 0 0 0 0 0 0 0 0
3.35009 7.31991e-09 3.7104e-09 3.60951e-09 0.493108 0.010511 0 0 0 0 0 0 0 0 0 0 0 0 0 0 0 0 0 0 0 0 0 0 0 0 0 0 0 0 0 0 0 0 0 0 0 0 0 0 0 0 0 0
3.52205 6.50594e-09 3.47608e-09 3.02985e-09 0.465706 -9.62461e-05 0 0 0 0 0 0 0 0 0 0 0 0 0 0 0 0 0 0 0 0 0 0 0 0 0 0 0 0 0 0 0 0 0 0 0 0 0 0 0 0 0 0
3.70284 5.75787e-09 3.24263e-09 2.51524e-09 0.436834 -0.00881659 0 0 0 0 0 0 0 0 0 0 0 0 0 0 0 0 0 0 0 0 0 0 0 0 0 0 0 0 0 0 0 0 0 0 0 0 0 0 0 0 0 0
3.89291 5.08637e-09 3.01737e-09 2.069e-09 0.406773 -0.0157486 0 0 0 0 0 0 0 0 0 0 0 0 0 0 0 0 0 0 0 0 0 0 0 0 0 0 0 0 0 0 0 0 0 0 0 0 0 0 0 0 0 0
4.09273 4.49068e-09 2.80061e-09 1.69007e-09 0.37635 -0.0211472 0 0 0 0 0 0 0 0 0 0 0 0 0 0 0 0 0 0 0 0 0 0 0 0 0 0 0 0 0 0 0 0 0 0 0 0 0 0 0 0 0 0
4.30281 3.97007e-09 2.5965e-09 1.37357e-09 0.345981 -0.0251429 0 0 0 0 0 0 0 0 0 0 0 0 0 0 0 0 0 0 0 0 0 0 0 0 0 0 0 0 0 0 0 0 0 0 0 0 0 0 0 0 0 0
4.52368 3.51826e-09 2.40529e-09 1.11297e-09 0.316341 -0.0278359 0 0 0 0 0 0 0 0 0 0 0 0 0 0 0 0 0 0 0 0 0 0 0 0 0 0 0 0 0 0 0 0 0 0 0 0 0 0 0 0 0 0
4.75588 3.12524e-09 2.22576e-09 8.99474e-10 0.28781 -0.029385 0 0 0 0 0 0 0 0 0 0 0 0 0 0 0 0 0 0 0 0 0 0 0 0 0 0 0 0 0 0 0 0 0 0 0 0 0 0 0 0 0 0
5 2.78078e-09 2.05514e-09 7.25636e-10 0.260947 -0.0299414 0 0 0 0 0 0 0 0 0 0 0 0 0 0 0 0 0 0 0 0 0 0 0 0 0 0 0 0 0 0 0 0 0 0 0 0 0 0 0 0 0 0
5.25665 2.4792e-09 1.89394e-09 5.85259e-10 0.236068 -0.0299966 0 0 0 0 0 0 0 0 0 0 0 0 0 0 0 0 0 0 0 0 0 0 0 0 0 0 0 0 0 0 0 0 0 0 0 0 0 0 0 0 1.4013e-45 0
5.52648 2.21513e-09 1.74311e-09 4.72017e-10 0.213088 -0.0294928 0 0 0 0 0 0 0 0 0 0 0 0 0 0 0 0 0 0 0 0 0 0 0 0 0 0 0 0 0 0 1.4013e-45 0 5.60519e-45 0 1.68156e-44 0 4.06377e-44 0 9.66896e-44 0 2.18603e-43 0
5.81015 1.98233e-09 1.60181e-09 3.80526e-10 0.191959 -0.0284508 0 0 0 0 0 0 0 0 0 0 0 0 0 0 0 0 0 0 0 0 0 0 1.4013e-45 0 8.40779e-45 0 2.94273e-44 0 9.94922e-44 0 3.01279e-43 0 8.23963e-43 0 2.158e-42 0 5.175e-42 0 1.16756e-41 0 2.54182e-41 0
6.10839 1.77519e-09 1.46838e-09 3.06805e-10 0.17283 -0.0270387 0 0 0 0 0 0 0 0 0 0 0 0 0 0 0 0 1.4013e-45 0 1.12104e-44 0 5.88545e-44 0 2.71852e-43 0 1.0832e-42 0 3.77089e-42 0 1.18424e-41 0 3.37769e-41 0 8.79455e-41 0 2.19768e-40 0 5.05006e-40 0 1.095e-39 0 2.29494e-39 0
6.42193 1.59445e-09 1.34682e-09 2.47629e-10 0.155307 -0.0253326 0 0 0 0 0 0 0 0 0 0 0 0 1.4013e-45 0 2.52234e-44 0 2.14399e-43 0 1.39009e-42 0 7.06815e-42 0 3.01882e-41 0 1.12349e-40 0 3.67782e-40 0 1.09233e-39 0 2.96008e-39 0 7.35547e-39 0 1.7577e-38 0 3.87822e-38 0 8.09732e-38 0 1.63685e-37 0
6.75157 1.4289e-09 1.22892e-09 1.99977e-10 0.139951 -0.0236676 0 0 0 0 0 0 0 0 0 0 1.4013e-44 0 2.63444e-43 0 2.99317e-42 0 2.35152e-41 0 1.3931e-40 0 6.54329e-40 0 2.60321e-39 0 9.08617e-39 0 2.80707e-38 0 7.90559e-38 0 2.04055e-37 0 4.85013e-37 0 1.11075e-36 0 2.35789e-36 0 4.74922e-36 0 9.27609e-36 0
7.09813 1.28213e-09 1.12057e-09 1.61558e-10 0.126008 -0.0219554 0 0 0 0 0 0 0 0 4.48416e-44 0 1.66474e-42 0 2.80946e-41 0 2.83965e-40 0 2.01732e-39 0 1.09567e-38 0 4.77191e-38 0 1.7747e-37 0 5.82762e-37 0 1.70391e-36 0 4.56217e-36 0 1.12429e-35 0 2.56169e-35 0 5.63401e-35 0 1.15283e-34 0 2.24397e-34 0 4.24194e-34 0
7.46248 1.15073e-09 1.02014e-09 1.30599e-10 0.113492 -0.0202672 0 0 0 0 0 0 5.1848e-44 0 5.18761e-42 0 1.59594e-40 0 2.34592e-39 0 2.11788e-38 0 1.36721e-37 0 6.83692e-37 0 2.77124e-36 0 9.66622e-36 0 2.9951e-35 0 8.3103e-35 0 2.1206e-34 0 5.00081e-34 0 1.09453e-33 0 2.31636e-33 0 4.57691e-33 0 8.62386e-33 0 1.58033e-32 0
7.84553 1.03233e-09 9.2662e-10 1.05708e-10 0.102398 -0.0187617 0 0 0 0 8.40779e-45 0 5.8252e-42 0 4.61522e-40 0 1.20116e-38 0 1.54848e-37 0 1.25556e-36 0 7.39995e-36 0 3.42077e-35 0 1.29497e-34 0 4.24965e-34 0 1.24603e-33 0 3.28923e-33 0 8.01811e-33 0 1.81327e-32 0 3.81979e-32 0 7.79334e-32 0 1.48953e-31 0 2.7211e-31 0 4.84114e-31 0
8.24824 9.26568e-10 8.40953e-10 8.5615e-11 0.0924002 -0.0176884 0 0 0 0 9.55686e-43 0 5.06253e-40 0 3.23997e-38 0 7.19189e-37 0 8.1835e-36 0 5.9909e-35 0 3.23795e-34 0 1.389e-33 0 4.92734e-33 0 1.52583e-32 0 4.24494e-32 0 1.0687e-31 0 2.49425e-31 0 5.42035e-31 0 1.10105e-30 0 2.16955e-30 0 4.01754e-30 0 7.12655e-30 0 1.23272e-29 0
8.67162 8.33076e-10 7.63715e-10 6.93607e-11 0.0832586 -0.0166785 0 0 1.4013e-45 0 8.92137e-41 0 3.4808e-38 0 1.81831e-36 0 3.46927e-35 0 3.50568e-34 0 2.3287e-33 0 1.15908e-32 0 4.63094e-32 0 1.5443e-31 0 4.5254e-31 0 1.19764e-30 0 2.88226e-30 0 6.45425e-30 0 1.35044e-29 0 2.64989e-29 0 5.05137e-29 0 9.07683e-29 0 1.56567e-28 0 2.63674e-28 0
9.11674 7.49995e-10 6.93753e-10 5.62422e-11 0.0749901 -0.0157051 0 0 1.49939e-43 0 6.56626e-39 0 1.91447e-36 0 8.24439e-35 0 1.36209e-33 0 1.2294e-32 0 7.44537e-32 0 3.42655e-31 0 1.2795e-30 0 4.02313e-30 0 1.11865e-29 0 2.8231e-29 0 6.50895e-29 0 1.4013e-28 0 2.82817e-28 0 5.36987e-28 0 9.91896e-28 0 1.73206e-27 0 2.90918e-27 0 4.77623e-27 0
9.5847 6.75937e-10 6.30315e-10 4.56221e-11 0.0674945 -0.0147503 0 0 1.48426e-41 0 3.85294e-37 0 8.515e-35 0 3.05148e-33 0 4.39631e-32 0 3.5639e-31 0 1.97664e-30 0 8.44363e-30 0 2.95649e-29 0 8.79041e-29 0 2.32517e-28 0 5.60865e-28 0 1.24145e-27 0 2.57448e-27 0 5.02082e-27 0 9.23928e-27 0 1.65626e-26 0 2.81453e-26 0 4.60911e-26 0 7.38617e-26 0
10.0767 6.09548e-10 5.72531e-10 3.70163e-11 0.0607275 -0.0138932 1.96182e-44 0 1.1527e-39 0 1.82166e-35 0 3.09313e-33 0 9.30755e-32 0 1.17719e-30 0 8.6161e-30 0 4.39529e-29 0 1.74904e-28 0 5.76071e-28 0 1.62406e-27 0 4.09659e-27 0 9.46578e-27 0 2.01549e-26 0 4.03343e-26 0 7.61371e-26 0 1.35997e-25 0 2.36942e-25 0 3.92353e-25 0 6.27233e-25 0 9.82272e-25 0
10.5939 5.50194e-10 5.20162e-10 3.00319e-11 0.0545842 -0.0132695 2.07672e-42 0 7.11833e-38 0 7.01667e-34 0 9.27227e-32 0 2.36288e-30 0 2.64026e-29 0 1.7535e-28 0 8.26095e-28 0 3.07297e-27 0 9.549e-27 0 2.55922e-26 0 6.17035e-26 0 1.36862e-25 0 2.80855e-25 0 5.43334e-25 0 9.94299e-25 0 1.72643e-24 0 2.92746e-24 0 4.72967e-24 0 7.38984e-24 0 1.13221e-23 0
11.1377 4.97983e-10 4.73618e-10 2.43648e-11 0.0489269 -0.0128001 1.7206e-40 0 3.54178e-36 0 2.22835e-32 0 2.31996e-30 0 5.0475e-29 0 5.01309e-28 0 3.03541e-27 0 1.3258e-26 0 4.62541e-26 0 1.35991e-25 0 3.47341e-25 0 8.02225e-25 0 1.71151e-24 0 3.39105e-24 0 6.35224e-24 0 1.12866e-23 0 1.90763e-23 0 3.15238e-23 0 4.97517e-23 0 7.60588e-23 0 1.14129e-22 0
11.7094 4.50245e-10 4.30286e-10 1.99582e-11 0.0443274 -0.0123238 1.12727e-38 0 1.42878e-34 0 5.86484e-31 0 4.86688e-29 0 9.11045e-28 0 8.0889e-27 0 4.48555e-26 0 1.82312e-25 0 5.98402e-25 0 1.66911e-24 0 4.07238e-24 0 9.02898e-24 0 1.85633e-23 0 3.55723e-23 0 6.46241e-23 0 1.11646e-22 0 1.83927e-22 0 2.96579e-22 0 4.57755e-22 0 6.85448e-22 0 1.00836e-21 0
