# 7.33679e-05 1 73 : grain size, compostion index, size index
# Heating and cooling timescale: 0.000512922 3.63249e+06
# Ratio of heating to cooling to determine stochastic cutoff: 100
# Equilibrium emission is recorded even for those grains in the stochastic regime.
# Emission spectrum was computed for: 
# Type: IRSF
# Scales: 0.25 0.5 1 1.5 2 2.5 3 3.5 4 4.5 5 5.5 6 6.5 7 7.5 8 8.5 9 9.5 10
# StochasticallyHeated: 0 0 0 0 0 0 0 0 0 0 0 0 0 0 0 0 0 0 0 0 0
# Temperature: -1
# Wavelength  CExt  CAbs  CSca  Albedo G EqEm1 StEm1 EqEm2 StEm2 EqEm3 StEm3 EqEm4 StEm4 EqEm5 StEm5 EqEm6 StEm6 EqEm7 StEm7 EqEm8 StEm8 EqEm9 StEm9 EqEm10 StEm10 EqEm11 StEm11 EqEm12 StEm12 EqEm13 StEm13 EqEm14 StEm14 EqEm15 StEm15 EqEm16 StEm16 EqEm17 StEm17 EqEm18 StEm18 EqEm19 StEm19 EqEm20 StEm20 EqEm21 StEm21
0.05 3.50278e-08 1.22489e-08 2.27789e-08 0.650309 0.858191 0 0 0 0 0 0 0 0 0 0 0 0 0 0 0 0 0 0 0 0 0 0 0 0 0 0 0 0 0 0 0 0 0 0 0 0 0 0 0 0 0 0
0.0525665 3.51242e-08 1.21078e-08 2.30165e-08 0.655287 0.846212 0 0 0 0 0 0 0 0 0 0 0 0 0 0 0 0 0 0 0 0 0 0 0 0 0 0 0 0 0 0 0 0 0 0 0 0 0 0 0 0 0 0
0.0552647 3.52252e-08 1.20199e-08 2.32053e-08 0.658769 0.836278 0 0 0 0 0 0 0 0 0 0 0 0 0 0 0 0 0 0 0 0 0 0 0 0 0 0 0 0 0 0 0 0 0 0 0 0 0 0 0 0 0 0
0.0581015 3.53196e-08 1.20116e-08 2.3308e-08 0.659917 0.83019 0 0 0 0 0 0 0 0 0 0 0 0 0 0 0 0 0 0 0 0 0 0 0 0 0 0 0 0 0 0 0 0 0 0 0 0 0 0 0 0 0 0
0.0610839 3.54138e-08 1.18894e-08 2.35245e-08 0.664274 0.821861 0 0 0 0 0 0 0 0 0 0 0 0 0 0 0 0 0 0 0 0 0 0 0 0 0 0 0 0 0 0 0 0 0 0 0 0 0 0 0 0 0 0
0.0642193 3.55446e-08 1.15242e-08 2.40204e-08 0.675783 0.804542 0 0 0 0 0 0 0 0 0 0 0 0 0 0 0 0 0 0 0 0 0 0 0 0 0 0 0 0 0 0 0 0 0 0 0 0 0 0 0 0 0 0
0.0675157 3.57243e-08 1.12014e-08 2.45229e-08 0.686448 0.785682 0 0 0 0 0 0 0 0 0 0 0 0 0 0 0 0 0 0 0 0 0 0 0 0 0 0 0 0 0 0 0 0 0 0 0 0 0 0 0 0 0 0
0.0709813 3.59204e-08 1.12906e-08 2.46297e-08 0.685676 0.779048 0 0 0 0 0 0 0 0 0 0 0 0 0 0 0 0 0 0 0 0 0 0 0 0 0 0 0 0 0 0 0 0 0 0 0 0 0 0 0 0 0 0
0.0746248 3.61023e-08 1.15945e-08 2.45078e-08 0.678844 0.780445 0 0 0 0 0 0 0 0 0 0 0 0 0 0 0 0 0 0 0 0 0 0 0 0 0 0 0 0 0 0 0 0 0 0 0 0 0 0 0 0 0 0
0.0784553 3.6263e-08 1.19575e-08 2.43055e-08 0.670256 0.785175 0 0 0 0 0 0 0 0 0 0 0 0 0 0 0 0 0 0 0 0 0 0 0 0 0 0 0 0 0 0 0 0 0 0 0 0 0 0 0 0 0 0
0.0824824 3.64058e-08 1.23503e-08 2.40555e-08 0.66076 0.79071 0 0 0 0 0 0 0 0 0 0 0 0 0 0 0 0 0 0 0 0 0 0 0 0 0 0 0 0 0 0 0 0 0 0 0 0 0 0 0 0 0 0
0.0867162 3.65406e-08 1.25218e-08 2.40189e-08 0.65732 0.789567 0 0 0 0 0 0 0 0 0 0 0 0 0 0 0 0 0 0 0 0 0 0 0 0 0 0 0 0 0 0 0 0 0 0 0 0 0 0 0 0 0 0
0.0911674 3.66956e-08 1.25892e-08 2.41064e-08 0.656929 0.784644 0 0 0 0 0 0 0 0 0 0 0 0 0 0 0 0 0 0 0 0 0 0 0 0 0 0 0 0 0 0 0 0 0 0 0 0 0 0 0 0 0 0
0.095847 3.68348e-08 1.27674e-08 2.40674e-08 0.653388 0.782798 0 0 0 0 0 0 0 0 0 0 0 0 0 0 0 0 0 0 0 0 0 0 0 0 0 0 0 0 0 0 0 0 0 0 0 0 0 0 0 0 0 0
0.100767 3.68719e-08 1.32668e-08 2.36051e-08 0.640192 0.793072 0 0 0 0 0 0 0 0 0 0 0 0 0 0 0 0 0 0 0 0 0 0 0 0 0 0 0 0 0 0 0 0 0 0 0 0 0 0 0 0 0 0
0.105939 3.68689e-08 1.37274e-08 2.31415e-08 0.627671 0.806436 0 0 0 0 0 0 0 0 0 0 0 0 0 0 0 0 0 0 0 0 0 0 0 0 0 0 0 0 0 0 0 0 0 0 0 0 0 0 0 0 0 0
0.111377 3.67317e-08 1.44634e-08 2.22683e-08 0.606242 0.831918 0 0 0 0 0 0 0 0 0 0 0 0 0 0 0 0 0 0 0 0 0 0 0 0 0 0 0 0 0 0 0 0 0 0 0 0 0 0 0 0 0 0
0.117094 3.66984e-08 1.5256e-08 2.14425e-08 0.584288 0.862246 0 0 0 0 0 0 0 0 0 0 0 0 0 0 0 0 0 0 0 0 0 0 0 0 0 0 0 0 0 0 0 0 0 0 0 0 0 0 0 0 0 0
0.123105 3.67354e-08 1.5812e-08 2.09234e-08 0.569571 0.88357 0 0 0 0 0 0 0 0 0 0 0 0 0 0 0 0 0 0 0 0 0 0 0 0 0 0 0 0 0 0 0 0 0 0 0 0 0 0 0 0 0 0
0.129424 3.67972e-08 1.63162e-08 2.04809e-08 0.55659 0.902434 0 0 0 0 0 0 0 0 0 0 0 0 0 0 0 0 0 0 0 0 0 0 0 0 0 0 0 0 0 0 0 0 0 0 0 0 0 0 0 0 0 0
0.136067 3.68474e-08 1.67428e-08 2.01046e-08 0.545619 0.917716 0 0 0 0 0 0 0 0 0 0 0 0 0 0 0 0 0 0 0 0 0 0 0 0 0 0 0 0 0 0 0 0 0 0 0 0 0 0 0 0 0 0
0.143051 3.68347e-08 1.70705e-08 1.97642e-08 0.536565 0.929576 0 0 0 0 0 0 0 0 0 0 0 0 0 0 0 0 0 0 0 0 0 0 0 0 0 0 0 0 0 0 0 0 0 0 0 0 0 0 0 0 0 0
0.150394 3.66913e-08 1.72055e-08 1.94858e-08 0.531075 0.937052 0 0 0 0 0 0 0 0 0 0 0 0 0 0 0 0 0 0 0 0 0 0 0 0 0 0 0 0 0 0 0 0 0 0 0 0 0 0 0 0 0 0
0.158114 3.65019e-08 1.7058e-08 1.94439e-08 0.532682 0.937429 0 0 0 0 0 0 0 0 0 0 0 0 0 0 0 0 0 0 0 0 0 0 0 0 0 0 0 0 0 0 0 0 0 0 0 0 0 0 0 0 0 0
0.16623 3.64967e-08 1.65916e-08 1.99051e-08 0.545394 0.92663 0 0 0 0 0 0 0 0 0 0 0 0 0 0 0 0 0 0 0 0 0 0 0 0 0 0 0 0 0 0 0 0 0 0 0 0 0 0 0 0 0 0
0.174762 3.67766e-08 1.58688e-08 2.09078e-08 0.568509 0.901387 0 0 0 0 0 0 0 0 0 0 0 0 0 0 0 0 0 0 0 0 0 0 0 0 0 0 0 0 0 0 0 0 0 0 0 0 0 0 0 0 0 0
0.183733 3.7172e-08 1.50489e-08 2.2123e-08 0.595154 0.868091 0 0 0 0 0 0 0 0 0 0 0 0 0 0 0 0 0 0 0 0 0 0 0 0 0 0 0 0 0 0 0 0 0 0 0 0 0 0 0 0 0 0
0.193164 3.76369e-08 1.42642e-08 2.33727e-08 0.621004 0.834398 0 0 0 0 0 0 0 0 0 0 0 0 0 0 0 0 0 0 0 0 0 0 0 0 0 0 0 0 0 0 0 0 0 0 0 0 0 0 0 0 0 0
0.203079 3.81598e-08 1.36617e-08 2.44981e-08 0.641988 0.807098 0 0 0 0 0 0 0 0 0 0 0 0 0 0 0 0 0 0 0 0 0 0 0 0 0 0 0 0 0 0 0 0 0 0 0 0 0 0 0 0 0 0
0.213503 3.87612e-08 1.32306e-08 2.55306e-08 0.658663 0.785562 0 0 0 0 0 0 0 0 0 0 0 0 0 0 0 0 0 0 0 0 0 0 0 0 0 0 0 0 0 0 0 0 0 0 0 0 0 0 0 0 0 0
0.224463 3.94623e-08 1.31307e-08 2.63316e-08 0.667259 0.771474 0 0 0 0 0 0 0 0 0 0 0 0 0 0 0 0 0 0 0 0 0 0 0 0 0 0 0 0 0 0 0 0 0 0 0 0 0 0 0 0 0 0
0.235984 4.00551e-08 1.3194e-08 2.6861e-08 0.670602 0.761982 0 0 0 0 0 0 0 0 0 0 0 0 0 0 0 0 0 0 0 0 0 0 0 0 0 0 0 0 0 0 0 0 0 0 0 0 0 0 0 0 0 0
0.248097 4.0281e-08 1.34247e-08 2.68562e-08 0.666723 0.757635 0 0 0 0 0 0 0 0 0 0 0 0 0 0 0 0 0 0 0 0 0 0 0 0 0 0 0 0 0 0 0 0 0 0 0 0 0 0 0 0 0 0
0.260832 4.01915e-08 1.37274e-08 2.64642e-08 0.658451 0.757155 0 0 0 0 0 0 0 0 0 0 0 0 0 0 0 0 0 0 0 0 0 0 0 0 0 0 0 0 0 0 0 0 0 0 0 0 0 0 0 0 0 0
0.274221 4.00079e-08 1.40382e-08 2.59697e-08 0.649114 0.75819 0 0 0 0 0 0 0 0 0 0 0 0 0 0 0 0 0 0 0 0 0 0 0 0 0 0 0 0 0 0 0 0 0 0 0 0 0 0 0 0 0 0
0.288297 3.9879e-08 1.44811e-08 2.53979e-08 0.636874 0.764526 0 0 0 0 0 0 0 0 0 0 0 0 0 0 0 0 0 0 0 0 0 0 0 0 0 0 0 0 0 0 0 0 0 0 0 0 0 0 0 0 0 0
0.303095 3.98671e-08 1.48287e-08 2.50385e-08 0.628048 0.769492 0 0 0 0 0 0 0 0 0 0 0 0 0 0 0 0 0 0 0 0 0 0 0 0 0 0 0 0 0 0 0 0 0 0 0 0 0 0 0 0 0 0
0.318653 3.9897e-08 1.51375e-08 2.47596e-08 0.620587 0.773858 0 0 0 0 0 0 0 0 0 0 0 0 0 0 0 0 0 0 0 0 0 0 0 0 0 0 0 0 0 0 0 0 0 0 0 0 0 0 0 0 0 0
0.335009 3.99745e-08 1.54177e-08 2.45568e-08 0.614311 0.777594 0 0 0 0 0 0 0 0 0 0 0 0 0 0 0 0 0 0 0 0 0 0 0 0 0 0 0 0 0 0 0 0 0 0 0 0 0 0 0 0 0 0
0.352205 4.00899e-08 1.5655e-08 2.44349e-08 0.609503 0.779949 0 0 0 0 0 0 0 0 0 0 0 0 0 0 0 0 0 0 0 0 0 0 0 0 0 0 0 0 0 0 0 0 0 0 0 0 0 0 0 0 0 0
0.370284 4.02272e-08 1.58552e-08 2.4372e-08 0.60586 0.780945 0 0 0 0 0 0 0 0 0 0 0 0 0 0 0 0 0 0 0 0 0 0 0 0 0 0 0 0 0 0 0 0 0 0 0 0 0 0 0 0 0 0
0.389291 4.03758e-08 1.60184e-08 2.43573e-08 0.603266 0.780529 0 0 0 0 0 0 0 0 0 0 0 0 0 0 0 0 0 0 0 0 0 0 0 0 0 0 0 0 0 0 0 0 0 0 0 0 0 0 0 0 0 0
0.409273 4.05306e-08 1.6173e-08 2.43576e-08 0.600969 0.779702 0 0 0 0 0 0 0 0 0 0 0 0 0 0 0 0 0 0 0 0 0 0 0 0 0 0 0 0 0 0 0 0 0 0 0 0 0 0 0 0 0 0
0.430281 4.06898e-08 1.63256e-08 2.43642e-08 0.598779 0.778629 0 0 0 0 0 0 0 0 0 0 0 0 0 0 0 0 0 0 0 0 0 0 0 0 0 0 0 0 0 0 0 0 0 0 0 0 0 0 0 0 0 0
0.452368 4.08632e-08 1.64882e-08 2.4375e-08 0.596502 0.777692 0 0 0 0 0 0 0 0 0 0 0 0 0 0 0 0 0 0 0 0 0 0 0 0 0 0 0 0 0 0 0 0 0 0 0 0 0 0 0 0 0 0
0.475588 4.10443e-08 1.66537e-08 2.43906e-08 0.594251 0.776598 0 0 0 0 0 0 0 0 0 0 0 0 0 0 0 0 0 0 0 0 0 0 0 0 0 0 0 0 0 0 0 0 0 0 0 0 0 0 0 0 0 0
0.5 4.12424e-08 1.68197e-08 2.44227e-08 0.592175 0.775217 0 0 0 0 0 0 0 0 0 0 0 0 0 0 0 0 0 0 0 0 0 0 0 0 0 0 0 0 0 0 0 0 0 0 0 0 0 0 0 0 0 0
0.525665 4.14592e-08 1.6985e-08 2.44743e-08 0.590321 0.77358 0 0 0 0 0 0 0 0 0 0 0 0 0 0 0 0 0 0 0 0 0 0 0 0 0 0 0 0 0 0 0 0 0 0 0 0 0 0 0 0 0 0
0.552648 4.16753e-08 1.71517e-08 2.45236e-08 0.588444 0.771552 0 0 0 0 0 0 0 0 0 0 0 0 0 0 0 0 0 0 0 0 0 0 0 0 0 0 0 0 0 0 0 0 0 0 0 0 0 0 0 0 0 0
0.581015 4.18474e-08 1.72942e-08 2.45533e-08 0.586733 0.768238 0 0 0 0 0 0 0 0 0 0 0 0 0 0 0 0 0 0 0 0 0 0 0 0 0 0 0 0 0 0 0 0 0 0 0 0 0 0 0 0 0 0
0.610839 4.20365e-08 1.7435e-08 2.46015e-08 0.585241 0.764874 0 0 0 0 0 0 0 0 0 0 0 0 0 0 0 0 0 0 0 0 0 0 0 0 0 0 0 0 0 0 0 0 0 0 0 0 0 0 0 0 0 0
0.642193 4.23744e-08 1.7566e-08 2.48083e-08 0.585456 0.762553 0 0 0 0 0 0 0 0 0 0 0 0 0 0 0 0 0 0 0 0 0 0 0 0 0 0 0 0 0 0 0 0 0 0 0 0 0 0 0 0 0 0
0.675157 4.28839e-08 1.76844e-08 2.51994e-08 0.58762 0.760131 0 0 0 0 0 0 0 0 0 0 0 0 0 0 0 0 0 0 0 0 0 0 0 0 0 0 0 0 0 0 0 0 0 0 0 0 0 0 0 0 0 0
0.709813 4.32483e-08 1.77647e-08 2.54836e-08 0.58924 0.754778 0 0 0 0 0 0 0 0 0 0 0 0 0 0 0 0 0 0 0 0 0 0 0 0 0 0 0 0 0 0 0 0 0 0 0 0 0 0 0 0 0 0
0.746248 4.31522e-08 1.77949e-08 2.53574e-08 0.587626 0.743502 0 0 0 0 0 0 0 0 0 0 0 0 0 0 0 0 0 0 0 0 0 0 0 0 0 0 0 0 0 0 0 0 0 0 0 0 0 0 0 0 0 0
0.784553 4.27883e-08 1.77254e-08 2.50629e-08 0.585743 0.72569 0 0 0 0 0 0 0 0 0 0 0 0 0 0 0 0 0 0 0 0 0 0 0 0 0 0 0 0 0 0 0 0 0 0 0 0 0 0 0 0 0 0
0.824824 4.2712e-08 1.77053e-08 2.50067e-08 0.585472 0.706516 0 0 0 0 0 0 0 0 0 0 0 0 0 0 0 0 0 0 0 0 0 0 0 0 0 0 0 0 0 0 0 0 0 0 0 0 0 0 0 0 0 0
0.867162 4.29029e-08 1.73867e-08 2.55162e-08 0.594742 0.698837 0 0 0 0 0 0 0 0 0 0 0 0 0 0 0 0 0 0 0 0 0 0 0 0 0 0 0 0 0 0 0 0 0 0 0 0 0 0 0 0 0 0
0.911674 4.43912e-08 1.74218e-08 2.69694e-08 0.607539 0.692866 0 0 0 0 0 0 0 0 0 0 0 0 0 0 0 0 0 0 0 0 0 0 0 0 0 0 0 0 0 0 0 0 0 0 0 0 0 0 0 0 0 0
0.95847 4.50681e-08 1.68646e-08 2.82034e-08 0.625797 0.701127 0 0 0 0 0 0 0 0 0 0 0 0 0 0 0 0 0 0 0 0 0 0 0 0 0 0 0 0 0 0 0 0 0 0 0 0 0 0 0 0 0 0
1.00767 4.73137e-08 1.72261e-08 3.00876e-08 0.635917 0.702528 0 0 0 0 0 0 0 0 0 0 0 0 0 0 0 0 0 0 0 0 0 0 0 0 0 0 0 0 0 0 0 0 0 0 0 0 0 0 0 0 0 0
1.05939 4.65095e-08 1.64325e-08 3.00771e-08 0.646686 0.687899 0 0 0 0 0 0 0 0 0 0 0 0 0 0 0 0 0 0 0 0 0 0 0 0 0 0 0 0 0 0 0 0 0 0 0 0 0 0 0 0 0 0
1.11377 4.72531e-08 1.66797e-08 3.05735e-08 0.647015 0.692854 0 0 0 0 0 0 0 0 0 0 0 0 0 0 0 0 0 0 0 0 0 0 0 0 0 0 0 0 0 0 0 0 0 0 0 0 0 0 0 0 0 0
1.17094 4.6991e-08 1.73666e-08 2.96243e-08 0.630426 0.666033 0 0 0 0 0 0 0 0 0 0 0 0 0 0 0 0 0 0 0 0 0 0 0 0 0 0 0 0 0 0 0 0 0 0 0 0 0 0 0 0 0 0
1.23105 4.34249e-08 1.56133e-08 2.78116e-08 0.640453 0.629946 0 0 0 0 0 0 0 0 0 0 0 0 0 0 0 0 0 0 0 0 0 0 0 0 0 0 0 0 0 0 0 0 0 0 0 0 0 0 0 0 0 0
1.29424 4.45539e-08 1.69158e-08 2.76381e-08 0.620329 0.600161 0 0 0 0 0 0 0 0 0 0 0 0 0 0 0 0 0 0 0 0 0 0 0 0 0 0 0 0 0 0 0 0 0 0 0 0 0 0 0 0 0 0
1.36067 4.39845e-08 1.68051e-08 2.71794e-08 0.617932 0.549773 0 0 0 0 0 0 0 0 0 0 0 0 0 0 0 0 0 0 0 0 0 0 0 0 0 0 0 0 0 0 0 0 0 0 0 0 0 0 0 0 0 0
1.43051 4.04343e-08 1.52459e-08 2.51884e-08 0.622947 0.496702 0 0 0 0 0 0 0 0 0 0 0 0 0 0 0 0 0 0 0 0 0 0 0 0 0 0 0 0 0 0 0 0 0 0 0 0 0 0 0 0 0 0
1.50394 4.42794e-08 1.67044e-08 2.7575e-08 0.62275 0.470279 0 0 0 0 0 0 0 0 0 0 0 0 0 0 0 0 0 0 0 0 0 0 0 0 0 0 0 0 0 0 0 0 0 0 0 0 0 0 0 0 0 0
1.58114 4.43942e-08 1.55174e-08 2.88769e-08 0.650464 0.451696 0 0 0 0 0 0 0 0 0 0 0 0 0 0 0 0 0 0 0 0 0 0 0 0 0 0 0 0 0 0 0 0 0 0 0 0 0 0 0 0 0 0
1.6623 4.60638e-08 1.52785e-08 3.07853e-08 0.668318 0.478932 0 0 0 0 0 0 0 0 0 0 0 0 0 0 0 0 0 0 0 0 0 0 0 0 0 0 0 0 0 0 0 0 0 0 0 0 0 0 0 0 0 0
1.74763 4.68285e-08 1.50322e-08 3.17963e-08 0.678994 0.499504 0 0 0 0 0 0 0 0 0 0 0 0 0 0 0 0 0 0 0 0 0 0 0 0 0 0 0 0 0 0 0 0 0 0 0 0 0 0 0 0 0 0
1.83733 5.30418e-08 1.62728e-08 3.67691e-08 0.693208 0.483228 0 0 0 0 0 0 0 0 0 0 0 0 0 0 0 0 0 0 0 0 0 0 0 0 0 0 0 0 0 0 0 0 0 0 0 0 0 0 0 0 0 0
1.93164 5.12325e-08 1.46406e-08 3.65919e-08 0.714232 0.449133 0 0 0 0 0 0 0 0 0 0 0 0 0 0 0 0 0 0 0 0 0 0 0 0 0 0 0 0 0 0 0 0 0 0 0 0 0 0 0 0 0 0
2.03079 5.25685e-08 1.38498e-08 3.87187e-08 0.736538 0.457892 0 0 0 0 0 0 0 0 0 0 0 0 0 0 0 0 0 0 0 0 0 0 0 0 0 0 0 0 0 0 0 0 0 0 0 0 0 0 0 0 0 0
2.13503 5.54814e-08 1.39156e-08 4.15657e-08 0.749184 0.469853 0 0 0 0 0 0 0 0 0 0 0 0 0 0 0 0 0 0 0 0 0 0 0 0 0 0 0 0 0 0 0 0 0 0 0 0 0 0 0 0 0 0
2.24463 5.96464e-08 1.44105e-08 4.52359e-08 0.758401 0.482259 0 0 0 0 0 0 0 0 0 0 0 0 0 0 0 0 0 0 0 0 0 0 0 0 0 0 0 0 0 0 0 0 0 0 0 0 0 0 0 0 0 0
2.35984 6.42954e-08 1.52332e-08 4.90622e-08 0.763075 0.477707 0 0 0 0 0 0 0 0 0 0 0 0 0 0 0 0 0 0 0 0 0 0 0 0 0 0 0 0 0 0 0 0 0 0 0 0 0 0 0 0 0 0
2.48097 6.02795e-08 1.47255e-08 4.5554e-08 0.755713 0.447881 0 0 0 0 0 0 0 0 0 0 0 0 0 0 0 0 0 0 0 0 0 0 0 0 0 0 0 0 0 0 0 0 0 0 0 0 0 0 0 0 0 0
2.60832 5.54416e-08 1.37136e-08 4.1728e-08 0.752648 0.415882 0 0 0 0 0 0 0 0 0 0 0 0 0 0 0 0 0 0 0 0 0 0 0 0 0 0 0 0 0 0 0 0 0 0 0 0 0 0 0 0 0 0
2.74221 5.41896e-08 1.3192e-08 4.09976e-08 0.756558 0.384961 0 0 0 0 0 0 0 0 0 0 0 0 0 0 0 0 0 0 0 0 0 0 0 0 0 0 0 0 0 0 0 0 0 0 0 0 0 0 0 0 0 0
2.88297 5.46715e-08 1.29428e-08 4.17287e-08 0.763263 0.353675 0 0 0 0 0 0 0 0 0 0 0 0 0 0 0 0 0 0 0 0 0 0 0 0 0 0 0 0 0 0 0 0 0 0 0 0 0 0 0 0 0 0
3.03095 5.62891e-08 1.28825e-08 4.34066e-08 0.771137 0.325333 0 0 0 0 0 0 0 0 0 0 0 0 0 0 0 0 0 0 0 0 0 0 0 0 0 0 0 0 0 0 0 0 0 0 0 0 0 0 0 0 0 0
3.18653 5.84118e-08 1.30142e-08 4.53976e-08 0.7772 0.30426 0 0 0 0 0 0 0 0 0 0 0 0 0 0 0 0 0 0 0 0 0 0 0 0 0 0 0 0 0 0 0 0 0 0 0 0 0 0 0 0 0 0
3.35009 5.90749e-08 1.32272e-08 4.58477e-08 0.776094 0.291041 0 0 0 0 0 0 0 0 0 0 0 0 0 0 0 0 0 0 0 0 0 0 0 0 0 0 0 0 0 0 0 0 0 0 0 0 0 0 0 0 0 0
3.52205 5.60493e-08 1.32633e-08 4.27859e-08 0.763363 0.278446 0 0 0 0 0 0 0 0 0 0 0 0 0 0 0 0 0 0 0 0 0 0 0 0 0 0 0 0 0 0 0 0 0 0 0 0 0 0 0 0 0 0
3.70284 5.115e-08 1.31135e-08 3.80365e-08 0.743627 0.255223 0 0 0 0 0 0 0 0 0 0 0 0 0 0 0 0 0 0 0 0 0 0 0 0 0 0 0 0 0 0 0 0 0 0 0 0 0 0 0 0 0 0
3.89291 4.72963e-08 1.30165e-08 3.42798e-08 0.724788 0.220157 0 0 0 0 0 0 0 0 0 0 0 0 0 0 0 0 0 0 0 0 0 0 0 0 0 0 0 0 0 0 0 0 0 0 0 0 0 0 0 0 0 0
4.09273 4.47067e-08 1.30198e-08 3.16868e-08 0.708772 0.180561 0 0 0 0 0 0 0 0 0 0 0 0 0 0 0 0 0 0 0 0 0 0 0 0 0 0 0 0 0 0 0 0 0 0 0 0 0 0 0 0 0 0
4.30281 4.27187e-08 1.30703e-08 2.96484e-08 0.694038 0.14289 0 0 0 0 0 0 0 0 0 0 0 0 0 0 0 0 0 0 0 0 0 0 0 0 0 0 0 0 0 0 0 0 0 0 0 0 0 0 0 0 0 0
4.52368 4.08202e-08 1.30929e-08 2.77273e-08 0.679255 0.109688 0 0 0 0 0 0 0 0 0 0 0 0 0 0 0 0 0 0 0 0 0 0 0 0 0 0 0 0 0 0 0 0 0 0 0 0 0 0 0 0 0 0
4.75588 3.8736e-08 1.3029e-08 2.57069e-08 0.663645 0.081012 0 0 0 0 0 0 0 0 0 0 0 0 0 0 0 0 0 0 0 0 0 0 0 0 0 0 0 0 0 0 0 0 0 0 0 0 0 0 0 0 0 0
5 3.6354e-08 1.28384e-08 2.35156e-08 0.646849 0.0562482 0 0 0 0 0 0 0 0 0 0 0 0 0 0 0 0 0 0 0 0 0 0 0 0 0 0 0 0 0 0 0 0 0 0 0 0 0 0 0 0 0 0
5.25665 3.36569e-08 1.24923e-08 2.11645e-08 0.628832 0.0347018 0 0 0 0 0 0 0 0 0 0 0 0 0 0 0 0 0 0 0 0 0 0 0 0 0 0 0 0 0 0 0 0 0 0 0 0 0 0 0 0 0 0
5.52648 3.07321e-08 1.2012e-08 1.872e-08 0.609137 0.0159124 0 0 0 0 0 0 0 0 0 0 0 0 0 0 0 0 0 0 0 0 0 0 0 0 0 0 0 0 0 0 0 0 0 0 0 0 0 0 0 0 0 0
5.81015 2.77037e-08 1.14308e-08 1.62729e-08 0.58739 -0.000562354 0 0 0 0 0 0 0 0 0 0 0 0 0 0 0 0 0 0 0 0 0 0 0 0 0 0 0 0 0 0 0 0 0 0 0 0 0 0 0 0 0 0
6.10839 2.4706e-08 1.078e-08 1.3926e-08 0.56367 -0.0149489 0 0 0 0 0 0 0 0 0 0 0 0 0 0 0 0 0 0 0 0 0 0 0 0 0 0 0 0 0 0 0 0 0 0 0 0 0 0 0 0 0 0
6.42193 2.18534e-08 1.01036e-08 1.17498e-08 0.537665 -0.027622 0 0 0 0 0 0 0 0 0 0 0 0 0 0 0 0 0 0 0 0 0 0 0 0 0 0 0 0 0 0 0 0 1.4013e-45 0 2.8026e-45 0 8.40779e-45 0 1.96182e-44 0 4.62428e-44 0
6.75157 1.92209e-08 9.41491e-09 9.80603e-09 0.510174 -0.0385586 0 0 0 0 0 0 0 0 0 0 0 0 0 0 0 0 0 0 0 0 0 0 0 0 1.4013e-45 0 7.00649e-45 0 2.24208e-44 0 6.72623e-44 0 1.87774e-43 0 4.93257e-43 0 1.20792e-42 0 2.74795e-42 0 6.17412e-42 0
7.09813 1.68568e-08 8.75231e-09 8.10452e-09 0.480786 -0.0480577 0 0 0 0 0 0 0 0 0 0 0 0 0 0 0 0 0 0 2.8026e-45 0 1.4013e-44 0 6.5861e-44 0 2.69049e-43 0 9.62692e-43 0 2.97496e-42 0 8.71187e-42 0 2.29238e-41 0 5.76102e-41 0 1.34829e-40 0 2.94814e-40 0 6.36708e-40 0
7.46248 1.4778e-08 8.12962e-09 6.64842e-09 0.449885 -0.0561634 0 0 0 0 0 0 0 0 0 0 0 0 0 0 5.60519e-45 0 5.60519e-44 0 3.6714e-43 0 1.9408e-42 0 8.37696e-42 0 3.17955e-41 0 1.06979e-40 0 3.12666e-40 0 8.68798e-40 0 2.18074e-39 0 5.23926e-39 0 1.17632e-38 0 2.47573e-38 0 5.14954e-38 0
7.84553 1.29756e-08 7.54919e-09 5.42639e-09 0.4182 -0.0628982 0 0 0 0 0 0 0 0 0 0 2.8026e-45 0 7.14662e-44 0 8.66002e-43 0 6.99108e-42 0 4.20348e-41 0 2.04896e-40 0 8.23727e-40 0 2.92918e-39 0 9.28885e-39 0 2.57633e-38 0 6.81036e-38 0 1.63433e-37 0 3.76203e-37 0 8.11948e-37 0 1.64788e-36 0 3.30721e-36 0
8.24824 1.14136e-08 7.00399e-09 4.40963e-09 0.386348 -0.0686188 0 0 0 0 0 0 0 0 1.26117e-44 0 4.84849e-43 0 8.77773e-42 0 9.34834e-41 0 6.82068e-40 0 3.75675e-39 0 1.69495e-38 0 6.36652e-38 0 2.12797e-37 0 6.37836e-37 0 1.68313e-36 0 4.24301e-36 0 9.75625e-36 0 2.15618e-35 0 4.48208e-35 0 8.78757e-35 0 1.70465e-34 0
8.67162 1.00806e-08 6.50931e-09 3.57129e-09 0.354273 -0.0733343 0 0 0 0 0 0 1.4013e-44 0 1.60028e-42 0 5.3056e-41 0 8.34938e-40 0 7.92217e-39 0 5.2456e-38 0 2.65829e-37 0 1.11429e-36 0 3.92358e-36 0 1.2364e-35 0 3.51258e-35 0 8.84016e-35 0 2.13015e-34 0 4.70289e-34 0 9.99891e-34 0 2.00554e-33 0 3.80491e-33 0 7.14594e-33 0
9.11674 8.94993e-09 6.06264e-09 2.88729e-09 0.322605 -0.0770061 0 0 0 0 1.4013e-45 0 1.76423e-42 0 1.6319e-40 0 4.55961e-39 0 6.27204e-38 0 5.33198e-37 0 3.21927e-36 0 1.50714e-35 0 5.89062e-35 0 1.95053e-34 0 5.81155e-34 0 1.56899e-33 0 3.77471e-33 0 8.71336e-33 0 1.85074e-32 0 3.79262e-32 0 7.35291e-32 0 1.35205e-31 0 2.46233e-31 0
9.5847 7.99013e-09 5.6592e-09 2.33093e-09 0.291727 -0.0796722 0 0 0 0 2.60642e-43 0 1.76594e-40 0 1.30983e-38 0 3.11058e-37 0 3.76476e-36 0 2.88294e-35 0 1.59433e-34 0 6.92218e-34 0 2.53132e-33 0 7.90591e-33 0 2.23327e-32 0 5.74393e-32 0 1.32391e-31 0 2.93374e-31 0 6.00634e-31 0 1.18847e-30 0 2.23086e-30 0 3.9819e-30 0 7.04257e-30 0
10.0767 7.16885e-09 5.28914e-09 1.87972e-09 0.262206 -0.0813721 0 0 0 0 2.81997e-41 0 1.39186e-38 0 8.36605e-37 0 1.70209e-35 0 1.82393e-34 0 1.26456e-33 0 6.4331e-33 0 2.59987e-32 0 8.92405e-32 0 2.63644e-31 0 7.07927e-31 0 1.7387e-30 0 3.84741e-30 0 8.20089e-30 0 1.62127e-29 0 3.10288e-29 0 5.64799e-29 0 9.80004e-29 0 1.68569e-28 0
10.5939 6.4572e-09 4.94297e-09 1.51424e-09 0.234504 -0.0823148 0 0 2.94273e-44 0 2.39324e-39 0 8.72656e-37 0 4.29452e-35 0 7.5421e-34 0 7.19824e-33 0 4.54048e-32 0 2.13348e-31 0 8.0539e-31 0 2.60296e-30 0 7.29379e-30 0 1.86629e-29 0 4.38696e-29 0 9.33824e-29 0 1.91827e-28 0 3.66819e-28 0 6.80139e-28 0 1.20234e-27 0 2.03084e-27 0 3.40192e-27 0
11.1377 5.84324e-09 4.62407e-09 1.21917e-09 0.208646 -0.0826253 0 0 3.49204e-42 0 1.6116e-37 0 4.40589e-35 0 1.79263e-33 0 2.73718e-32 0 2.33994e-31 0 1.34904e-30 0 5.87765e-30 0 2.07948e-29 0 6.34659e-29 0 1.69114e-28 0 4.13317e-28 0 9.31848e-28 0 1.91173e-27 0 3.79147e-27 0 7.02431e-27 0 1.26374e-26 0 2.17273e-26 0 3.57717e-26 0 5.84319e-26 0
11.7094 5.30568e-09 4.31547e-09 9.90209e-10 0.186632 -0.0818718 2.8026e-45 0 3.17778e-40 0 8.6798e-36 0 1.80432e-33 0 6.1262e-32 0 8.18852e-31 0 6.30385e-30 0 3.33643e-29 0 1.35286e-28 0 4.49998e-28 0 1.30058e-27 0 3.30365e-27 0 7.72948e-27 0 1.67484e-26 0 3.31756e-26 0 6.36326e-26 0 1.14393e-25 0 1.99987e-25 0 3.34857e-25 0 5.38049e-25 0 8.58078e-25 0
12.3105 4.82445e-09 4.03014e-09 7.94307e-10 0.164642 -0.0811747 2.95674e-43 0 2.28544e-38 0 3.79101e-34 0 6.07287e-32 0 1.73591e-30 0 2.0444e-29 0 1.42459e-28 0 6.95075e-28 0 2.6322e-27 0 8.25643e-27 0 2.26577e-26 0 5.49928e-26 0 1.23435e-25 0 2.57552e-25 0 4.9342e-25 0 9.16784e-25 0 1.60159e-24 0 2.72464e-24 0 4.44873e-24 0 6.98461e-24 0 1.08881e-23 0
12.9424 4.39316e-09 3.75316e-09 6.40002e-10 0.145681 -0.0803867 2.93628e-41 0 1.30975e-36 0 1.3519e-32 0 1.69023e-30 0 4.1019e-29 0 4.28282e-28 0 2.71449e-27 0 1.22581e-26 0 4.34987e-26 0 1.29036e-25 0 3.37075e-25 0 7.83458e-25 0 1.69046e-24 0 3.40279e-24 0 6.31542e-24 0 1.13846e-23 0 1.9354e-23 0 3.2082e-23 0 5.11439e-23 0 7.85479e-23 0 1.1982e-22 0
