# 1.7783e-05 0 108 : grain size, compostion index, size index
# Heating and cooling timescale: 0.00742556 295210
# Ratio of heating to cooling to determine stochastic cutoff: 100
# Equilibrium emission is recorded even for those grains in the stochastic regime.
# Emission spectrum was computed for: 
# Type: IRSF
# Scales: 0.25 0.5 1 1.5 2 2.5 3 3.5 4 4.5 5 5.5 6 6.5 7 7.5 8 8.5 9 9.5 10
# StochasticallyHeated: 0 0 0 0 0 0 0 0 0 0 0 0 0 0 0 0 0 0 0 0 0
# Temperature: -1
# Wavelength  CExt  CAbs  CSca  Albedo G EqEm1 StEm1 EqEm2 StEm2 EqEm3 StEm3 EqEm4 StEm4 EqEm5 StEm5 EqEm6 StEm6 EqEm7 StEm7 EqEm8 StEm8 EqEm9 StEm9 EqEm10 StEm10 EqEm11 StEm11 EqEm12 StEm12 EqEm13 StEm13 EqEm14 StEm14 EqEm15 StEm15 EqEm16 StEm16 EqEm17 StEm17 EqEm18 StEm18 EqEm19 StEm19 EqEm20 StEm20 EqEm21 StEm21
0.05 5.99857e-10 2.49831e-10 3.50026e-10 0.583516 0.00576547 0 0 0 0 0 0 0 0 0 0 0 0 0 0 0 0 0 0 0 0 0 0 0 0 0 0 0 0 0 0 0 0 0 0 0 0 0 0 0 0 0 0
0.0525665 6.63019e-10 2.76137e-10 3.86882e-10 0.583516 0.00637255 0 0 0 0 0 0 0 0 0 0 0 0 0 0 0 0 0 0 0 0 0 0 0 0 0 0 0 0 0 0 0 0 0 0 0 0 0 0 0 0 0 0
0.0552647 7.32831e-10 3.05213e-10 4.27619e-10 0.583516 0.00704355 0 0 0 0 0 0 0 0 0 0 0 0 0 0 0 0 0 0 0 0 0 0 0 0 0 0 0 0 0 0 0 0 0 0 0 0 0 0 0 0 0 0
0.0581015 8.09995e-10 3.3735e-10 4.72645e-10 0.583516 0.0077852 0 0 0 0 0 0 0 0 0 0 0 0 0 0 0 0 0 0 0 0 0 0 0 0 0 0 0 0 0 0 0 0 0 0 0 0 0 0 0 0 0 0
0.0610839 8.95284e-10 3.72871e-10 5.22412e-10 0.583516 0.00860494 0 0 0 0 0 0 0 0 0 0 0 0 0 0 0 0 0 0 0 0 0 0 0 0 0 0 0 0 0 0 0 0 0 0 0 0 0 0 0 0 0 0
0.0642193 9.89552e-10 4.12133e-10 5.7742e-10 0.583516 0.009511 0 0 0 0 0 0 0 0 0 0 0 0 0 0 0 0 0 0 0 0 0 0 0 0 0 0 0 0 0 0 0 0 0 0 0 0 0 0 0 0 0 0
0.0675157 1.09375e-09 4.55529e-10 6.38219e-10 0.583516 0.0105125 0 0 0 0 0 0 0 0 0 0 0 0 0 0 0 0 0 0 0 0 0 0 0 0 0 0 0 0 0 0 0 0 0 0 0 0 0 0 0 0 0 0
0.0709813 1.20891e-09 5.03493e-10 7.0542e-10 0.583516 0.0116194 0 0 0 0 0 0 0 0 0 0 0 0 0 0 0 0 0 0 0 0 0 0 0 0 0 0 0 0 0 0 0 0 0 0 0 0 0 0 0 0 0 0
0.0746248 1.33621e-09 5.56509e-10 7.79698e-10 0.583516 0.0128428 0 0 0 0 0 0 0 0 0 0 0 0 0 0 0 0 0 0 0 0 0 0 0 0 0 0 0 0 0 0 0 0 0 0 0 0 0 0 0 0 0 0
0.0784553 1.4769e-09 6.15106e-10 8.61796e-10 0.583516 0.0141951 0 0 0 0 0 0 0 0 0 0 0 0 0 0 0 0 0 0 0 0 0 0 0 0 0 0 0 0 0 0 0 0 0 0 0 0 0 0 0 0 0 0
0.0824824 1.63241e-09 6.79874e-10 9.52539e-10 0.583516 0.0156898 0 0 0 0 0 0 0 0 0 0 0 0 0 0 0 0 0 0 0 0 0 0 0 0 0 0 0 0 0 0 0 0 0 0 0 0 0 0 0 0 0 0
0.0867162 1.8043e-09 7.51462e-10 1.05284e-09 0.583516 0.0173419 0 0 0 0 0 0 0 0 0 0 0 0 0 0 0 0 0 0 0 0 0 0 0 0 0 0 0 0 0 0 0 0 0 0 0 0 0 0 0 0 0 0
0.0911674 1.99428e-09 8.30587e-10 1.1637e-09 0.583516 0.0191679 0 0 0 0 0 0 0 0 0 0 0 0 0 0 0 0 0 0 0 0 0 0 0 0 0 0 0 0 0 0 0 0 0 0 0 0 0 0 0 0 0 0
0.095847 2.20427e-09 9.18044e-10 1.28623e-09 0.583516 0.0211862 0 0 0 0 0 0 0 0 0 0 0 0 0 0 0 0 0 0 0 0 0 0 0 0 0 0 0 0 0 0 0 0 0 0 0 0 0 0 0 0 0 0
0.100767 2.39712e-09 1.00577e-09 1.39135e-09 0.580424 0.0235692 0 0 0 0 0 0 0 0 0 0 0 0 0 0 0 0 0 0 0 0 0 0 0 0 0 0 0 0 0 0 0 0 0 0 0 0 0 0 0 0 0 0
0.105939 2.39095e-09 1.04664e-09 1.34431e-09 0.562251 0.0256046 0 0 0 0 0 0 0 0 0 0 0 0 0 0 0 0 0 0 0 0 0 0 0 0 0 0 0 0 0 0 0 0 0 0 0 0 0 0 0 0 0 0
0.111377 2.39701e-09 1.06124e-09 1.33577e-09 0.557266 0.0289403 0 0 0 0 0 0 0 0 0 0 0 0 0 0 0 0 0 0 0 0 0 0 0 0 0 0 0 0 0 0 0 0 0 0 0 0 0 0 0 0 0 0
0.117094 2.3967e-09 1.09899e-09 1.29771e-09 0.541456 0.0274507 0 0 0 0 0 0 0 0 0 0 0 0 0 0 0 0 0 0 0 0 0 0 0 0 0 0 0 0 0 0 0 0 0 0 0 0 0 0 0 0 0 0
0.123105 2.40762e-09 1.14978e-09 1.25784e-09 0.522443 0.0236555 0 0 0 0 0 0 0 0 0 0 0 0 0 0 0 0 0 0 0 0 0 0 0 0 0 0 0 0 0 0 0 0 0 0 0 0 0 0 0 0 0 0
0.129424 2.4193e-09 1.19319e-09 1.22611e-09 0.506803 0.0199126 0 0 0 0 0 0 0 0 0 0 0 0 0 0 0 0 0 0 0 0 0 0 0 0 0 0 0 0 0 0 0 0 0 0 0 0 0 0 0 0 0 0
0.136067 2.44113e-09 1.23146e-09 1.20967e-09 0.495535 0.0168557 0 0 0 0 0 0 0 0 0 0 0 0 0 0 0 0 0 0 0 0 0 0 0 0 0 0 0 0 0 0 0 0 0 0 0 0 0 0 0 0 0 0
0.143051 2.4409e-09 1.26474e-09 1.17616e-09 0.481855 0.0143876 0 0 0 0 0 0 0 0 0 0 0 0 0 0 0 0 0 0 0 0 0 0 0 0 0 0 0 0 0 0 0 0 0 0 0 0 0 0 0 0 0 0
0.150394 2.43185e-09 1.28083e-09 1.15103e-09 0.473313 0.0122986 0 0 0 0 0 0 0 0 0 0 0 0 0 0 0 0 0 0 0 0 0 0 0 0 0 0 0 0 0 0 0 0 0 0 0 0 0 0 0 0 0 0
0.158114 2.42246e-09 1.27261e-09 1.14986e-09 0.474664 0.01055 0 0 0 0 0 0 0 0 0 0 0 0 0 0 0 0 0 0 0 0 0 0 0 0 0 0 0 0 0 0 0 0 0 0 0 0 0 0 0 0 0 0
0.16623 2.34535e-09 1.24806e-09 1.0973e-09 0.46786 0.00908216 0 0 0 0 0 0 0 0 0 0 0 0 0 0 0 0 0 0 0 0 0 0 0 0 0 0 0 0 0 0 0 0 0 0 0 0 0 0 0 0 0 0
0.174762 2.26158e-09 1.21812e-09 1.04346e-09 0.461384 0.00782097 0 0 0 0 0 0 0 0 0 0 0 0 0 0 0 0 0 0 0 0 0 0 0 0 0 0 0 0 0 0 0 0 0 0 0 0 0 0 0 0 0 0
0.183733 2.24237e-09 1.18502e-09 1.05734e-09 0.47153 0.00667218 0 0 0 0 0 0 0 0 0 0 0 0 0 0 0 0 0 0 0 0 0 0 0 0 0 0 0 0 0 0 0 0 0 0 0 0 0 0 0 0 0 0
0.193164 2.31184e-09 1.15317e-09 1.15866e-09 0.501187 0.00556038 0 0 0 0 0 0 0 0 0 0 0 0 0 0 0 0 0 0 0 0 0 0 0 0 0 0 0 0 0 0 0 0 0 0 0 0 0 0 0 0 0 0
0.203079 2.44166e-09 1.13305e-09 1.30861e-09 0.535951 0.00446034 0 0 0 0 0 0 0 0 0 0 0 0 0 0 0 0 0 0 0 0 0 0 0 0 0 0 0 0 0 0 0 0 0 0 0 0 0 0 0 0 0 0
0.213503 2.59359e-09 1.13177e-09 1.46182e-09 0.563629 0.00342932 0 0 0 0 0 0 0 0 0 0 0 0 0 0 0 0 0 0 0 0 0 0 0 0 0 0 0 0 0 0 0 0 0 0 0 0 0 0 0 0 0 0
0.224463 2.73007e-09 1.14118e-09 1.58889e-09 0.581997 0.00254317 0 0 0 0 0 0 0 0 0 0 0 0 0 0 0 0 0 0 0 0 0 0 0 0 0 0 0 0 0 0 0 0 0 0 0 0 0 0 0 0 0 0
0.235984 2.81363e-09 1.14128e-09 1.67235e-09 0.594376 0.00182186 0 0 0 0 0 0 0 0 0 0 0 0 0 0 0 0 0 0 0 0 0 0 0 0 0 0 0 0 0 0 0 0 0 0 0 0 0 0 0 0 0 0
0.248097 2.83649e-09 1.12997e-09 1.70651e-09 0.60163 0.00138916 0 0 0 0 0 0 0 0 0 0 0 0 0 0 0 0 0 0 0 0 0 0 0 0 0 0 0 0 0 0 0 0 0 0 0 0 0 0 0 0 0 0
0.260832 2.80981e-09 1.11961e-09 1.6902e-09 0.601535 0.00141961 0 0 0 0 0 0 0 0 0 0 0 0 0 0 0 0 0 0 0 0 0 0 0 0 0 0 0 0 0 0 0 0 0 0 0 0 0 0 0 0 0 0
0.274221 2.76285e-09 1.12636e-09 1.63649e-09 0.592319 0.00187131 0 0 0 0 0 0 0 0 0 0 0 0 0 0 0 0 0 0 0 0 0 0 0 0 0 0 0 0 0 0 0 0 0 0 0 0 0 0 0 0 0 0
0.288297 2.73175e-09 1.16325e-09 1.5685e-09 0.574175 0.00251556 0 0 0 0 0 0 0 0 0 0 0 0 0 0 0 0 0 0 0 0 0 0 0 0 0 0 0 0 0 0 0 0 0 0 0 0 0 0 0 0 0 0
0.303095 2.72495e-09 1.21786e-09 1.50709e-09 0.553072 0.0028362 0 0 0 0 0 0 0 0 0 0 0 0 0 0 0 0 0 0 0 0 0 0 0 0 0 0 0 0 0 0 0 0 0 0 0 0 0 0 0 0 0 0
0.318653 2.73337e-09 1.27184e-09 1.46153e-09 0.5347 0.00297223 0 0 0 0 0 0 0 0 0 0 0 0 0 0 0 0 0 0 0 0 0 0 0 0 0 0 0 0 0 0 0 0 0 0 0 0 0 0 0 0 0 0
0.335009 2.74932e-09 1.31781e-09 1.43152e-09 0.52068 0.00293231 0 0 0 0 0 0 0 0 0 0 0 0 0 0 0 0 0 0 0 0 0 0 0 0 0 0 0 0 0 0 0 0 0 0 0 0 0 0 0 0 0 0
0.352205 2.76843e-09 1.35585e-09 1.41259e-09 0.510248 0.00278811 0 0 0 0 0 0 0 0 0 0 0 0 0 0 0 0 0 0 0 0 0 0 0 0 0 0 0 0 0 0 0 0 0 0 0 0 0 0 0 0 0 0
0.370284 2.79038e-09 1.38789e-09 1.40249e-09 0.502616 0.00261033 0 0 0 0 0 0 0 0 0 0 0 0 0 0 0 0 0 0 0 0 0 0 0 0 0 0 0 0 0 0 0 0 0 0 0 0 0 0 0 0 0 0
0.389291 2.81606e-09 1.41646e-09 1.3996e-09 0.497006 0.00243645 0 0 0 0 0 0 0 0 0 0 0 0 0 0 0 0 0 0 0 0 0 0 0 0 0 0 0 0 0 0 0 0 0 0 0 0 0 0 0 0 0 0
0.409273 2.84129e-09 1.44153e-09 1.39976e-09 0.492649 0.00226652 0 0 0 0 0 0 0 0 0 0 0 0 0 0 0 0 0 0 0 0 0 0 0 0 0 0 0 0 0 0 0 0 0 0 0 0 0 0 0 0 0 0
0.430281 2.86121e-09 1.46099e-09 1.40022e-09 0.489381 0.00210471 0 0 0 0 0 0 0 0 0 0 0 0 0 0 0 0 0 0 0 0 0 0 0 0 0 0 0 0 0 0 0 0 0 0 0 0 0 0 0 0 0 0
0.452368 2.87678e-09 1.47483e-09 1.40195e-09 0.487333 0.00193723 0 0 0 0 0 0 0 0 0 0 0 0 0 0 0 0 0 0 0 0 0 0 0 0 0 0 0 0 0 0 0 0 0 0 0 0 0 0 0 0 0 0
0.475588 2.89442e-09 1.48697e-09 1.40745e-09 0.486262 0.00177642 0 0 0 0 0 0 0 0 0 0 0 0 0 0 0 0 0 0 0 0 0 0 0 0 0 0 0 0 0 0 0 0 0 0 0 0 0 0 0 0 0 0
0.5 2.92209e-09 1.50324e-09 1.41886e-09 0.485561 0.00162159 0 0 0 0 0 0 0 0 0 0 0 0 0 0 0 0 0 0 0 0 0 0 0 0 0 0 0 0 0 0 0 0 0 0 0 0 0 0 0 0 0 0
0.525665 2.96226e-09 1.52732e-09 1.43495e-09 0.484409 0.0014751 0 0 0 0 0 0 0 0 0 0 0 0 0 0 0 0 0 0 0 0 0 0 0 0 0 0 0 0 0 0 0 0 0 0 0 0 0 0 0 0 0 0
0.552648 3.00942e-09 1.55784e-09 1.45158e-09 0.482346 0.00134175 0 0 0 0 0 0 0 0 0 0 0 0 0 0 0 0 0 0 0 0 0 0 0 0 0 0 0 0 0 0 0 0 0 0 0 0 0 0 0 0 0 0
0.581015 3.05214e-09 1.58885e-09 1.46329e-09 0.479431 0.00121775 0 0 0 0 0 0 0 0 0 0 0 0 0 0 0 0 0 0 0 0 0 0 0 0 0 0 0 0 0 0 0 0 0 0 0 0 0 0 0 0 0 0
0.610839 3.07909e-09 1.6124e-09 1.46669e-09 0.47634 0.00110516 0 0 0 0 0 0 0 0 0 0 0 0 0 0 0 0 0 0 0 0 0 0 0 0 0 0 0 0 0 0 0 0 0 0 0 0 0 0 0 0 0 0
0.642193 3.08588e-09 1.62279e-09 1.46309e-09 0.474124 0.00100302 0 0 0 0 0 0 0 0 0 0 0 0 0 0 0 0 0 0 0 0 0 0 0 0 0 0 0 0 0 0 0 0 0 0 0 0 0 0 0 0 0 0
0.675157 3.07887e-09 1.62001e-09 1.45886e-09 0.473829 0.000910957 0 0 0 0 0 0 0 0 0 0 0 0 0 0 0 0 0 0 0 0 0 0 0 0 0 0 0 0 0 0 0 0 0 0 0 0 0 0 0 0 0 0
0.709813 3.07061e-09 1.6096e-09 1.46101e-09 0.475804 0.00082817 0 0 0 0 0 0 0 0 0 0 0 0 0 0 0 0 0 0 0 0 0 0 0 0 0 0 0 0 0 0 0 0 0 0 0 0 0 0 0 0 0 0
0.746248 3.07353e-09 1.59953e-09 1.474e-09 0.479579 0.000754183 0 0 0 0 0 0 0 0 0 0 0 0 0 0 0 0 0 0 0 0 0 0 0 0 0 0 0 0 0 0 0 0 0 0 0 0 0 0 0 0 0 0
0.784553 3.09366e-09 1.59644e-09 1.49722e-09 0.483965 0.000686995 0 0 0 0 0 0 0 0 0 0 0 0 0 0 0 0 0 0 0 0 0 0 0 0 0 0 0 0 0 0 0 0 0 0 0 0 0 0 0 0 0 0
0.824824 3.1313e-09 1.60431e-09 1.52698e-09 0.487652 0.000626788 0 0 0 0 0 0 0 0 0 0 0 0 0 0 0 0 0 0 0 0 0 0 0 0 0 0 0 0 0 0 0 0 0 0 0 0 0 0 0 0 0 0
0.867162 3.18069e-09 1.62336e-09 1.55733e-09 0.48962 0.000572518 0 0 0 0 0 0 0 0 0 0 0 0 0 0 0 0 0 0 0 0 0 0 0 0 0 0 0 0 0 0 0 0 0 0 0 0 0 0 0 0 0 0
0.911674 3.23297e-09 1.65125e-09 1.58172e-09 0.489247 0.000523427 0 0 0 0 0 0 0 0 0 0 0 0 0 0 0 0 0 0 0 0 0 0 0 0 0 0 0 0 0 0 0 0 0 0 0 0 0 0 0 0 0 0
0.95847 3.277e-09 1.68348e-09 1.59352e-09 0.486273 0.00047944 0 0 0 0 0 0 0 0 0 0 0 0 0 0 0 0 0 0 0 0 0 0 0 0 0 0 0 0 0 0 0 0 0 0 0 0 0 0 0 0 0 0
1.00767 3.30089e-09 1.71428e-09 1.58661e-09 0.480661 0.0004395 0 0 0 0 0 0 0 0 0 0 0 0 0 0 0 0 0 0 0 0 0 0 0 0 0 0 0 0 0 0 0 0 0 0 0 0 0 0 0 0 0 0
1.05939 3.294e-09 1.73762e-09 1.55639e-09 0.472491 0.000403275 0 0 0 0 0 0 0 0 0 0 0 0 0 0 0 0 0 0 0 0 0 0 0 0 0 0 0 0 0 0 0 0 0 0 0 0 0 0 0 0 0 0
1.11377 3.24648e-09 1.74704e-09 1.49944e-09 0.461865 0.000370298 0 0 0 0 0 0 0 0 0 0 0 0 0 0 0 0 0 0 0 0 0 0 0 0 0 0 0 0 0 0 0 0 0 0 0 0 0 0 0 0 0 0
1.17094 3.15465e-09 1.73806e-09 1.41659e-09 0.449049 0.000339515 0 0 0 0 0 0 0 0 0 0 0 0 0 0 0 0 0 0 0 0 0 0 0 0 0 0 0 0 0 0 0 0 0 0 0 0 0 0 0 0 0 0
1.23105 3.01801e-09 1.70769e-09 1.31032e-09 0.434165 0.000311294 0 0 0 0 0 0 0 0 0 0 0 0 0 0 0 0 0 0 0 0 0 0 0 0 0 0 0 0 0 0 0 0 0 0 0 0 0 0 0 0 0 0
1.29424 2.84192e-09 1.65548e-09 1.18643e-09 0.417476 0.000285362 0 0 0 0 0 0 0 0 0 0 0 0 0 0 0 0 0 0 0 0 0 0 0 0 0 0 0 0 0 0 0 0 0 0 0 0 0 0 0 0 0 0
1.36067 2.63625e-09 1.58357e-09 1.05268e-09 0.399311 0.000261742 0 0 0 0 0 0 0 0 0 0 0 0 0 0 0 0 0 0 0 0 0 0 0 0 0 0 0 0 0 0 0 0 0 0 0 0 0 0 0 0 0 0
1.43051 2.41133e-09 1.49528e-09 9.16059e-10 0.379897 0.000240209 0 0 0 0 0 0 0 0 0 0 0 0 0 0 0 0 0 0 0 0 0 0 0 0 0 0 0 0 0 0 0 0 0 0 0 0 0 0 0 0 0 0
1.50394 2.18e-09 1.39583e-09 7.84164e-10 0.359709 0.000220279 0 0 0 0 0 0 0 0 0 0 0 0 0 0 0 0 0 0 0 0 0 0 0 0 0 0 0 0 0 0 0 0 0 0 0 0 0 0 0 0 0 0
1.58114 1.95174e-09 1.28986e-09 6.61878e-10 0.339122 0.000201732 0 0 0 0 0 0 0 0 0 0 0 0 0 0 0 0 0 0 0 0 0 0 0 0 0 0 0 0 0 0 0 0 0 0 0 0 0 0 0 0 0 0
1.6623 1.73368e-09 1.18154e-09 5.52144e-10 0.318481 0.000184534 0 0 0 0 0 0 0 0 0 0 0 0 0 0 0 0 0 0 0 0 0 0 0 0 0 0 0 0 0 0 0 0 0 0 0 0 0 0 0 0 0 0
1.74763 1.531e-09 1.07455e-09 4.56452e-10 0.29814 0.000169005 0 0 0 0 0 0 0 0 0 0 0 0 0 0 0 0 0 0 0 0 0 0 0 0 0 0 0 0 0 0 0 0 0 0 0 0 0 0 0 0 0 0
1.83733 1.34602e-09 9.71329e-10 3.74691e-10 0.27837 0.000154804 0 0 0 0 0 0 0 0 0 0 0 0 0 0 0 0 0 0 0 0 0 0 0 0 0 0 0 0 0 0 0 0 0 0 0 0 0 0 0 0 0 0
1.93164 1.17953e-09 8.73583e-10 3.05944e-10 0.259379 0.000141793 0 0 0 0 0 0 0 0 0 0 0 0 0 0 0 0 0 0 0 0 0 0 0 0 0 0 0 0 0 0 0 0 0 0 0 0 0 0 0 0 0 0
2.03079 1.03128e-09 7.82407e-10 2.48871e-10 0.241323 0.000129725 0 0 0 0 0 0 0 0 0 0 0 0 0 0 0 0 0 0 0 0 0 0 0 0 0 0 0 0 0 0 0 0 0 0 0 0 0 0 0 0 0 0
2.13503 9.00294e-10 6.9834e-10 2.01953e-10 0.224319 0.000118657 0 0 0 0 0 0 0 0 0 0 0 0 0 0 0 0 0 0 0 0 0 0 0 0 0 0 0 0 0 0 0 0 0 0 0 0 0 0 0 0 0 0
2.24463 7.85064e-10 6.21473e-10 1.63591e-10 0.20838 0.000108569 0 0 0 0 0 0 0 0 0 0 0 0 0 0 0 0 0 0 0 0 0 0 0 0 0 0 0 0 0 0 0 0 0 0 0 0 0 0 0 0 0 0
2.35984 6.84141e-10 5.5174e-10 1.32401e-10 0.193528 9.92926e-05 0 0 0 0 0 0 0 0 0 0 0 0 0 0 0 0 0 0 0 0 0 0 0 0 0 0 0 0 0 0 0 0 0 0 0 0 0 0 0 0 0 0
2.48097 5.95946e-10 4.88841e-10 1.07105e-10 0.179722 9.07218e-05 0 0 0 0 0 0 0 0 0 0 0 0 0 0 0 0 0 0 0 0 0 0 0 0 0 0 0 0 0 0 0 0 0 0 0 0 0 0 0 0 0 0
2.60832 5.19048e-10 4.32411e-10 8.6637e-11 0.166915 8.27967e-05 0 0 0 0 0 0 0 0 0 0 0 0 0 0 0 0 0 0 0 0 0 0 0 0 0 0 0 0 0 0 0 0 0 0 0 0 0 0 0 0 0 0
2.74221 4.52128e-10 3.82022e-10 7.01062e-11 0.155058 7.55862e-05 0 0 0 0 0 0 0 0 0 0 0 0 0 0 0 0 0 0 0 0 0 0 0 0 0 0 0 0 0 0 0 0 0 0 0 0 0 0 0 0 0 0
2.88297 3.93868e-10 3.37129e-10 5.67396e-11 0.144057 6.90729e-05 0 0 0 0 0 0 0 0 0 0 0 0 0 0 0 0 0 0 0 0 0 0 0 0 0 0 0 0 0 0 0 0 0 0 0 0 0 0 0 0 0 0
3.03095 3.43311e-10 2.97353e-10 4.59576e-11 0.133866 6.31538e-05 0 0 0 0 0 0 0 0 0 0 0 0 0 0 0 0 0 0 0 0 0 0 0 0 0 0 0 0 0 0 0 0 0 0 0 0 0 0 0 0 0 0
3.18653 2.99391e-10 2.62149e-10 3.72414e-11 0.124391 5.76567e-05 0 0 0 0 0 0 0 0 0 0 0 0 0 0 0 0 0 0 0 0 0 0 0 0 0 0 0 0 0 0 0 0 0 0 0 0 0 0 0 0 0 0
3.35009 2.61279e-10 2.31081e-10 3.01981e-11 0.115578 5.2603e-05 0 0 0 0 0 0 0 0 0 0 0 0 0 0 0 0 0 0 0 0 0 0 0 0 0 0 0 0 0 0 0 0 0 0 0 0 0 0 0 0 0 0
3.52205 2.28245e-10 2.0374e-10 2.45057e-11 0.107366 4.80102e-05 0 0 0 0 0 0 0 0 0 0 0 0 0 0 0 0 0 0 0 0 0 0 0 0 0 0 0 0 0 0 0 0 0 0 0 0 0 0 0 0 0 0
3.70284 1.99601e-10 1.79703e-10 1.98977e-11 0.0996874 4.38066e-05 0 0 0 0 0 0 0 0 0 0 0 0 0 0 0 0 0 0 0 0 0 0 0 0 0 0 0 0 0 0 0 0 0 0 0 0 0 0 0 0 0 0
3.89291 1.74777e-10 1.58612e-10 1.61655e-11 0.0924921 3.9926e-05 0 0 0 0 0 0 0 0 0 0 0 0 0 0 0 0 0 0 0 0 0 0 0 0 0 0 0 0 0 0 0 0 0 0 0 0 0 0 0 0 0 0
4.09273 1.53271e-10 1.40128e-10 1.31431e-11 0.0857508 3.62643e-05 0 0 0 0 0 0 0 0 0 0 0 0 0 0 0 0 0 0 0 0 0 0 0 0 0 0 0 0 0 0 0 0 0 0 0 0 0 0 0 0 0 0
4.30281 1.34625e-10 1.23932e-10 1.06922e-11 0.0794224 3.29535e-05 0 0 0 0 0 0 0 0 0 0 0 0 0 0 0 0 0 0 0 0 0 0 0 0 0 0 0 0 0 0 0 0 0 0 0 0 0 0 0 0 1.4013e-45 0
4.52368 1.18481e-10 1.09776e-10 8.70462e-12 0.0734686 2.99416e-05 0 0 0 0 0 0 0 0 0 0 0 0 0 0 0 0 0 0 0 0 0 0 0 0 0 0 0 0 0 0 0 0 1.4013e-45 0 4.2039e-45 0 1.4013e-44 0 3.92364e-44 0 1.02295e-43 0
4.75588 1.04475e-10 9.73853e-11 7.09004e-12 0.0678633 2.71796e-05 0 0 0 0 0 0 0 0 0 0 0 0 0 0 0 0 0 0 0 0 0 0 0 0 1.4013e-45 0 2.8026e-45 0 1.4013e-44 0 5.1848e-44 0 1.80768e-43 0 5.63322e-43 0 1.58487e-42 0 4.36224e-42 0 1.09455e-41 0
5 9.23161e-11 8.65389e-11 5.77714e-12 0.0625799 2.45398e-05 0 0 0 0 0 0 0 0 0 0 0 0 0 0 0 0 0 0 0 0 2.8026e-45 0 1.82169e-44 0 9.3887e-44 0 4.16186e-43 0 1.62831e-42 0 5.67666e-42 0 1.84873e-41 0 5.43928e-41 0 1.45423e-40 0 3.81139e-40 0 9.14239e-40 0
5.25665 8.17658e-11 7.70559e-11 4.70993e-12 0.0576026 2.21678e-05 0 0 0 0 0 0 0 0 0 0 0 0 0 0 0 0 5.60519e-45 0 5.1848e-44 0 3.65739e-43 0 2.11036e-42 0 9.79788e-42 0 4.01864e-41 0 1.46859e-40 0 4.81869e-40 0 1.48133e-39 0 4.13464e-39 0 1.05361e-38 0 2.63453e-38 0 6.05517e-38 0
5.52648 7.25971e-11 6.87557e-11 3.84138e-12 0.0529136 2.00489e-05 0 0 0 0 0 0 0 0 0 0 0 0 2.8026e-45 0 5.60519e-44 0 6.67018e-43 0 5.45946e-42 0 3.48797e-41 0 1.85033e-40 0 7.97108e-40 0 3.05163e-39 0 1.04683e-38 0 3.24125e-38 0 9.43242e-38 0 2.50406e-37 0 6.09611e-37 0 1.45761e-36 0 3.21676e-36 0
5.81015 6.46237e-11 6.14893e-11 3.13431e-12 0.048501 1.8115e-05 0 0 0 0 0 0 0 0 0 0 1.4013e-44 0 3.72745e-43 0 5.80698e-42 0 6.08878e-41 0 4.49961e-40 0 2.62607e-39 0 1.28409e-38 0 5.15105e-38 0 1.84691e-37 0 5.96559e-37 0 1.74793e-36 0 4.82819e-36 0 1.22209e-35 0 2.84869e-35 0 6.52755e-35 0 1.38594e-34 0
6.10839 5.76971e-11 5.51378e-11 2.55926e-12 0.0443568 1.63023e-05 0 0 0 0 0 0 0 0 2.52234e-44 0 1.46015e-42 0 3.44888e-41 0 4.70036e-40 0 4.39462e-39 0 2.94551e-38 0 1.5772e-37 0 7.1371e-37 0 2.67526e-36 0 9.01239e-36 0 2.74907e-35 0 7.64297e-35 0 2.00899e-34 0 4.85966e-34 0 1.08693e-33 0 2.39181e-33 0 4.89501e-33 0
6.42193 5.1225e-11 4.91409e-11 2.08413e-12 0.0406859 1.48144e-05 0 0 0 0 0 0 1.54143e-44 0 2.65546e-42 0 1.2353e-40 0 2.49951e-39 0 2.9986e-38 0 2.51369e-37 0 1.53536e-36 0 7.57453e-36 0 3.18406e-35 0 1.11894e-34 0 3.55245e-34 0 1.02619e-33 0 2.71407e-33 0 6.80527e-33 0 1.57667e-32 0 3.39055e-32 0 7.1791e-32 0 1.41877e-31 0
6.75157 4.62764e-11 4.45721e-11 1.70435e-12 0.0368297 1.32279e-05 0 0 0 0 1.4013e-45 0 1.66474e-42 0 2.18063e-40 0 8.40949e-39 0 1.46922e-37 0 1.56122e-36 0 1.17971e-35 0 6.59632e-35 0 3.01027e-34 0 1.17973e-33 0 3.89906e-33 0 1.17e-32 0 3.20915e-32 0 8.09397e-32 0 1.94041e-31 0 4.31494e-31 0 8.93858e-31 0 1.82457e-30 0 3.48786e-30 0
7.09813 4.16644e-11 4.02721e-11 1.39235e-12 0.0334183 1.18448e-05 0 0 0 0 1.35926e-43 0 1.36914e-40 0 1.41408e-38 0 4.56267e-37 0 6.93234e-36 0 6.56369e-35 0 4.49339e-34 0 2.30996e-33 0 9.78855e-33 0 3.58868e-32 0 1.11883e-31 0 3.18191e-31 0 8.30803e-31 0 2.00287e-30 0 4.60094e-30 0 9.83969e-30 0 1.96712e-29 0 3.87788e-29 0 7.18213e-29 0
7.46248 3.76185e-11 3.6481e-11 1.13758e-12 0.0302399 1.05694e-05 0 0 0 0 1.24491e-41 0 8.95103e-39 0 7.37169e-37 0 2.00747e-35 0 2.67064e-34 0 2.26578e-33 0 1.41207e-32 0 6.70148e-32 0 2.64647e-31 0 9.10616e-31 0 2.68567e-30 0 7.25798e-30 0 1.80832e-29 0 4.17612e-29 0 9.2115e-29 0 1.89822e-28 0 3.66867e-28 0 6.99649e-28 0 1.25739e-27 0
7.84553 3.407e-11 3.31402e-11 9.29755e-13 0.0272896 9.34187e-06 0 0 7.00649e-45 0 9.0201e-40 0 4.70423e-37 0 3.12356e-35 0 7.23877e-34 0 8.48703e-33 0 6.48665e-32 0 3.69709e-31 0 1.62613e-30 0 6.00519e-30 0 1.94533e-29 0 5.44224e-29 0 1.40107e-28 0 3.33859e-28 0 7.40138e-28 0 1.57071e-27 0 3.12451e-27 0 5.84752e-27 0 1.08057e-26 0 1.88719e-26 0
8.24824 3.0951e-11 3.0191e-11 7.59958e-13 0.0245536 8.19911e-06 0 0 7.49695e-43 0 5.22851e-38 0 2.00903e-35 0 1.08688e-33 0 2.16049e-32 0 2.24618e-31 0 1.55448e-30 0 8.13807e-30 0 3.32972e-29 0 1.15366e-28 0 3.52876e-28 0 9.38843e-28 0 2.30794e-27 0 5.27127e-27 0 1.12405e-26 0 2.29939e-26 0 4.42298e-26 0 8.02815e-26 0 1.43972e-25 0 2.44689e-25 0
8.67162 2.82073e-11 2.7586e-11 6.21306e-13 0.0220264 7.20916e-06 0 0 6.05641e-41 0 2.45168e-36 0 7.04499e-34 0 3.13657e-32 0 5.38807e-31 0 4.99664e-30 0 3.14629e-29 0 1.51927e-28 0 5.8029e-28 0 1.8922e-27 0 5.4803e-27 0 1.39004e-26 0 3.27028e-26 0 7.17404e-26 0 1.47427e-25 0 2.91225e-25 0 5.42575e-25 0 9.56577e-25 0 1.66724e-24 0 2.76114e-24 0
9.11674 2.579e-11 2.5282e-11 5.08026e-13 0.0196986 6.32492e-06 4.76441e-44 0 3.8971e-39 0 9.3983e-35 0 2.0485e-32 0 7.57742e-31 0 1.13293e-29 0 9.42372e-29 0 5.42409e-28 0 2.42535e-27 0 8.677e-27 0 2.67073e-26 0 7.34375e-26 0 1.77993e-25 0 4.01626e-25 0 8.47896e-25 0 1.68222e-24 0 3.2144e-24 0 5.80948e-24 0 9.96263e-24 0 1.68994e-23 0 2.73065e-23 0
9.5847 2.36574e-11 2.3242e-11 4.15464e-13 0.0175617 5.52644e-06 4.34543e-42 0 2.01911e-37 0 2.97512e-33 0 4.98565e-31 0 1.54613e-29 0 2.0257e-28 0 1.51941e-27 0 8.02913e-27 0 3.33702e-26 0 1.12183e-25 0 3.26848e-25 0 8.55434e-25 0 1.98564e-24 0 4.30589e-24 0 8.76475e-24 0 1.68171e-23 0 3.11343e-23 0 5.46672e-23 0 9.1312e-23 0 1.50945e-22 0 2.38253e-22 0
10.0767 2.17757e-11 2.14359e-11 3.39834e-13 0.0156061 4.78203e-06 3.09733e-40 0 8.51501e-36 0 7.85263e-32 0 1.0248e-29 0 2.68745e-28 0 3.10538e-27 0 2.11101e-26 0 1.02845e-25 0 3.98719e-25 0 1.26335e-24 0 3.49358e-24 0 8.7239e-24 0 1.94343e-23 0 4.05806e-23 0 7.97855e-23 0 1.48292e-22 0 2.66408e-22 0 4.5509e-22 0 7.41344e-22 0 1.19579e-21 0 1.84585e-21 0
10.5939 2.01182e-11 1.98403e-11 2.77906e-13 0.0138137 4.06995e-06 1.76982e-38 0 2.95383e-34 0 1.74436e-30 0 1.79459e-28 0 4.01237e-27 0 4.11422e-26 0 2.54696e-25 0 1.14852e-24 0 4.16765e-24 0 1.24823e-23 0 3.28453e-23 0 7.84347e-23 0 1.68028e-22 0 3.38471e-22 0 6.4386e-22 0 1.16103e-21 0 2.02698e-21 0 3.37323e-21 0 5.36563e-21 0 8.45507e-21 0 1.27777e-20 0
