# 1.12148e-07 3 11 : grain size, compostion index, size index
# Heating and cooling timescale: 277629 3.35534
# Ratio of heating to cooling to determine stochastic cutoff: 100
# Equilibrium emission is recorded even for those grains in the stochastic regime.
# Emission spectrum was computed for: 
# Type: IRSF
# Scales: 0.5 1 2 5 10
StochasticallyHeated: 1 1 1 1 1
# Temperature: -1
# Wavelength  CExt  CAbs  CSca  Albedo G EqEm1 StEm1 EqEm2 StEm2 EqEm3 StEm3 EqEm4 StEm4 EqEm5 StEm5
0.05 5.9383e-15 5.93503e-15 3.26999e-18 0.000550661 0.00293762 0 0 0 0 0 0 0 0 0 0
0.0525665 6.14178e-15 6.13867e-15 3.11739e-18 0.000507571 0.00264036 0 0 0 0 0 0 0 0 0 0
0.0552647 6.44253e-15 6.43944e-15 3.08996e-18 0.000479619 0.00236286 0 0 0 0 0 0 0 0 0 0
0.0581015 7.06099e-15 7.05766e-15 3.32514e-18 0.000470917 0.00210012 0 0 0 0 0 0 0 0 0 0
0.0610839 8.00105e-15 7.99731e-15 3.73774e-18 0.000467155 0.00186007 0 0 0 0 0 0 0 0 0 0
0.0642193 8.91e-15 8.90595e-15 4.05167e-18 0.000454733 0.00165105 0 0 0 0 0 0 0 0 0 0
0.0675157 9.4711e-15 9.46698e-15 4.11548e-18 0.00043453 0.00147469 0 0 0 0 0 0 0 0 0 0
0.0709813 9.51523e-15 9.51133e-15 3.9014e-18 0.000410016 0.00133147 0 0 0 0 0 0 0 0 0 0
0.0746248 9.02429e-15 9.02083e-15 3.46038e-18 0.000383451 0.00122197 0 0 0 0 0 0 0 0 0 0
0.0784553 8.08645e-15 8.08358e-15 2.867e-18 0.000354544 0.00114777 0 0 0 0 0 0 0 0 0 0
0.0824824 6.8593e-15 6.85711e-15 2.19693e-18 0.000320284 0.00110757 0 0 0 0 0 0 0 0 0 0
0.0867162 6.28365e-15 6.28192e-15 1.73193e-18 0.000275625 0.00102163 0 0 0 0 0 0 0 0 0 0
0.0911674 5.93126e-15 5.92973e-15 1.53016e-18 0.000257982 0.000934395 0 0 0 0 0 0 0 0 0 0
0.095847 5.12986e-15 5.12858e-15 1.2829e-18 0.000250084 0.000898352 0 0 0 0 0 0 0 0 0 0
0.100767 4.33683e-15 4.33579e-15 1.03655e-18 0.000239012 0.00087386 0 0 0 0 0 0 0 0 0 0
0.105939 3.51912e-15 3.51832e-15 7.97799e-19 0.000226704 0.000862435 0 0 0 0 0 0 0 0 0 0
0.111377 2.95743e-15 2.95682e-15 6.11715e-19 0.00020684 0.000824349 0 0 0 0 0 0 0 0 0 0
0.117094 2.52684e-15 2.52636e-15 4.79851e-19 0.000189901 0.000778004 0 0 0 0 0 0 0 0 0 0
0.123105 2.17167e-15 2.17129e-15 3.81527e-19 0.000175684 0.000729836 0 0 0 0 0 0 0 0 0 0
0.129424 1.86596e-15 1.86565e-15 3.06825e-19 0.000164433 0.000682996 0 0 0 0 0 0 0 0 0 0
0.136067 1.59244e-15 1.59219e-15 2.50133e-19 0.000157075 0.000640051 0 0 0 0 0 0 0 0 0 0
0.143051 1.31152e-15 1.31132e-15 2.07966e-19 0.000158569 0.000606955 0 0 0 0 0 0 0 0 0 0
0.150394 9.33435e-16 9.33268e-16 1.66418e-19 0.000178285 0.000577813 0 0 0 0 0 0 0 0 0 0
0.158114 6.1533e-16 6.15203e-16 1.26763e-19 0.000206008 0.000528428 0 0 0 0 0 0 0 0 0 0
0.16623 4.02421e-16 4.02326e-16 9.52246e-20 0.000236629 0.000470093 0 0 0 0 0 0 0 0 0 0
0.174762 2.73416e-16 2.73345e-16 7.17845e-20 0.000262546 0.000414929 0 0 0 0 0 0 0 0 0 0
0.183733 1.82892e-16 1.82838e-16 5.43058e-20 0.000296928 0.000366091 0 0 0 0 0 0 0 0 0 0
0.193164 1.24653e-16 1.24612e-16 4.14136e-20 0.000332231 0.000323829 0 0 0 0 0 0 0 0 0 0
0.203079 8.67175e-17 8.66857e-17 3.18191e-20 0.000366928 0.000287311 0 0 0 0 0 0 0 0 0 0
0.213503 6.41008e-17 6.40763e-17 2.45525e-20 0.000383029 0.000255438 0 0 0 0 0 0 0 0 0 0
0.224463 5.3988e-17 5.3969e-17 1.90873e-20 0.000353547 0.000227749 0 0 0 0 0 0 0 0 0 0
0.235984 5.12283e-17 5.12133e-17 1.49958e-20 0.000292725 0.000203755 0 0 0 0 0 0 0 0 0 0
0.248097 5.08627e-17 5.08508e-17 1.18895e-20 0.000233756 0.000182795 0 0 0 0 0 0 0 0 0 0
0.260832 4.95482e-17 4.95387e-17 9.47818e-21 0.000191292 0.000164263 0 0 0 0 0 0 0 0 0 0
0.274221 4.79069e-17 4.78993e-17 7.58434e-21 0.000158314 0.000147771 0 0 0 0 0 0 0 0 0 0
0.288297 4.61526e-17 4.61465e-17 6.0941e-21 0.000132042 0.000133087 0 0 0 0 0 0 0 0 0 0
0.303095 4.43977e-17 4.43928e-17 4.90959e-21 0.000110582 0.000119948 0 0 0 0 0 0 0 0 0 0
0.318653 4.26309e-17 4.26269e-17 3.96216e-21 9.2941e-05 0.000108154 0 0 0 0 0 0 0 0 0 0
0.335009 4.0879e-17 4.08758e-17 3.20488e-21 7.83991e-05 9.75775e-05 0 0 0 0 0 0 0 0 0 0
0.352205 3.91696e-17 3.9167e-17 2.5965e-21 6.62885e-05 8.80718e-05 0 0 0 0 0 0 0 0 0 0
0.370284 3.74949e-17 3.74928e-17 2.10565e-21 5.61583e-05 7.95107e-05 0 0 0 0 0 0 0 0 0 0
0.389291 3.58697e-17 3.5868e-17 1.70989e-21 4.76695e-05 7.18036e-05 0 0 0 0 0 0 0 0 0 0
0.409273 3.42784e-17 3.4277e-17 1.39092e-21 4.05773e-05 6.48722e-05 0 0 0 0 0 0 0 0 0 0
0.430281 3.27317e-17 3.27305e-17 1.13175e-21 3.45766e-05 5.86136e-05 0 0 0 0 0 0 0 0 0 0
0.452368 3.12402e-17 3.12393e-17 9.21995e-22 2.95131e-05 5.29728e-05 0 0 0 0 0 0 0 0 0 0
0.475588 2.98036e-17 2.98029e-17 7.51399e-22 2.52117e-05 4.78785e-05 0 0 0 0 0 0 0 0 0 0
0.5 2.84322e-17 2.84316e-17 6.13029e-22 2.15611e-05 4.32866e-05 0 0 0 0 0 0 0 0 0 0
0.525665 2.71223e-17 2.71218e-17 5.002e-22 1.84424e-05 3.91353e-05 0 0 0 0 0 0 0 0 0 0
0.552647 2.58739e-17 2.58735e-17 4.08029e-22 1.57699e-05 3.53795e-05 0 0 0 0 0 0 0 0 0 0
0.581015 2.4668e-17 2.46677e-17 3.33476e-22 1.35186e-05 3.19981e-05 0 0 0 0 0 0 0 0 0 0
0.610839 2.35216e-17 2.35213e-17 2.7258e-22 1.15885e-05 2.89413e-05 0 0 0 0 0 0 0 0 0 7.00649e-45
0.642193 2.24306e-17 2.24303e-17 2.22724e-22 9.92949e-06 2.61739e-05 0 8.40779e-45 0 0 0 0 0 4.2039e-45 0 1.49939e-43
0.675157 2.13936e-17 2.13934e-17 1.82023e-22 8.50827e-06 2.36716e-05 0 1.12104e-43 0 1.4013e-45 0 1.4013e-45 0 8.26766e-44 0 2.82642e-42
0.709813 2.041e-17 2.04098e-17 1.48905e-22 7.29571e-06 2.14141e-05 0 1.41251e-42 0 2.94273e-44 0 6.16571e-44 0 1.62551e-42 0 4.57748e-41
0.746248 1.94756e-17 1.94755e-17 1.21802e-22 6.25408e-06 1.93713e-05 0 1.58151e-41 0 9.66896e-43 0 2.00666e-42 0 2.87743e-41 0 6.44601e-40
0.784553 1.85864e-17 1.85863e-17 9.9601e-23 5.35881e-06 1.75218e-05 0 1.62685e-40 0 2.66233e-41 0 5.45708e-41 0 4.68289e-40 0 7.9901e-39
0.824824 1.77315e-17 1.77314e-17 8.1478e-23 4.59509e-06 1.58502e-05 0 1.6084e-39 0 6.17734e-40 0 1.25668e-39 0 7.17492e-39 0 8.85867e-38
0.867162 1.69137e-17 1.69137e-17 6.67085e-23 3.94405e-06 1.43412e-05 0 1.62541e-38 0 1.21883e-38 0 2.4672e-38 0 1.04642e-37 0 8.98407e-37
0.911674 1.61332e-17 1.61332e-17 5.46039e-23 3.38456e-06 1.2975e-05 0 1.74918e-37 0 2.06136e-37 0 4.15878e-37 0 1.44361e-36 0 8.56588e-36
0.95847 1.53844e-17 1.53843e-17 4.46904e-23 2.90492e-06 1.17385e-05 0 1.96786e-36 0 3.01009e-36 0 6.05911e-36 0 1.85211e-35 0 7.88278e-35
1.00767 1.46733e-17 1.46733e-17 3.6586e-23 2.49337e-06 1.06204e-05 0 2.18611e-35 0 3.82418e-35 0 7.68576e-35 0 2.17348e-34 0 7.11036e-34
1.05939 1.40013e-17 1.40012e-17 2.9954e-23 2.13938e-06 9.60933e-06 0 2.27918e-34 0 4.2568e-34 0 8.54583e-34 0 2.30608e-33 0 6.26462e-33
1.11377 1.33617e-17 1.33617e-17 2.45174e-23 1.83489e-06 8.69369e-06 0 2.16672e-33 0 4.17722e-33 0 8.37949e-33 0 2.19834e-32 0 5.29506e-32
1.17094 1.27504e-17 1.27504e-17 2.00593e-23 1.57323e-06 7.8645e-06 0 1.85629e-32 0 3.63526e-32 0 7.28816e-32 0 1.87961e-31 0 4.20573e-31
1.23105 1.21687e-17 1.21687e-17 1.64201e-23 1.34937e-06 7.11549e-06 0 1.4299e-31 0 2.8227e-31 0 5.6567e-31 0 1.44359e-30 0 3.09129e-30
1.29424 1.1644e-17 1.1644e-17 1.34361e-23 1.15391e-06 6.43715e-06 0 9.94429e-31 0 1.97138e-30 0 3.9494e-30 0 1.00127e-29 0 2.08909e-29
1.36067 1.11514e-17 1.11513e-17 1.09986e-23 9.863e-07 5.82385e-06 0 6.25419e-30 0 1.24276e-29 0 2.48911e-29 0 6.28411e-29 0 1.29099e-28
1.43051 1.06824e-17 1.06823e-17 8.99654e-24 8.42187e-07 5.26811e-06 0 3.56976e-29 0 7.10315e-29 0 1.42241e-28 0 3.5813e-28 0 7.28893e-28
1.50394 1.02359e-17 1.02359e-17 7.36416e-24 7.19443e-07 4.76635e-06 0 1.85725e-28 0 3.69871e-28 0 7.40559e-28 0 1.86119e-27 0 3.76636e-27
1.58114 9.80833e-18 9.80832e-18 6.02618e-24 6.14395e-07 4.31198e-06 0 8.84365e-28 0 1.76219e-27 0 3.52784e-27 0 8.85538e-27 0 1.78558e-26
1.6623 9.39846e-18 9.39845e-18 4.92719e-24 5.24255e-07 3.90015e-06 0 3.87023e-27 0 7.71483e-27 0 1.54433e-26 0 3.8732e-26 0 7.7919e-26
1.74762 9.01238e-18 9.01238e-18 4.02959e-24 4.47117e-07 3.52786e-06 0 1.56414e-26 0 3.11883e-26 0 6.24267e-26 0 1.56473e-25 0 3.1431e-25
1.83733 8.65976e-18 8.65976e-18 3.29475e-24 3.80467e-07 3.19105e-06 0 5.86807e-26 0 1.17033e-25 0 2.34238e-25 0 5.86865e-25 0 1.17766e-24
1.93164 8.33021e-18 8.33021e-18 2.69277e-24 3.23254e-07 2.88594e-06 0 2.04929e-25 0 4.0879e-25 0 8.18132e-25 0 2.0491e-24 0 4.10906e-24
2.03079 8.01893e-18 8.01893e-18 2.20044e-24 2.74406e-07 2.61014e-06 0 6.68285e-25 0 1.3333e-24 0 2.66826e-24 0 6.68133e-24 0 1.33915e-23
2.13503 7.72401e-18 7.72401e-18 1.7982e-24 2.32806e-07 2.36052e-06 0 2.04165e-24 0 4.07389e-24 0 8.1525e-24 0 2.041e-23 0 4.08937e-23
2.24463 7.44922e-18 7.44922e-18 1.46854e-24 1.97141e-07 2.13463e-06 0 5.86572e-24 0 1.17059e-23 0 2.34244e-23 0 5.8635e-23 0 1.17451e-22
2.35984 7.18667e-18 7.18667e-18 1.19872e-24 1.66798e-07 1.92995e-06 0 1.58821e-23 0 3.16987e-23 0 6.34295e-23 0 1.58754e-22 0 3.17935e-22
2.48097 6.93848e-18 6.93848e-18 9.77533e-25 1.40886e-07 1.74468e-06 0 4.06597e-23 0 8.11608e-23 0 1.62398e-22 0 4.06417e-22 0 8.13801e-22
2.60832 6.70888e-18 6.70888e-18 7.97404e-25 1.18858e-07 1.57706e-06 0 9.8766e-23 0 1.97167e-22 0 3.94508e-22 0 9.87211e-22 0 1.97653e-21
2.74221 6.49088e-18 6.49088e-18 6.50138e-25 1.00162e-07 1.42578e-06 0 2.28028e-22 0 4.55256e-22 0 9.10891e-22 0 2.27923e-21 0 4.56286e-21
2.88297 6.28855e-18 6.28854e-18 5.29167e-25 8.41478e-08 1.28827e-06 0 5.01997e-22 0 1.00233e-21 0 2.00544e-21 0 5.01769e-21 0 1.00442e-20
3.03095 6.09731e-18 6.09731e-18 4.30636e-25 7.06272e-08 1.16414e-06 0 1.05564e-21 0 2.10796e-21 0 4.21748e-21 0 1.05517e-20 0 2.11205e-20
3.18653 5.93036e-18 5.93036e-18 3.5028e-25 5.90655e-08 1.05166e-06 0 2.13018e-21 0 4.254e-21 0 8.51096e-21 0 2.12925e-20 0 4.26169e-20
3.35009 5.7725e-18 5.77249e-18 2.84541e-25 4.92926e-08 9.49956e-07 0 4.12388e-21 0 8.23607e-21 0 1.64775e-20 0 4.12213e-20 0 8.24998e-20
3.52205 5.60114e-18 5.60114e-18 2.30731e-25 4.11936e-08 8.58022e-07 0 7.64447e-21 0 1.52684e-20 0 3.05463e-20 0 7.64134e-20 0 1.52926e-19
3.70284 5.43233e-18 5.43233e-18 1.86986e-25 3.44209e-08 7.74307e-07 0 1.36314e-20 0 2.72282e-20 0 5.44723e-20 0 1.36261e-19 0 2.72686e-19
3.89291 5.26918e-18 5.26918e-18 1.51231e-25 2.87011e-08 6.98832e-07 0 2.34383e-20 0 4.68201e-20 0 9.36661e-20 0 2.34294e-19 0 4.68853e-19
4.09273 5.11459e-18 5.11459e-18 1.21982e-25 2.38498e-08 6.30297e-07 0 3.8951e-20 0 7.78132e-20 0 1.55667e-19 0 3.89369e-19 0 7.79151e-19
4.30281 4.95279e-18 4.95279e-18 9.81118e-26 1.98094e-08 5.68307e-07 0 6.2473e-20 0 1.24812e-19 0 2.49684e-19 0 6.24516e-19 0 1.24965e-18
4.52368 4.80377e-18 4.80377e-18 7.87022e-26 1.63834e-08 5.1227e-07 0 9.72421e-20 0 1.94286e-19 0 3.88663e-19 0 9.72103e-19 0 1.94511e-18
4.75588 4.6745e-18 4.6745e-18 6.2871e-26 1.34498e-08 4.61222e-07 0 1.47359e-19 0 2.94435e-19 0 5.88999e-19 0 1.47313e-18 0 2.94756e-18
5 4.57747e-18 4.57747e-18 4.99129e-26 1.0904e-08 4.14585e-07 0 2.18373e-19 0 4.36349e-19 0 8.72878e-19 0 2.18309e-18 0 4.36797e-18
5.25665 4.52472e-18 4.52472e-18 3.93715e-26 8.70142e-09 3.73251e-07 0 3.17867e-19 0 6.35191e-19 0 1.27063e-18 0 3.17779e-18 0 6.35805e-18
5.52648 4.51014e-18 4.51014e-18 3.08497e-26 6.84007e-09 3.34495e-07 0 4.54608e-19 0 9.08485e-19 0 1.8173e-18 0 4.5449e-18 0 9.0931e-18
5.81015 4.55611e-18 4.55611e-18 2.38837e-26 5.24213e-09 2.99437e-07 0 6.42818e-19 0 1.28466e-18 0 2.56977e-18 0 6.42661e-18 0 1.28576e-17
6.10839 4.64332e-18 4.64332e-18 1.82546e-26 3.93135e-09 2.67176e-07 0 8.95643e-19 0 1.79001e-18 0 3.58061e-18 0 8.95438e-18 0 1.79145e-17
6.42193 4.71225e-18 4.71225e-18 1.36993e-26 2.90716e-09 2.39937e-07 0 1.21509e-18 0 2.42855e-18 0 4.85785e-18 0 1.21483e-17 2.8026e-45 2.43039e-17
6.75157 4.72453e-18 4.72453e-18 9.90011e-27 2.09547e-09 2.12507e-07 0 1.59419e-18 0 3.18639e-18 0 6.3737e-18 0 1.59387e-17 1.62551e-43 3.18865e-17
7.09813 4.80031e-18 4.80031e-18 6.63009e-27 1.38118e-09 1.87772e-07 0 2.07702e-18 0 4.15162e-18 0 8.30434e-18 0 2.07664e-17 7.68472e-42 4.15438e-17
7.46248 5.91488e-18 5.91488e-18 3.7359e-27 6.3161e-10 1.65114e-07 0 3.21902e-18 0 6.43454e-18 0 1.28707e-17 3.78351e-44 3.21847e-17 3.61154e-40 6.43855e-17
7.84553 1.14959e-17 1.14959e-17 1.86718e-27 1.62422e-10 1.40468e-07 0 7.72618e-18 0 1.54445e-17 0 3.08927e-17 3.66019e-42 7.72497e-17 2.21395e-38 1.54535e-16
8.24824 2.39145e-17 2.39145e-17 2.28171e-27 9.54112e-11 1.2133e-07 0 1.95059e-17 0 3.89934e-17 1.4013e-45 7.79953e-17 3.06604e-40 1.95031e-16 1.21245e-36 3.90147e-16
8.67162 3.65006e-17 3.65006e-17 4.10417e-27 1.12441e-10 1.04753e-07 0 3.55398e-17 0 7.10486e-17 1.09301e-43 1.42112e-16 1.55446e-38 3.55351e-16 4.1024e-35 7.10848e-16
9.11674 5.38122e-17 5.38122e-17 8.00317e-27 1.48724e-10 8.97943e-08 0 6.15749e-17 0 1.231e-16 7.91874e-42 2.46223e-16 6.33752e-37 6.15675e-16 1.13849e-33 1.23159e-15
9.5847 6.05428e-17 6.05428e-17 1.13835e-26 1.88025e-10 8.04657e-08 0 8.02146e-17 3.36312e-44 1.60369e-16 3.59182e-40 3.20767e-16 1.65645e-35 8.02059e-16 2.06392e-32 1.60441e-15
10.0767 5.42439e-17 5.42439e-17 1.09459e-26 2.01791e-10 7.61975e-08 0 8.20572e-17 1.54984e-42 1.64058e-16 1.06995e-38 3.28143e-16 2.92092e-34 8.20493e-16 2.56982e-31 1.64126e-15
10.5939 4.55027e-17 4.55027e-17 9.92442e-27 2.18106e-10 7.46974e-08 4.2039e-45 7.75571e-17 5.54115e-41 1.55066e-16 2.48443e-37 3.10154e-16 4.11898e-33 7.75506e-16 2.60264e-30 1.55125e-15
11.1377 3.57715e-17 3.57715e-17 7.85481e-27 2.19583e-10 7.63033e-08 1.97583e-43 6.78438e-17 1.527e-39 1.35649e-16 4.54128e-36 2.71316e-16 4.68516e-32 6.78388e-16 2.16078e-29 1.35697e-15
11.7094 2.85629e-17 2.85629e-17 6.17263e-27 2.16107e-10 7.69749e-08 7.09758e-42 5.95724e-17 3.54898e-38 1.19114e-16 7.14267e-35 2.38243e-16 4.693e-31 5.95687e-16 1.60426e-28 1.19154e-15
12.3105 2.2304e-17 2.2304e-17 4.73185e-27 2.12153e-10 7.66725e-08 2.04877e-40 5.05922e-17 6.75947e-37 1.01161e-16 9.38354e-34 2.02333e-16 4.01389e-30 5.05895e-16 1.032e-27 1.01192e-15
12.9424 1.74076e-17 1.74076e-17 3.52613e-27 2.02563e-10 7.53588e-08 4.89567e-39 4.2499e-17 1.08755e-35 8.498e-17 1.06041e-32 1.69969e-16 3.01568e-29 4.24972e-16 5.91326e-27 8.50046e-16
13.6067 1.39114e-17 1.39114e-17 2.52512e-27 1.81514e-10 6.69233e-08 1.00129e-37 3.62005e-17 1.52686e-34 7.23873e-17 1.06387e-31 1.44782e-16 2.05194e-28 3.61993e-16 3.10943e-26 7.24067e-16
14.3051 1.27772e-17 1.27772e-17 1.73253e-27 1.35595e-10 5.6933e-08 1.9846e-36 3.51172e-17 2.11589e-33 7.02227e-17 1.07096e-30 1.40452e-16 1.42774e-27 3.51164e-16 1.69318e-25 7.02402e-16
15.0394 1.42199e-17 1.42199e-17 1.28902e-27 9.06486e-11 4.761e-08 4.05275e-35 4.09279e-17 3.07426e-32 8.18439e-17 1.14812e-29 1.63695e-16 1.07719e-26 4.09274e-16 1.01177e-24 8.18628e-16
15.8114 1.64139e-17 1.64139e-17 1.06828e-27 6.50842e-11 3.90577e-08 7.35646e-34 4.9082e-17 4.03689e-31 9.81518e-17 1.12903e-28 1.96311e-16 7.5839e-26 4.90819e-16 5.70642e-24 9.81728e-16
16.623 1.88635e-17 1.88635e-17 9.76768e-28 5.17808e-11 3.72045e-08 1.14806e-32 5.81722e-17 4.63016e-30 1.16332e-16 9.83556e-28 2.32672e-16 4.80785e-25 5.81726e-16 2.92957e-23 1.16355e-15
17.4762 2.08017e-17 2.08017e-17 9.54389e-28 4.58804e-11 2.97954e-08 1.4952e-31 6.57037e-17 4.49896e-29 1.31396e-16 7.35685e-27 2.628e-16 2.65796e-24 6.57049e-16 1.32513e-22 1.31421e-15
18.3733 2.14721e-17 2.14721e-17 9.41646e-28 4.38545e-11 2.79122e-08 1.59618e-30 6.90237e-17 3.63487e-28 1.38038e-16 4.63438e-26 2.76084e-16 1.25592e-23 6.90256e-16 5.1735e-22 1.38062e-15
19.3164 2.04738e-17 2.04738e-17 8.90261e-28 4.34829e-11 2.74877e-08 1.38727e-29 6.65875e-17 2.42365e-27 1.33169e-16 2.43879e-25 2.66344e-16 5.02759e-23 6.659e-16 1.72719e-21 1.3319e-15
20.3079 1.82955e-17 1.82955e-17 7.84555e-28 4.28825e-11 2.64932e-08 1.00208e-28 5.9873e-17 1.3606e-26 1.19742e-16 1.09309e-24 2.3949e-16 1.73721e-22 5.98759e-16 5.02156e-21 1.1976e-15
21.3503 1.63416e-17 1.63416e-17 6.65563e-28 4.07281e-11 2.25769e-08 6.45393e-28 5.35398e-17 6.89479e-26 1.07078e-16 4.47136e-24 2.14161e-16 5.54837e-22 5.35429e-16 1.36088e-20 1.07093e-15
22.4463 1.46155e-17 1.46155e-17 5.60579e-28 3.83552e-11 2.1326e-08 3.73355e-27 4.77142e-17 3.17519e-25 9.5429e-17 1.67966e-23 1.90861e-16 1.64711e-21 4.77175e-16 3.45565e-20 9.5441e-16
23.5984 1.31026e-17 1.31026e-17 4.66337e-28 3.55911e-11 1.58018e-08 1.9523e-26 4.24378e-17 1.33654e-24 8.48777e-17 5.82491e-23 1.69757e-16 4.56623e-21 4.24412e-16 8.25712e-20 8.48874e-16
24.8097 1.1792e-17 1.1792e-17 3.88348e-28 3.29333e-11 1.88473e-08 9.28887e-26 3.7738e-17 5.17349e-24 7.54793e-17 1.87522e-22 1.5096e-16 1.18805e-20 3.77414e-16 1.86518e-19 7.54871e-16
26.0832 1.05917e-17 1.05917e-17 3.20802e-28 3.0288e-11 1.50954e-08 4.01705e-25 3.33667e-17 1.83861e-23 6.67375e-17 5.59282e-22 1.33476e-16 2.89363e-20 3.33701e-16 3.97138e-19 6.67436e-16
27.4221 9.49923e-18 9.49923e-18 2.64986e-28 2.78955e-11 2.09953e-08 1.58697e-24 2.93528e-17 6.02664e-23 5.87105e-17 1.55168e-21 1.17421e-16 6.62123e-20 2.93561e-16 7.99649e-19 5.8715e-16
28.8297 8.55286e-18 8.55286e-18 2.18837e-28 2.55865e-11 1.19376e-08 5.78331e-24 2.58368e-17 1.83893e-22 5.16791e-17 4.04032e-21 1.03358e-16 1.43537e-19 2.58401e-16 1.53496e-18 5.16824e-16
30.3095 7.69733e-18 7.69733e-18 1.80629e-28 2.34665e-11 1.2298e-08 1.94377e-23 2.26605e-17 5.22013e-22 4.53266e-17 9.86316e-21 9.06529e-17 2.94347e-19 2.26636e-16 2.8038e-18 4.53289e-16
31.8653 6.94319e-18 6.94319e-18 1.48493e-28 2.13868e-11 7.8861e-09 6.06537e-23 1.98606e-17 1.38714e-21 3.9727e-17 2.2706e-20 7.94534e-17 5.74084e-19 1.98635e-16 4.89858e-18 3.97283e-16
33.5009 6.25192e-18 6.25192e-18 1.22274e-28 1.95578e-11 1.0032e-08 1.75662e-22 1.73266e-17 3.44807e-21 3.46592e-17 4.92405e-20 6.93175e-17 1.06332e-18 1.73294e-16 8.17148e-18 3.46596e-16
35.2206 5.67928e-18 5.67928e-18 1.00461e-28 1.76891e-11 2.1516e-08 4.78904e-22 1.52082e-17 8.12875e-21 3.04224e-17 1.01951e-19 6.08438e-17 1.89489e-18 1.52108e-16 1.3182e-17 3.04222e-16
37.0284 5.15008e-18 5.15008e-18 8.25664e-29 1.60321e-11 1.53585e-08 1.22024e-21 1.32906e-17 1.80376e-20 2.65871e-17 1.99949e-19 5.31731e-17 3.22216e-18 1.32931e-16 2.03898e-17 2.65863e-16
38.9291 4.65973e-18 4.65973e-18 6.79313e-29 1.45784e-11 1.63402e-08 2.91381e-21 1.15596e-17 3.77644e-20 2.31249e-17 3.72232e-19 4.62485e-17 5.23721e-18 1.15618e-16 3.02862e-17 2.31236e-16
40.9273 4.20591e-18 4.20591e-18 5.59596e-29 1.3305e-11 4.87364e-10 6.53941e-21 1.00052e-17 7.4789e-20 2.0016e-17 6.59251e-19 4.00307e-17 8.15218e-18 1.00073e-16 4.32721e-17 2.00143e-16
43.0282 3.79399e-18 3.79399e-18 4.59845e-29 1.21204e-11 -2.79515e-09 1.38592e-20 8.63418e-18 1.40723e-19 1.72736e-17 1.1154e-18 3.45459e-17 1.2199e-17 8.63605e-17 5.9685e-17 1.72716e-16
45.2368 3.41436e-18 3.41436e-18 3.77742e-29 1.10633e-11 1.08637e-08 2.77645e-20 7.41638e-18 2.51751e-19 1.48377e-17 1.8036e-18 2.96741e-17 1.75514e-17 7.41806e-17 7.94671e-17 1.48355e-16
47.5588 3.07801e-18 3.07801e-18 3.09938e-29 1.00694e-11 -1.07752e-08 5.29321e-20 6.36703e-18 4.30974e-19 1.27387e-17 2.80458e-18 2.54761e-17 2.44227e-17 6.36853e-17 1.02718e-16 1.27363e-16
50 2.76555e-18 2.76555e-18 2.54473e-29 9.20153e-12 2.80155e-08 9.57871e-20 5.4361e-18 7.04003e-19 1.08765e-17 4.18096e-18 2.17517e-17 3.27576e-17 5.43742e-17 1.28442e-16 1.0874e-16
52.5665 2.48767e-18 2.48767e-18 2.08658e-29 8.38767e-12 -1.42622e-08 1.65671e-19 4.63677e-18 1.10463e-18 9.27755e-18 6.01374e-18 1.85538e-17 4.26119e-17 4.63793e-17 1.563e-16 9.27491e-17
55.2648 2.23612e-18 2.23612e-18 1.70978e-29 7.6462e-12 2.09271e-08 2.73969e-19 3.94403e-18 1.66512e-18 7.89172e-18 8.34528e-18 1.57822e-17 5.37416e-17 3.94502e-17 1.85005e-16 7.88905e-17
58.1015 2.00906e-18 2.00906e-18 1.40162e-29 6.97648e-12 1.3986e-08 4.34233e-19 3.34648e-18 2.41658e-18 6.69631e-18 1.11949e-17 1.33914e-17 6.58264e-17 3.34733e-17 2.13338e-16 6.69362e-17
61.0839 1.80517e-18 1.80517e-18 1.14811e-29 6.36011e-12 -8.06588e-09 6.61344e-19 2.83413e-18 3.38461e-18 5.67129e-18 1.45486e-17 1.13414e-17 7.84588e-17 2.83485e-17 2.40098e-16 5.66862e-17
64.2193 1.62089e-18 1.62089e-18 9.40036e-30 5.79949e-12 3.0936e-08 9.69053e-19 2.39408e-18 4.5794e-18 4.79091e-18 1.83317e-17 9.58073e-18 9.1054e-17 2.39468e-17 2.63843e-16 4.78827e-17
67.5157 1.45614e-18 1.45614e-18 7.69532e-30 5.28472e-12 -2.78135e-08 1.37021e-18 2.01965e-18 6.00234e-18 4.04177e-18 2.24546e-17 8.08251e-18 1.0314e-16 2.02014e-17 2.83752e-16 4.03919e-17
