# 2e-06 2 2 : grain size, compostion index, size index
# Heating and cooling timescale: 10.9713 20353.4
# Ratio of heating to cooling to determine stochastic cutoff: 100
# Equilibrium emission is recorded even for those grains in the stochastic regime.
# Emission spectrum was computed for: 
# Type: ISRF
# Scales: 0.25 0.5 1 1.5 2 2.5 3 3.5 4 4.5 5 5.5 6 6.5 7 7.5 8 8.5 9 9.5 10
# StochasticallyHeated: 1 1 0 0 0 0 0 0 0 0 0 0 0 0 0 0 0 0 0 0 0
# Temperature: -1
# Wavelength  CExt  CAbs  CSca  Albedo G EqEm1 StEm1 EqEm2 StEm2 EqEm3 StEm3 EqEm4 StEm4 EqEm5 StEm5 EqEm6 StEm6 EqEm7 StEm7 EqEm8 StEm8 EqEm9 StEm9 EqEm10 StEm10 EqEm11 StEm11 EqEm12 StEm12 EqEm13 StEm13 EqEm14 StEm14 EqEm15 StEm15 EqEm16 StEm16 EqEm17 StEm17 EqEm18 StEm18 EqEm19 StEm19 EqEm20 StEm20 EqEm21 StEm21
0.05 3.87746e-11 2.73086e-11 1.1466e-11 0.295709 0.578126 0 0 0 0 0 0 0 0 0 0 0 0 0 0 0 0 0 0 0 0 0 0 0 0 0 0 0 0 0 0 0 0 0 0 0 0 0 0 0 0 0 0
0.0525665 3.82371e-11 2.69535e-11 1.12836e-11 0.295096 0.570091 0 0 0 0 0 0 0 0 0 0 0 0 0 0 0 0 0 0 0 0 0 0 0 0 0 0 0 0 0 0 0 0 0 0 0 0 0 0 0 0 0 0
0.0552647 3.76718e-11 2.658e-11 1.10918e-11 0.294433 0.561648 0 0 0 0 0 0 0 0 0 0 0 0 0 0 0 0 0 0 0 0 0 0 0 0 0 0 0 0 0 0 0 0 0 0 0 0 0 0 0 0 0 0
0.0581015 3.70773e-11 2.61871e-11 1.08902e-11 0.293717 0.552778 0 0 0 0 0 0 0 0 0 0 0 0 0 0 0 0 0 0 0 0 0 0 0 0 0 0 0 0 0 0 0 0 0 0 0 0 0 0 0 0 0 0
0.0610839 3.64526e-11 2.57743e-11 1.06783e-11 0.292936 0.543444 0 0 0 0 0 0 0 0 0 0 0 0 0 0 0 0 0 0 0 0 0 0 0 0 0 0 0 0 0 0 0 0 0 0 0 0 0 0 0 0 0 0
0.0642193 3.57947e-11 2.53393e-11 1.04555e-11 0.292095 0.533631 0 0 0 0 0 0 0 0 0 0 0 0 0 0 0 0 0 0 0 0 0 0 0 0 0 0 0 0 0 0 0 0 0 0 0 0 0 0 0 0 0 0
0.0675157 3.51041e-11 2.48829e-11 1.02212e-11 0.291169 0.523321 0 0 0 0 0 0 0 0 0 0 0 0 0 0 0 0 0 0 0 0 0 0 0 0 0 0 0 0 0 0 0 0 0 0 0 0 0 0 0 0 0 0
0.0709813 3.43779e-11 2.44029e-11 9.97498e-12 0.290157 0.512476 0 0 0 0 0 0 0 0 0 0 0 0 0 0 0 0 0 0 0 0 0 0 0 0 0 0 0 0 0 0 0 0 0 0 0 0 0 0 0 0 0 0
0.0746248 3.36148e-11 2.38988e-11 9.71597e-12 0.289039 0.501075 0 0 0 0 0 0 0 0 0 0 0 0 0 0 0 0 0 0 0 0 0 0 0 0 0 0 0 0 0 0 0 0 0 0 0 0 0 0 0 0 0 0
0.0784553 3.28125e-11 2.33687e-11 9.44379e-12 0.287811 0.489094 0 0 0 0 0 0 0 0 0 0 0 0 0 0 0 0 0 0 0 0 0 0 0 0 0 0 0 0 0 0 0 0 0 0 0 0 0 0 0 0 0 0
0.0824824 3.19683e-11 2.28107e-11 9.15762e-12 0.286459 0.476491 0 0 0 0 0 0 0 0 0 0 0 0 0 0 0 0 0 0 0 0 0 0 0 0 0 0 0 0 0 0 0 0 0 0 0 0 0 0 0 0 0 0
0.0867162 3.10811e-11 2.22243e-11 8.85672e-12 0.284956 0.463245 0 0 0 0 0 0 0 0 0 0 0 0 0 0 0 0 0 0 0 0 0 0 0 0 0 0 0 0 0 0 0 0 0 0 0 0 0 0 0 0 0 0
0.0911674 3.01487e-11 2.16083e-11 8.54039e-12 0.283275 0.449315 0 0 0 0 0 0 0 0 0 0 0 0 0 0 0 0 0 0 0 0 0 0 0 0 0 0 0 0 0 0 0 0 0 0 0 0 0 0 0 0 0 0
0.095847 2.91683e-11 2.09605e-11 8.20782e-12 0.281395 0.434672 0 0 0 0 0 0 0 0 0 0 0 0 0 0 0 0 0 0 0 0 0 0 0 0 0 0 0 0 0 0 0 0 0 0 0 0 0 0 0 0 0 0
0.100767 2.81369e-11 2.02787e-11 7.85816e-12 0.279283 0.41928 0 0 0 0 0 0 0 0 0 0 0 0 0 0 0 0 0 0 0 0 0 0 0 0 0 0 0 0 0 0 0 0 0 0 0 0 0 0 0 0 0 0
0.105939 2.70537e-11 1.95631e-11 7.49061e-12 0.276879 0.403101 0 0 0 0 0 0 0 0 0 0 0 0 0 0 0 0 0 0 0 0 0 0 0 0 0 0 0 0 0 0 0 0 0 0 0 0 0 0 0 0 0 0
0.111377 2.59135e-11 1.88094e-11 7.1041e-12 0.274147 0.386082 0 0 0 0 0 0 0 0 0 0 0 0 0 0 0 0 0 0 0 0 0 0 0 0 0 0 0 0 0 0 0 0 0 0 0 0 0 0 0 0 0 0
0.117094 2.47155e-11 1.80177e-11 6.69786e-12 0.270998 0.368195 0 0 0 0 0 0 0 0 0 0 0 0 0 0 0 0 0 0 0 0 0 0 0 0 0 0 0 0 0 0 0 0 0 0 0 0 0 0 0 0 0 0
0.123105 2.34573e-11 1.71865e-11 6.27075e-12 0.267327 0.349387 0 0 0 0 0 0 0 0 0 0 0 0 0 0 0 0 0 0 0 0 0 0 0 0 0 0 0 0 0 0 0 0 0 0 0 0 0 0 0 0 0 0
0.129424 2.21329e-11 1.63112e-11 5.82164e-12 0.263031 0.329619 0 0 0 0 0 0 0 0 0 0 0 0 0 0 0 0 0 0 0 0 0 0 0 0 0 0 0 0 0 0 0 0 0 0 0 0 0 0 0 0 0 0
0.136067 2.07408e-11 1.53913e-11 5.34948e-12 0.25792 0.308829 0 0 0 0 0 0 0 0 0 0 0 0 0 0 0 0 0 0 0 0 0 0 0 0 0 0 0 0 0 0 0 0 0 0 0 0 0 0 0 0 0 0
0.143051 1.92768e-11 1.44236e-11 4.85318e-12 0.251763 0.28698 0 0 0 0 0 0 0 0 0 0 0 0 0 0 0 0 0 0 0 0 0 0 0 0 0 0 0 0 0 0 0 0 0 0 0 0 0 0 0 0 0 0
0.150394 1.77389e-11 1.34076e-11 4.33132e-12 0.244171 0.264006 0 0 0 0 0 0 0 0 0 0 0 0 0 0 0 0 0 0 0 0 0 0 0 0 0 0 0 0 0 0 0 0 0 0 0 0 0 0 0 0 0 0
0.158114 1.61208e-11 1.23382e-11 3.78267e-12 0.234645 0.23985 0 0 0 0 0 0 0 0 0 0 0 0 0 0 0 0 0 0 0 0 0 0 0 0 0 0 0 0 0 0 0 0 0 0 0 0 0 0 0 0 0 0
0.16623 1.44202e-11 1.12144e-11 3.20589e-12 0.222319 0.214459 0 0 0 0 0 0 0 0 0 0 0 0 0 0 0 0 0 0 0 0 0 0 0 0 0 0 0 0 0 0 0 0 0 0 0 0 0 0 0 0 0 0
0.174762 1.26324e-11 1.00329e-11 2.59951e-12 0.205781 0.187757 0 0 0 0 0 0 0 0 0 0 0 0 0 0 0 0 0 0 0 0 0 0 0 0 0 0 0 0 0 0 0 0 0 0 0 0 0 0 0 0 0 0
0.183733 1.07528e-11 8.7907e-12 1.96205e-12 0.18247 0.159692 0 0 0 0 0 0 0 0 0 0 0 0 0 0 0 0 0 0 0 0 0 0 0 0 0 0 0 0 0 0 0 0 0 0 0 0 0 0 0 0 0 0
0.193164 8.77663e-12 7.48485e-12 1.29177e-12 0.147183 0.130182 0 0 0 0 0 0 0 0 0 0 0 0 0 0 0 0 0 0 0 0 0 0 0 0 0 0 0 0 0 0 0 0 0 0 0 0 0 0 0 0 0 0
0.203079 7.05005e-12 6.34128e-12 7.0877e-13 0.100534 0.103846 0 0 0 0 0 0 0 0 0 0 0 0 0 0 0 0 0 0 0 0 0 0 0 0 0 0 0 0 0 0 0 0 0 0 0 0 0 0 0 0 0 0
0.213503 6.83086e-12 6.18184e-12 6.49019e-13 0.0950129 0.0974863 0 0 0 0 0 0 0 0 0 0 0 0 0 0 0 0 0 0 0 0 0 0 0 0 0 0 0 0 0 0 0 0 0 0 0 0 0 0 0 0 0 0
0.224463 6.64399e-12 6.0427e-12 6.01288e-13 0.0905011 0.0913814 0 0 0 0 0 0 0 0 0 0 0 0 0 0 0 0 0 0 0 0 0 0 0 0 0 0 0 0 0 0 0 0 0 0 0 0 0 0 0 0 0 0
0.235984 6.4476e-12 5.8965e-12 5.51107e-13 0.0854747 0.0849623 0 0 0 0 0 0 0 0 0 0 0 0 0 0 0 0 0 0 0 0 0 0 0 0 0 0 0 0 0 0 0 0 0 0 0 0 0 0 0 0 0 0
0.248097 6.24108e-12 5.74273e-12 4.98352e-13 0.0798502 0.0782136 0 0 0 0 0 0 0 0 0 0 0 0 0 0 0 0 0 0 0 0 0 0 0 0 0 0 0 0 0 0 0 0 0 0 0 0 0 0 0 0 0 0
0.260832 6.02391e-12 5.58103e-12 4.42883e-13 0.0735207 0.0711192 0 0 0 0 0 0 0 0 0 0 0 0 0 0 0 0 0 0 0 0 0 0 0 0 0 0 0 0 0 0 0 0 0 0 0 0 0 0 0 0 0 0
0.274221 5.79567e-12 5.4111e-12 3.84569e-13 0.0663546 0.0636606 0 0 0 0 0 0 0 0 0 0 0 0 0 0 0 0 0 0 0 0 0 0 0 0 0 0 0 0 0 0 0 0 0 0 0 0 0 0 0 0 0 0
0.288297 5.55568e-12 5.23241e-12 3.23268e-13 0.0581869 0.0558183 0 0 0 0 0 0 0 0 0 0 0 0 0 0 0 0 0 0 0 0 0 0 0 0 0 0 0 0 0 0 0 0 0 0 0 0 0 0 0 0 0 0
0.303095 5.29643e-12 5.0347e-12 2.61728e-13 0.049416 0.0479712 0 0 0 0 0 0 0 0 0 0 0 0 0 0 0 0 0 0 0 0 0 0 0 0 0 0 0 0 0 0 0 0 0 0 0 0 0 0 0 0 0 0
0.318653 4.93806e-12 4.70478e-12 2.33276e-13 0.0472405 0.044644 0 0 0 0 0 0 0 0 0 0 0 0 0 0 0 0 0 0 0 0 0 0 0 0 0 0 0 0 0 0 0 0 0 0 0 0 0 0 0 0 0 0
0.335009 4.55502e-12 4.34902e-12 2.05995e-13 0.0452238 0.0415047 0 0 0 0 0 0 0 0 0 0 0 0 0 0 0 0 0 0 0 0 0 0 0 0 0 0 0 0 0 0 0 0 0 0 0 0 0 0 0 0 0 0
0.352205 4.15231e-12 3.97499e-12 1.77316e-13 0.0427029 0.0382047 0 0 0 0 0 0 0 0 0 0 0 0 0 0 0 0 0 0 0 0 0 0 0 0 0 0 0 0 0 0 0 0 0 0 0 0 0 0 0 0 0 0
0.370284 3.72889e-12 3.58173e-12 1.4716e-13 0.0394647 0.0347344 0 0 0 0 0 0 0 0 0 0 0 0 0 0 0 0 0 0 0 0 0 0 0 0 0 0 0 0 0 0 0 0 0 0 0 0 0 0 0 0 0 0
0.389291 3.28386e-12 3.16839e-12 1.15463e-13 0.0351607 0.0310865 0 0 0 0 0 0 0 0 0 0 0 0 0 0 0 0 0 0 0 0 0 0 0 0 0 0 0 0 0 0 0 0 0 0 0 0 0 0 0 0 0 0
0.409273 2.88229e-12 2.79456e-12 8.77322e-14 0.0304384 0.0277214 0 0 0 0 0 0 0 0 0 0 0 0 0 0 0 0 0 0 0 0 0 0 0 0 0 0 0 0 0 0 0 0 0 0 0 0 0 0 0 0 0 0
0.430281 2.67688e-12 2.60001e-12 7.68624e-14 0.0287134 0.0257223 0 0 0 0 0 0 0 0 0 0 0 0 0 0 0 0 0 0 0 0 0 0 0 0 0 0 0 0 0 0 0 0 0 0 0 0 0 0 0 0 0 0
0.452368 2.46096e-12 2.39552e-12 6.5437e-14 0.02659 0.02362 0 0 0 0 0 0 0 0 0 0 0 0 0 0 0 0 0 0 0 0 0 0 0 0 0 0 0 0 0 0 0 0 0 0 0 0 0 0 0 0 0 0
0.475588 2.234e-12 2.18057e-12 5.34261e-14 0.023915 0.0214104 0 0 0 0 0 0 0 0 0 0 0 0 0 0 0 0 0 0 0 0 0 0 0 0 0 0 0 0 0 0 0 0 0 0 0 0 0 0 0 0 0 0
0.5 1.99565e-12 1.95483e-12 4.08159e-14 0.0204525 0.0190891 0 0 0 0 0 0 0 0 0 0 0 0 0 0 0 0 0 0 0 0 0 0 0 0 0 0 0 0 0 0 0 0 0 0 0 0 0 0 0 0 0 0
0.525665 1.83591e-12 1.80189e-12 3.4019e-14 0.0185298 0.0174798 0 0 0 0 0 0 0 0 0 0 0 0 0 0 0 0 0 0 0 0 0 0 0 0 0 0 0 0 0 0 0 0 0 0 0 0 0 0 0 0 0 0
0.552648 1.69668e-12 1.66776e-12 2.89207e-14 0.0170454 0.0160511 0 0 0 0 0 0 0 0 0 0 0 0 0 0 0 0 0 0 0 0 0 0 0 0 0 0 0 0 0 0 0 0 0 0 0 0 0 0 0 0 0 0
0.581015 1.55033e-12 1.52677e-12 2.35612e-14 0.0151975 0.0145491 0 0 0 0 0 0 0 0 0 0 0 0 0 0 0 0 0 0 0 0 0 0 0 0 0 0 0 0 0 0 0 0 0 0 0 0 0 0 0 0 0 0
0.610839 1.40342e-12 1.38512e-12 1.8297e-14 0.0130375 0.0130408 0 0 0 0 0 0 0 0 0 0 0 0 0 0 0 0 0 0 0 0 0 0 0 0 0 0 0 0 0 0 0 0 0 0 0 0 0 0 0 0 0 0
0.642193 1.30403e-12 1.28832e-12 1.57108e-14 0.0120479 0.012012 0 0 0 0 0 0 0 0 0 0 0 0 0 0 0 0 0 0 0 0 0 0 0 0 0 0 0 0 0 0 0 0 0 0 0 0 0 0 0 0 0 0
0.675157 1.19951e-12 1.18651e-12 1.29926e-14 0.0108316 0.010931 0 0 0 0 0 0 0 0 0 0 0 0 0 0 0 0 0 0 0 0 0 0 0 0 0 0 0 0 0 0 0 0 0 0 0 0 0 0 0 0 0 0
0.709813 1.09315e-12 1.08287e-12 1.02767e-14 0.00940099 0.00983173 0 0 0 0 0 0 0 0 0 0 0 0 0 0 0 0 0 0 0 0 0 0 0 0 0 0 0 0 0 0 0 0 0 0 0 0 0 0 0 0 0 0
0.746248 1.01274e-12 1.00405e-12 8.6915e-15 0.00858218 0.00901709 0 0 0 0 0 0 0 0 0 0 0 0 0 0 0 0 0 0 0 0 0 0 0 0 0 0 0 0 0 0 0 0 0 0 0 0 0 0 0 0 0 0
0.784553 9.30815e-13 9.23684e-13 7.13097e-15 0.007661 0.00818905 0 0 0 0 0 0 0 0 0 0 0 0 0 0 0 0 0 0 0 0 0 0 0 0 0 0 0 0 0 0 0 0 0 0 0 0 0 0 0 0 0 0
0.824824 8.53695e-13 8.47933e-13 5.76205e-15 0.00674954 0.00741452 0 0 0 0 0 0 0 0 0 0 0 0 0 0 0 0 0 0 0 0 0 0 0 0 0 0 0 0 0 0 0 0 0 0 0 0 0 0 0 0 0 0
0.867162 7.89377e-13 7.84548e-13 4.82912e-15 0.00611763 0.00677918 0 0 0 0 0 0 0 0 0 0 0 0 0 0 0 0 0 0 0 0 0 0 0 0 0 0 0 0 0 0 0 0 0 0 0 0 0 0 0 0 0 0
0.911674 7.22279e-13 7.18419e-13 3.86055e-15 0.00534495 0.00611683 0 0 0 0 0 0 0 0 0 0 0 0 0 0 0 0 0 0 0 0 0 0 0 0 0 0 0 0 0 0 0 0 0 0 0 0 0 0 0 0 0 0
0.95847 6.692e-13 6.6595e-13 3.25002e-15 0.00485657 0.00560345 0 0 0 0 0 0 0 0 0 0 0 0 0 0 0 0 0 0 0 0 0 0 0 0 0 0 0 0 0 0 0 0 0 0 0 0 0 0 0 0 0 0
1.00767 6.14101e-13 6.11477e-13 2.62418e-15 0.00427321 0.0050712 0 0 0 0 0 0 0 0 0 0 0 0 0 0 0 0 0 0 0 0 0 0 0 0 0 0 0 0 0 0 0 0 0 0 0 0 0 0 0 0 0 0
1.05939 5.68403e-13 5.66212e-13 2.19087e-15 0.00385444 0.0046363 0 0 0 0 0 0 0 0 0 0 0 0 0 0 0 0 0 0 0 0 0 0 0 0 0 0 0 0 0 0 0 0 0 0 0 0 0 0 0 0 0 0
1.11377 5.2252e-13 5.20746e-13 1.77351e-15 0.00339415 0.0042012 0 0 0 0 0 0 0 0 0 0 0 0 0 0 0 0 0 0 0 0 0 0 0 0 0 0 0 0 0 0 0 0 0 0 0 0 0 0 0 0 0 0
1.17094 4.83735e-13 4.82256e-13 1.47851e-15 0.00305645 0.00384051 0 0 0 0 0 0 0 0 0 0 0 0 0 0 0 0 0 0 0 0 0 0 0 0 0 0 0 0 0 0 0 0 0 0 0 0 0 0 0 0 0 0
1.23105 4.45607e-13 4.44403e-13 1.2035e-15 0.0027008 0.00348818 0 0 0 0 0 0 0 0 0 0 0 0 0 0 0 0 0 0 0 0 0 0 0 0 0 0 0 0 0 0 0 0 0 0 0 0 0 0 0 0 0 0
1.29424 4.11832e-13 4.10838e-13 9.94181e-16 0.00241404 0.00318189 0 0 0 0 0 0 0 0 0 0 0 0 0 0 0 0 0 0 0 0 0 0 0 0 0 0 0 0 0 0 0 0 0 0 0 0 0 0 0 0 0 0
1.36067 3.80491e-13 3.79672e-13 8.19024e-16 0.00215254 0.00290214 0 0 0 0 0 0 0 0 0 0 0 0 0 0 0 0 0 0 0 0 0 0 0 0 0 0 0 0 0 0 0 0 0 0 0 0 0 0 0 0 0 0
1.43051 3.50778e-13 3.50109e-13 6.68587e-16 0.00190601 0.0026409 0 0 0 0 0 0 0 0 0 0 0 0 0 0 0 0 0 0 0 0 0 0 0 0 0 0 0 0 0 0 0 0 0 0 0 0 0 0 0 0 0 0
1.50394 3.23872e-13 3.23322e-13 5.50913e-16 0.00170102 0.00241051 0 0 0 0 0 0 0 0 0 0 0 0 0 0 0 0 0 0 0 0 0 0 0 0 0 0 0 0 0 0 0 0 0 0 0 0 0 0 0 0 0 0
1.58114 2.98899e-13 2.98445e-13 4.54542e-16 0.00152072 0.00220263 0 0 0 0 0 0 0 0 0 0 0 0 0 0 0 0 0 0 0 0 0 0 0 0 0 0 0 0 0 0 0 0 0 0 0 0 0 0 0 0 0 0
1.6623 2.75385e-13 2.75012e-13 3.73192e-16 0.00135517 0.00201112 0 0 0 0 0 0 0 0 0 0 0 0 0 0 0 0 0 0 0 0 0 0 0 0 0 0 0 0 0 0 0 0 0 0 0 0 0 0 0 0 0 0
1.74763 2.53546e-13 2.53241e-13 3.0584e-16 0.00120625 0.00183643 0 0 0 0 0 0 0 0 0 0 0 0 0 0 0 0 0 0 0 0 0 0 0 0 0 0 0 0 0 0 0 0 0 0 0 0 0 0 0 0 0 0
1.83733 2.33562e-13 2.33311e-13 2.50791e-16 0.00107377 0.00167841 0 0 0 0 0 0 0 0 0 0 0 0 0 0 0 0 0 0 0 0 0 0 0 0 0 0 0 0 0 0 0 0 0 0 0 0 0 0 0 0 0 0
1.93164 2.15365e-13 2.1516e-13 2.05477e-16 0.000954084 0.00153488 0 0 0 0 0 0 0 0 0 0 0 0 0 0 0 0 0 0 0 0 0 0 0 0 0 0 0 0 0 0 0 0 0 0 0 0 0 0 0 0 0 0
2.03079 1.98947e-13 1.98778e-13 1.68561e-16 0.000847266 0.00140518 0 0 0 0 0 0 0 0 0 0 0 0 0 0 0 0 0 0 0 0 0 0 0 0 0 0 0 0 0 0 0 0 0 0 0 0 0 0 0 0 0 0
2.13503 1.83777e-13 1.83639e-13 1.38447e-16 0.00075334 0.00128804 0 0 0 0 0 0 0 0 0 0 0 0 0 0 0 0 0 0 0 0 0 0 0 0 0 0 0 0 0 0 0 0 0 0 0 0 0 0 0 0 0 0
2.24463 1.70451e-13 1.70338e-13 1.13751e-16 0.000667349 0.00118198 0 0 0 0 0 0 0 0 0 0 0 0 0 0 0 0 0 0 0 0 0 0 0 0 0 0 0 0 0 0 0 0 0 0 0 0 0 0 0 0 0 0
2.35984 1.58316e-13 1.58222e-13 9.35178e-17 0.000590705 0.00108586 0 0 0 0 0 0 0 0 0 0 0 0 0 0 0 0 0 0 0 0 0 0 0 0 0 0 0 0 0 0 0 0 0 0 0 0 0 0 0 0 0 0
2.48097 1.4686e-13 1.46783e-13 7.68495e-17 0.000523284 0.00099852 0 0 0 0 0 0 0 0 0 0 0 0 0 0 0 0 0 0 0 0 0 0 0 0 0 0 0 0 0 0 0 0 0 0 0 0 0 0 0 0 0 0
2.60832 1.36201e-13 1.36138e-13 6.30474e-17 0.000462899 0.000919018 0 0 0 0 0 0 0 0 0 0 0 0 0 0 0 0 0 0 0 0 0 0 0 0 0 0 0 0 0 0 0 0 0 0 0 0 0 0 0 0 0 0
2.74221 1.26365e-13 1.26314e-13 5.17584e-17 0.000409593 0.000847132 0 0 0 0 0 0 0 0 0 0 0 0 0 0 0 0 0 0 0 0 0 0 0 0 0 0 0 0 0 0 0 0 0 0 0 0 0 0 0 0 0 0
2.88297 1.17214e-13 1.17172e-13 4.24921e-17 0.000362517 0.000781984 0 0 0 0 0 0 0 0 0 0 0 0 0 0 0 0 0 0 0 0 0 0 0 0 0 0 0 0 0 0 0 0 0 0 0 0 0 0 0 0 0 0
3.03095 1.08699e-13 1.08664e-13 3.48144e-17 0.000320282 0.000722585 0 0 0 0 0 0 0 0 0 0 0 0 0 0 0 0 0 0 0 0 0 0 0 0 0 0 0 0 0 0 0 0 0 0 0 0 0 0 0 0 0 0
3.18653 1.01141e-13 1.01112e-13 2.85898e-17 0.000282674 0.000669163 0 0 0 0 0 0 0 0 0 0 0 0 0 0 0 0 0 0 0 0 0 0 0 0 0 0 0 0 0 0 0 0 0 0 0 0 0 0 0 0 0 0
3.35009 9.38653e-14 9.38419e-14 2.34386e-17 0.000249705 0.000620467 0 0 0 0 0 0 0 0 0 0 0 0 0 0 0 0 0 0 0 0 0 0 0 0 0 0 0 0 0 0 0 0 0 0 0 0 0 0 0 0 0 0
3.52205 8.69825e-14 8.69633e-14 1.9281e-17 0.000221665 0.000576785 0 0 0 0 0 0 0 0 0 0 0 0 0 0 0 0 0 0 0 0 0 0 0 0 0 0 0 0 0 0 0 0 0 0 0 0 0 0 0 0 0 0
3.70284 8.0329e-14 8.03132e-14 1.58025e-17 0.000196722 0.000536823 0 0 0 0 0 0 0 0 0 0 0 0 0 0 0 0 0 0 0 0 0 0 0 0 0 0 0 0 0 0 0 0 0 0 0 0 0 0 0 0 0 0
3.89291 7.45094e-14 7.44965e-14 1.2948e-17 0.000173776 0.000500577 0 0 0 0 0 0 0 0 0 0 0 0 0 0 0 0 0 0 0 0 0 0 0 0 0 0 0 0 0 0 0 0 0 0 0 0 0 0 0 0 0 0
4.09273 6.91487e-14 6.9138e-14 1.06071e-17 0.000153396 0.000467721 0 0 0 0 0 0 0 0 0 0 0 0 0 0 0 0 0 0 0 0 0 0 0 0 0 0 0 0 0 0 0 0 0 0 0 0 0 0 0 0 0 0
4.30281 6.42116e-14 6.42029e-14 8.68814e-18 0.000135305 0.00043795 0 0 0 0 0 0 0 0 0 0 0 0 0 0 0 0 0 0 0 0 0 0 0 0 0 0 0 0 0 0 0 0 0 0 0 0 0 0 0 0 0 0
4.52368 5.96773e-14 5.96701e-14 7.11254e-18 0.000119184 0.000410948 0 0 0 0 0 0 0 0 0 0 0 0 0 0 0 0 0 0 0 0 0 0 0 0 0 0 0 0 0 0 0 0 0 0 0 0 0 0 0 0 0 0
4.75588 5.55162e-14 5.55103e-14 5.81534e-18 0.00010475 0.000386413 0 0 0 0 0 0 0 0 0 0 0 0 0 0 0 0 0 0 0 0 0 0 0 0 0 0 0 0 0 0 0 0 0 0 0 0 0 0 0 0 0 0
5 5.175e-14 5.17452e-14 4.75279e-18 9.18413e-05 0.000364188 0 0 0 0 0 0 0 0 0 0 0 0 0 0 0 0 0 0 0 0 0 0 0 0 0 0 0 0 0 0 0 0 0 0 1.4013e-45 0 5.60519e-45 0 1.26117e-44 0 3.08286e-44 0
5.25665 4.85129e-14 4.8509e-14 3.87345e-18 7.98437e-05 0.000343913 0 0 0 0 0 0 0 0 0 0 0 0 0 0 0 0 0 0 0 0 0 0 0 0 0 0 1.4013e-45 0 7.00649e-45 0 2.10195e-44 0 6.16571e-44 0 1.68156e-43 0 4.37205e-43 0 1.03836e-42 0 2.42705e-42 0
5.52648 4.55982e-14 4.5595e-14 3.16176e-18 6.93396e-05 0.000325651 0 0 0 0 0 0 0 0 0 0 0 0 0 0 0 0 0 0 0 0 1.4013e-45 0 9.80909e-45 0 4.34403e-44 0 1.61149e-43 0 5.49309e-43 0 1.68296e-42 0 4.67613e-42 0 1.22586e-41 0 3.04222e-41 0 6.9269e-41 0 1.55351e-40 0
5.81015 4.33008e-14 4.32982e-14 2.57415e-18 5.94481e-05 0.000337341 0 0 0 0 0 0 0 0 0 0 0 0 0 0 0 0 4.2039e-45 0 3.08286e-44 0 1.76564e-43 0 8.18358e-43 0 3.3435e-42 0 1.17177e-41 0 3.75996e-41 0 1.09158e-40 0 2.88461e-40 0 7.21489e-40 0 1.71278e-39 0 3.74625e-39 0 8.07692e-39 0
6.10839 4.34958e-14 4.34937e-14 2.0933e-18 4.81265e-05 0.000322124 0 0 0 0 0 0 0 0 0 0 0 0 2.8026e-45 0 4.34403e-44 0 3.86758e-43 0 2.57278e-42 0 1.33446e-41 0 5.73145e-41 0 2.18528e-40 0 7.20378e-40 0 2.18375e-39 0 6.01827e-39 0 1.51669e-38 0 3.62744e-38 0 8.25545e-38 0 1.73796e-37 0 3.6091e-37 0
6.42193 4.09501e-14 4.09484e-14 1.7323e-18 4.23027e-05 0.000308981 0 0 0 0 0 0 0 0 0 0 1.54143e-44 0 2.9147e-43 0 3.29445e-42 0 2.59955e-41 0 1.57697e-40 0 7.54937e-40 0 3.01983e-39 0 1.07858e-38 0 3.35435e-38 0 9.63245e-38 0 2.52644e-37 0 6.08606e-37 0 1.39492e-36 0 3.04966e-36 0 6.19108e-36 0 1.2406e-35 0
6.75157 3.87622e-14 3.87608e-14 1.40449e-18 3.62335e-05 0.000296482 0 0 0 0 0 0 0 0 3.36312e-44 0 1.15607e-42 0 1.96462e-41 0 1.97587e-40 0 1.40978e-39 0 7.83141e-39 0 3.47315e-38 0 1.29838e-37 0 4.35788e-37 0 1.28226e-36 0 3.49732e-36 0 8.75107e-36 0 2.01951e-35 0 4.445e-35 0 9.35382e-35 0 1.83438e-34 0 3.55317e-34 0
7.09813 3.7777e-14 3.77759e-14 1.14088e-18 3.02003e-05 0.000285211 0 0 0 8.40779e-45 0 0 2.66247e-44 0 2.54196e-42 0 7.40222e-41 0 1.09564e-39 0 9.8444e-39 0 6.38142e-38 0 3.26021e-37 0 1.34446e-36 0 4.71263e-36 0 1.49095e-35 0 4.16177e-35 0 1.08084e-34 0 2.58607e-34 0 5.7292e-34 0 1.21336e-33 0 2.46225e-33 0 4.67253e-33 0 8.76314e-33 0
7.46248 3.9252e-14 3.92511e-14 9.21758e-19 2.34831e-05 0.000274834 0 1.4013e-45 0 3.93765e-43 2.8026e-45 0 2.14118e-42 0 1.64728e-40 0 4.06979e-39 0 5.28129e-38 0 4.26291e-37 0 2.52233e-36 0 1.19e-35 0 4.57939e-35 0 1.50983e-34 0 4.5155e-34 0 1.19882e-33 0 2.97169e-33 0 6.8137e-33 0 1.45201e-32 0 2.96453e-32 0 5.81154e-32 0 1.06887e-31 0 1.94402e-31 0
7.84553 4.16834e-14 4.16826e-14 7.66576e-19 1.83905e-05 0.000265983 0 5.1848e-44 0 1.71169e-41 3.13891e-43 0 1.41566e-40 0 8.8103e-39 0 1.8612e-37 0 2.13114e-36 0 1.55345e-35 0 8.42745e-35 0 3.68593e-34 0 1.3281e-33 0 4.131e-33 0 1.17113e-32 0 2.96449e-32 0 7.02988e-32 0 1.54786e-31 0 3.1789e-31 0 6.26798e-31 0 1.18902e-30 0 2.12278e-30 0 3.74969e-30 0
8.24824 3.93554e-14 3.93548e-14 6.18406e-19 1.57134e-05 0.000257551 0 2.01927e-42 0 5.62435e-40 2.00456e-41 0 6.71899e-39 0 3.41777e-37 0 6.22103e-36 0 6.32392e-35 0 4.18361e-34 0 2.08975e-33 0 8.50462e-33 0 2.87846e-32 0 8.47077e-32 0 2.28232e-31 0 5.52113e-31 0 1.25522e-30 0 2.6593e-30 0 5.27291e-30 0 1.00579e-29 0 1.84924e-29 0 3.20935e-29 0 5.51371e-29 0
8.67162 4.39592e-14 4.39587e-14 5.0676e-19 1.1528e-05 0.000249978 0 7.8823e-41 4.06377e-44 1.86905e-38 1.21977e-39 0 3.07808e-37 0 1.29242e-35 0 2.04174e-34 0 1.85332e-33 0 1.11803e-32 0 5.16285e-32 0 1.96196e-31 0 6.25666e-31 0 1.7467e-30 0 4.48389e-30 0 1.0389e-29 0 2.26908e-29 0 4.63425e-29 0 8.88688e-29 0 1.64252e-28 0 2.93147e-28 0 4.95245e-28 0 8.28651e-28 0
9.11674 4.72369e-14 4.72364e-14 4.16968e-19 8.82719e-06 0.000243188 0 2.5363e-39 3.22018e-42 5.13969e-37 5.80305e-38 0 1.11785e-35 0 3.91074e-34 0 5.39927e-33 0 4.40064e-32 0 2.4317e-31 0 1.04209e-30 0 3.71021e-30 0 1.11805e-29 0 2.9687e-29 0 7.27802e-29 0 1.61852e-28 0 3.40273e-28 0 6.71143e-28 0 1.24675e-27 0 2.23623e-27 0 3.87978e-27 0 6.38886e-27 0 1.04246e-26 0
9.5847 5.13836e-14 5.13832e-14 3.51174e-19 6.83435e-06 0.000237264 7.00649e-45 7.12244e-38 2.05409e-40 1.23801e-35 2.29441e-36 0 3.4186e-34 0 1.00542e-32 0 1.22112e-31 0 8.98363e-31 0 4.56667e-30 0 1.8228e-29 0 6.09966e-29 0 1.74172e-28 0 4.40938e-28 0 1.03469e-27 0 2.21292e-27 0 4.48663e-27 0 8.56062e-27 0 1.5429e-26 0 2.68959e-26 0 4.54249e-26 0 7.30019e-26 0 1.16302e-25 0
10.0767 5.22659e-14 5.22656e-14 3.0094e-19 5.75787e-06 0.00023217 5.46506e-43 1.62176e-36 9.92268e-39 2.42656e-34 7.03136e-35 0 8.20566e-33 0 2.04603e-31 0 2.19978e-30 0 1.46811e-29 0 6.89331e-29 0 2.57169e-28 0 8.11283e-28 0 2.20088e-27 0 5.32477e-27 0 1.19853e-26 0 2.46993e-26 0 4.83784e-26 0 8.94412e-26 0 1.56631e-25 0 2.65732e-25 0 4.3746e-25 0 6.86941e-25 0 1.06979e-24 0
10.5939 4.91929e-14 4.91927e-14 2.56431e-19 5.21275e-06 0.000227622 3.22873e-41 2.97945e-35 3.62879e-37 3.85084e-33 1.66794e-33 0 1.54287e-31 0 3.28801e-30 0 3.14804e-29 0 1.915e-28 0 8.33767e-28 0 2.91687e-27 0 8.69984e-27 0 2.24789e-26 0 5.20888e-26 0 1.12691e-25 0 2.24178e-25 0 4.24917e-25 0 7.6236e-25 0 1.29903e-24 0 2.14772e-24 0 3.45066e-24 0 5.30046e-24 0 8.07795e-24 0
11.1377 4.48724e-14 4.48722e-14 2.16516e-19 4.82516e-06 0.000223427 1.49081e-39 4.65056e-34 1.06262e-35 5.20962e-32 3.23579e-32 0 2.39958e-30 0 4.40424e-29 0 3.77638e-28 0 2.10339e-27 0 8.52323e-27 0 2.80494e-26 0 7.93131e-26 0 1.9565e-25 0 4.35141e-25 0 9.06589e-25 0 1.74394e-24 0 3.20394e-24 0 5.58658e-24 0 9.27481e-24 0 1.49624e-23 0 2.34894e-23 0 3.53332e-23 0 5.27516e-23 0
