# 9.09832e-08 0 9 : grain size, compostion index, size index
# Heating and cooling timescale: 110005 9.83699
# Ratio of heating to cooling to determine stochastic cutoff: 100
# Equilibrium emission is recorded even for those grains in the stochastic regime.
# Emission spectrum was computed for: 
# Type: IRSF
# Scales: 0.5 1 2 5 10
# StochasticallyHeated: 1 1 1 1 1
# Temperature: -1
# Wavelength  CExt  CAbs  CSca  Albedo G EqEm1 StEm1 EqEm2 StEm2 EqEm3 StEm3 EqEm4 StEm4 EqEm5 StEm5
0.05 3.18646e-15 3.18463e-15 1.82647e-18 0.000573198 0.00181365 0 0 0 0 0 0 0 0 0 0
0.0525665 3.69049e-15 3.68853e-15 1.95897e-18 0.000530816 0.00161544 0 0 0 0 0 0 0 0 0 0
0.0552647 4.25914e-15 4.25704e-15 2.09931e-18 0.000492897 0.00143838 0 0 0 0 0 0 0 0 0 0
0.0581015 5.01451e-15 5.0123e-15 2.21523e-18 0.000441764 0.00128001 0 0 0 0 0 0 0 0 0 0
0.0610839 6.97536e-15 6.97301e-15 2.35636e-18 0.000337811 0.00112725 0 0 0 0 0 0 0 0 0 0
0.0642193 8.81513e-15 8.8125e-15 2.62695e-18 0.000298004 0.000974937 0 0 0 0 0 0 0 0 0 0
0.0675157 1.05442e-14 1.05412e-14 3.09026e-18 0.000293076 0.000821405 0 0 0 0 0 0 0 0 0 0
0.0709813 1.21144e-14 1.21112e-14 3.19535e-18 0.000263764 0.000688355 0 0 0 0 0 0 0 0 0 0
0.0746248 1.13179e-14 1.13151e-14 2.79478e-18 0.000246934 0.000593456 0 0 0 0 0 0 0 0 0 0
0.0784553 8.89383e-15 8.89166e-15 2.1704e-18 0.000244034 0.000530326 0 0 0 0 0 0 0 0 0 0
0.0824824 7.0594e-15 7.05787e-15 1.52735e-18 0.000216358 0.000495541 0 0 0 0 0 0 0 0 0 0
0.0867162 5.91356e-15 5.91238e-15 1.17687e-18 0.000199012 0.00047565 0 0 0 0 0 0 0 0 0 0
0.0911674 5.15995e-15 5.15897e-15 9.87352e-19 0.000191349 0.000461714 0 0 0 0 0 0 0 0 0 0
0.095847 4.61775e-15 4.61697e-15 7.83668e-19 0.000169707 0.00048667 0 0 0 0 0 0 0 0 0 0
0.100767 4.05357e-15 4.05304e-15 5.34732e-19 0.000131916 0.000567674 0 0 0 0 0 0 0 0 0 0
0.105939 3.53407e-15 3.5337e-15 3.70468e-19 0.000104827 0.000612566 0 0 0 0 0 0 0 0 0 0
0.111377 3.03287e-15 3.03264e-15 2.26553e-19 7.46994e-05 0.000701126 0 0 0 0 0 0 0 0 0 0
0.117094 2.57059e-15 2.57045e-15 1.41215e-19 5.49348e-05 0.000642353 0 0 0 0 0 0 0 0 0 0
0.123105 2.16084e-15 2.16075e-15 9.1999e-20 4.25756e-05 0.000551143 0 0 0 0 0 0 0 0 0 0
0.129424 1.81766e-15 1.8176e-15 5.91734e-20 3.25547e-05 0.000463535 0 0 0 0 0 0 0 0 0 0
0.136067 1.64844e-15 1.6484e-15 3.83335e-20 2.32544e-05 0.000392198 0 0 0 0 0 0 0 0 0 0
0.143051 1.49615e-15 1.49612e-15 2.51767e-20 1.68277e-05 0.000334563 0 0 0 0 0 0 0 0 0 0
0.150394 1.41329e-15 1.41327e-15 1.71507e-20 1.21353e-05 0.000285602 0 0 0 0 0 0 0 0 0 0
0.158114 1.39689e-15 1.39688e-15 1.29694e-20 9.28448e-06 0.000244575 0 0 0 0 0 0 0 0 0 0
0.16623 1.45239e-15 1.45238e-15 1.19785e-20 8.24745e-06 0.000210259 0 0 0 0 0 0 0 0 0 0
0.174762 1.59121e-15 1.5912e-15 1.44307e-20 9.06902e-06 0.000180793 0 0 0 0 0 0 0 0 0 0
0.183733 1.8385e-15 1.83847e-15 2.06038e-20 1.12069e-05 0.000153984 0 0 0 0 0 0 0 0 0 0
0.193164 2.27574e-15 2.27571e-15 3.2727e-20 1.43808e-05 0.00012814 0 0 0 0 0 0 0 0 0 0
0.203079 2.98082e-15 2.98077e-15 4.99548e-20 1.67588e-05 0.000102755 0 0 0 0 0 0 0 0 0 0
0.213503 3.67211e-15 3.67205e-15 6.13181e-20 1.66983e-05 7.90287e-05 0 0 0 0 0 0 0 0 0 0
0.224463 3.52643e-15 3.52638e-15 5.09517e-20 1.44485e-05 5.85126e-05 0 0 0 0 0 0 0 0 0 0
0.235984 2.72499e-15 2.72495e-15 3.45605e-20 1.26828e-05 4.17626e-05 0 0 0 0 0 0 0 0 0 0
0.248097 2.05814e-15 2.05812e-15 2.23665e-20 1.08673e-05 3.1988e-05 0 0 0 0 0 0 0 0 0 0
0.260832 1.64721e-15 1.6472e-15 1.53586e-20 9.32401e-06 3.32758e-05 0 0 0 0 0 0 0 0 0 0
0.274221 1.40116e-15 1.40115e-15 1.10769e-20 7.90551e-06 4.44869e-05 0 0 0 0 0 0 0 0 0 5.60519e-45
0.288297 1.24759e-15 1.24758e-15 8.25564e-21 6.6173e-06 5.96901e-05 0 0 0 0 0 0 0 1.26117e-44 0 1.69557e-43
0.303095 1.13042e-15 1.13041e-15 6.3615e-21 5.62755e-06 6.69323e-05 0 0 0 0 0 4.2039e-45 0 3.96567e-43 0 4.70136e-42
0.318653 9.88129e-16 9.88124e-16 4.95334e-21 5.01285e-06 6.98415e-05 0 0 0 1.4013e-45 0 1.24716e-43 0 9.80208e-42 0 1.0614e-40
0.335009 8.6828e-16 8.68277e-16 3.90143e-21 4.49328e-06 6.86839e-05 0 1.54143e-44 0 7.56701e-44 0 3.19636e-42 0 2.05795e-40 0 2.04425e-39
0.352205 7.5797e-16 7.57967e-16 3.11081e-21 4.10414e-06 6.51739e-05 0 6.78228e-43 0 2.55176e-42 0 6.92129e-41 0 3.65556e-39 0 3.34773e-38
0.370284 6.56989e-16 6.56986e-16 2.50236e-21 3.80884e-06 6.09314e-05 0 2.5278e-41 0 7.6197e-41 0 1.29046e-39 0 5.54045e-38 0 4.69694e-37
0.389291 5.65196e-16 5.65194e-16 2.02842e-21 3.58887e-06 5.68083e-05 0 7.74607e-40 0 2.01266e-39 0 2.11841e-38 0 7.23143e-37 0 5.68933e-36
0.409273 4.82579e-16 4.82578e-16 1.64915e-21 3.41736e-06 5.28053e-05 0 1.96941e-38 0 4.65028e-38 0 3.14446e-37 0 8.2196e-36 0 5.99967e-35
0.430281 4.08645e-16 4.08644e-16 1.34212e-21 3.28432e-06 4.90023e-05 0 4.18552e-37 0 9.30581e-37 0 4.32394e-36 0 8.2464e-35 0 5.55615e-34
0.452368 3.4298e-16 3.42979e-16 1.0921e-21 3.18414e-06 4.50738e-05 0 7.49095e-36 0 1.6041e-35 0 5.58444e-35 0 7.43612e-34 0 4.56781e-33
0.475588 2.85174e-16 2.85174e-16 8.89242e-22 3.11824e-06 4.13115e-05 0 1.13717e-34 0 2.37858e-34 0 6.75938e-34 0 6.16924e-33 0 3.38199e-32
0.5 2.34835e-16 2.34834e-16 7.25973e-22 3.09142e-06 3.77019e-05 0 1.47479e-33 0 3.0394e-33 0 7.56199e-33 0 4.83133e-32 0 2.299e-31
0.525665 1.91212e-16 1.91212e-16 5.93317e-22 3.10292e-06 3.42891e-05 0 1.64299e-32 0 3.35411e-32 0 7.67926e-32 0 3.63704e-31 0 1.4664e-30
0.552647 1.53655e-16 1.53655e-16 4.8508e-22 3.15694e-06 3.118e-05 0 1.58001e-31 0 3.20579e-31 0 6.97623e-31 0 2.63984e-30 0 8.95731e-30
0.581015 1.21418e-16 1.21417e-16 3.98522e-22 3.28224e-06 2.82907e-05 0 1.3154e-30 0 2.6581e-30 0 5.60878e-30 0 1.82075e-29 0 5.2881e-29
0.610839 9.32086e-17 9.32083e-17 3.27506e-22 3.51369e-06 2.56735e-05 0 9.42414e-30 0 1.89922e-29 0 3.93281e-29 0 1.15738e-28 0 2.97405e-28
0.642193 6.62206e-17 6.62203e-17 2.691e-22 4.06369e-06 2.32994e-05 0 5.56792e-29 0 1.12e-28 0 2.29247e-28 0 6.35015e-28 0 1.49629e-27
0.675157 3.79195e-17 3.79192e-17 2.21362e-22 5.8377e-06 2.11548e-05 0 2.37583e-28 0 4.77288e-28 0 9.69846e-28 0 2.58926e-27 0 5.76177e-27
0.709813 2.28259e-17 2.28257e-17 1.82402e-22 7.991e-06 1.92313e-05 0 9.60046e-28 0 1.9269e-27 0 3.89727e-27 0 1.01735e-26 0 2.18288e-26
0.746248 1.67126e-17 1.67124e-17 1.50325e-22 8.99473e-06 1.75127e-05 0 4.27252e-27 0 8.56968e-27 0 1.72801e-26 0 4.44868e-26 0 9.32912e-26
0.784553 9.59066e-18 9.59054e-18 1.23851e-22 1.29137e-05 1.59519e-05 0 1.35587e-26 0 2.71824e-26 0 5.47007e-26 0 1.39601e-25 0 2.88548e-25
0.824824 2.98508e-18 2.98498e-18 1.02016e-22 3.41755e-05 1.45512e-05 0 2.13303e-26 0 4.27473e-26 0 8.59047e-26 0 2.18013e-25 0 4.46467e-25
0.867162 8.61257e-19 8.61172e-19 8.4062e-23 9.76039e-05 1.3291e-05 0 2.85546e-26 0 5.72092e-26 0 1.14857e-25 0 2.90419e-25 0 5.91162e-25
0.911674 2.92351e-19 2.92282e-19 6.92308e-23 0.000236807 1.21508e-05 0 4.14539e-26 0 8.30351e-26 0 1.66593e-25 0 4.20191e-25 0 8.51867e-25
0.95847 1.12695e-19 1.12638e-19 5.69691e-23 0.000505516 1.1129e-05 0 6.32398e-26 0 1.26652e-25 0 2.53976e-25 0 6.39492e-25 0 1.29287e-24
1.00767 4.77971e-20 4.77502e-20 4.68822e-23 0.000980859 1.02011e-05 0 9.85861e-26 0 1.97414e-25 0 3.95728e-25 0 9.95196e-25 0 2.00808e-24
1.05939 2.17746e-20 2.1736e-20 3.85653e-23 0.00177111 9.35947e-06 0 1.5385e-25 0 3.08042e-25 0 6.17314e-25 0 1.55107e-24 0 3.12527e-24
1.11377 1.06103e-20 1.05786e-20 3.1714e-23 0.00298898 8.59329e-06 0 2.40125e-25 0 4.80737e-25 0 9.6318e-25 0 2.41847e-24 0 4.8679e-24
1.17094 5.6804e-21 5.65433e-21 2.60684e-23 0.00458917 7.87805e-06 0 3.86279e-25 0 7.7328e-25 0 1.54903e-24 0 3.88749e-24 0 7.81847e-24
1.23105 3.51997e-21 3.49853e-21 2.14378e-23 0.00609033 7.22322e-06 0 6.77123e-25 0 1.35542e-24 0 2.71477e-24 0 6.8103e-24 0 1.36882e-23
1.29424 2.59664e-21 2.579e-21 1.76353e-23 0.00679161 6.62086e-06 0 1.3351e-24 0 2.67235e-24 0 5.35181e-24 0 1.34212e-23 0 2.69621e-23
1.36067 2.26374e-21 2.24924e-21 1.44989e-23 0.00640486 6.07213e-06 0 2.94855e-24 0 5.90151e-24 0 1.18175e-23 0 2.96278e-23 0 5.94954e-23
1.43051 2.22505e-21 2.21313e-21 1.19148e-23 0.00535483 5.57228e-06 0 6.9738e-24 0 1.39574e-23 0 2.79466e-23 0 7.00494e-23 0 1.40618e-22
1.50394 2.34204e-21 2.33225e-21 9.79474e-24 0.00418214 5.11018e-06 0 1.68114e-23 0 3.3645e-23 0 6.73616e-23 0 1.68812e-22 0 3.38776e-22
1.58114 2.54957e-21 2.54152e-21 8.05206e-24 0.0031582 4.67939e-06 0 3.99775e-23 0 8.00046e-23 0 1.60168e-22 0 4.01324e-22 0 8.05187e-22
1.6623 2.82144e-21 2.81482e-21 6.6201e-24 0.00234635 4.27984e-06 0 9.23819e-23 0 1.84872e-22 0 3.7009e-22 0 9.27174e-22 0 1.85981e-21
1.74762 3.14956e-21 3.14412e-21 5.4434e-24 0.0017283 3.91982e-06 0 2.06313e-22 0 4.12854e-22 0 8.26434e-22 0 2.07017e-21 0 4.15175e-21
1.83733 3.53541e-21 3.53093e-21 4.47538e-24 0.00126587 3.59067e-06 0 4.44829e-22 0 8.90124e-22 0 1.78173e-21 0 4.4626e-21 0 8.94829e-21
1.93164 3.98724e-21 3.98356e-21 3.67809e-24 0.000922466 3.2885e-06 0 9.27069e-22 0 1.85506e-21 0 3.71303e-21 0 9.29886e-21 0 1.8643e-20
2.03079 4.52022e-21 4.5172e-21 3.02215e-24 0.000668584 3.00819e-06 0 1.87214e-21 0 3.74604e-21 0 7.49765e-21 0 1.87752e-20 0 3.76367e-20
2.13503 5.16018e-21 5.15769e-21 2.48512e-24 0.000481596 2.75167e-06 0 3.67655e-21 0 7.35639e-21 0 1.47232e-20 0 3.68658e-20 0 7.38919e-20
2.24463 5.94562e-21 5.94358e-21 2.04259e-24 0.000343545 2.51797e-06 0 7.05016e-21 0 1.41063e-20 0 2.82316e-20 0 7.06844e-20 0 1.4166e-19
2.35984 6.94312e-21 6.94144e-21 1.67823e-24 0.000241711 2.3026e-06 0 1.32785e-20 0 2.65677e-20 0 5.31694e-20 0 1.33112e-19 0 2.66746e-19
2.48097 8.27838e-21 8.277e-21 1.37862e-24 0.000166532 2.10351e-06 0 2.47855e-20 0 4.95902e-20 0 9.9241e-20 0 2.48438e-19 2.8026e-45 4.97803e-19
2.60832 1.02245e-20 1.02234e-20 1.13345e-24 0.000110856 1.91989e-06 0 4.65901e-20 0 9.32146e-20 0 1.86538e-19 0 4.66947e-19 2.18603e-43 9.35556e-19
2.74221 1.34339e-20 1.34329e-20 9.31563e-25 6.93444e-05 1.7528e-06 0 9.0705e-20 0 1.81474e-19 0 3.6315e-19 1.4013e-45 9.08997e-19 1.23118e-41 1.82109e-18
2.88297 1.99313e-20 1.99305e-20 7.65044e-25 3.83841e-05 1.60169e-06 0 1.94419e-19 0 3.88968e-19 0 7.78352e-19 1.45735e-43 1.94818e-18 6.44516e-40 3.90271e-18
3.03095 3.9371e-20 3.93704e-20 6.28402e-25 1.5961e-05 1.46436e-06 0 5.41661e-19 0 1.08367e-18 0 2.16846e-18 1.27098e-41 5.42729e-18 3.72901e-38 1.08715e-17
3.18653 2.01774e-19 2.01773e-19 5.16252e-25 2.55857e-06 1.33677e-06 0 3.82735e-18 0 7.65708e-18 2.24208e-44 1.53217e-17 2.36008e-39 3.8346e-17 4.68897e-36 7.6807e-17
3.35009 1.0886e-18 1.0886e-18 4.23976e-25 3.89468e-07 1.21965e-06 0 2.78643e-17 0 5.57452e-17 6.42075e-42 1.11543e-16 3.82466e-37 2.7915e-16 5.24463e-34 5.59107e-16
3.52205 6.44107e-20 6.44103e-20 3.48028e-25 5.40327e-06 1.11299e-06 0 2.17997e-18 1.4013e-45 4.36118e-18 1.63321e-41 8.72633e-18 5.68703e-37 2.18379e-17 5.48076e-34 4.37366e-17
3.70284 3.1381e-20 3.13807e-20 2.85811e-25 9.10777e-06 1.01582e-06 0 1.3776e-18 4.90454e-44 2.75596e-18 2.81207e-40 5.51433e-18 5.87662e-36 1.37993e-17 4.04943e-33 2.76356e-17
3.89291 2.49988e-20 2.49985e-20 2.3463e-25 9.38566e-06 9.25772e-07 0 1.3978e-18 1.76704e-42 2.79634e-18 6.57151e-39 5.59504e-18 8.44971e-35 1.40008e-17 4.23187e-32 2.8038e-17
4.09273 2.43762e-20 2.4376e-20 1.92587e-25 7.90062e-06 8.40681e-07 9.80909e-45 1.70646e-18 6.32392e-41 3.4138e-18 1.57453e-37 6.83038e-18 1.27556e-33 1.70915e-17 4.71608e-31 3.42261e-17
4.30281 2.61957e-20 2.61956e-20 1.58046e-25 6.03327e-06 7.63913e-07 4.73639e-43 2.25894e-18 2.06683e-39 4.519e-18 3.51282e-36 9.04157e-18 1.8339e-32 2.26239e-17 5.08022e-30 4.53029e-17
4.52368 2.99197e-20 2.99196e-20 1.29739e-25 4.33625e-06 6.94156e-07 2.07112e-41 3.12967e-18 6.00309e-38 6.26083e-18 7.0959e-35 1.25264e-17 2.439e-31 3.13429e-17 5.13413e-29 6.27599e-17
4.75588 3.63022e-20 3.63021e-20 1.06461e-25 2.93263e-06 6.30159e-07 7.95521e-40 4.53963e-18 1.56233e-36 9.08136e-18 1.30733e-33 1.81694e-17 3.01953e-30 4.54613e-17 4.89511e-28 9.10269e-17
5 5.03956e-20 5.03955e-20 8.73341e-26 1.73297e-06 5.68783e-07 2.91745e-38 7.43094e-18 3.95677e-35 1.48652e-17 2.38375e-32 2.9741e-17 3.77218e-29 7.44124e-17 4.77005e-27 1.48991e-16
5.25665 1.38549e-19 1.38549e-19 7.16598e-26 5.17217e-07 5.1357e-07 1.78395e-36 2.37766e-17 1.70132e-33 4.75635e-17 7.49858e-31 9.51599e-17 8.28142e-28 2.38086e-16 8.26819e-26 4.76688e-16
5.52648 1.19354e-19 1.19354e-19 5.87951e-26 4.92612e-07 4.64418e-07 2.90195e-35 2.35454e-17 1.97983e-32 4.71005e-17 6.48217e-30 9.42325e-17 5.08475e-27 2.3576e-16 4.05473e-25 4.72017e-16
5.81015 2.02605e-19 2.02605e-19 4.8209e-26 2.37946e-07 4.20378e-07 7.96123e-34 4.54093e-17 3.94959e-31 9.08367e-17 9.74649e-29 1.81732e-16 5.5217e-26 4.54666e-16 3.55563e-24 9.10261e-16
6.10839 6.65645e-19 6.65645e-19 3.95184e-26 5.93686e-08 3.77237e-07 3.64526e-32 1.67618e-16 1.33565e-29 3.353e-16 2.51876e-27 6.7081e-16 1.0471e-24 1.67822e-15 5.50197e-23 3.35978e-15
6.42193 4.44303e-19 4.44303e-19 3.23942e-26 7.29103e-08 3.4352e-07 2.94553e-31 1.24376e-16 8.08991e-29 2.48798e-16 1.18124e-26 4.97746e-16 3.6583e-24 1.24523e-15 1.58418e-22 2.49285e-15
6.75157 3.6517e-19 3.6517e-19 2.65581e-26 7.27281e-08 3.07283e-07 2.56319e-30 1.12499e-16 5.35169e-28 2.25039e-16 6.1265e-26 4.50209e-16 1.43396e-23 1.12628e-15 5.16607e-22 2.25465e-15
7.09813 4.10305e-19 4.10305e-19 2.17612e-26 5.30367e-08 2.74989e-07 2.68451e-29 1.3778e-16 4.31834e-27 2.75608e-16 3.92213e-25 5.5137e-16 7.0334e-23 1.37932e-15 2.1271e-21 2.76112e-15
7.46248 9.42187e-19 9.42187e-19 1.78253e-26 1.89191e-08 2.46045e-07 5.08999e-28 3.41715e-16 6.38912e-26 6.83543e-16 4.65629e-24 1.36745e-15 6.48115e-22 3.42077e-15 1.65953e-20 6.8475e-15
7.84553 1.17976e-18 1.17976e-18 1.46067e-26 1.23811e-08 2.16613e-07 4.68956e-27 4.58111e-16 4.64931e-25 9.16366e-16 2.74819e-23 1.83321e-15 3.00607e-21 4.58577e-15 6.57009e-20 9.17923e-15
8.24824 4.77212e-19 4.77212e-19 1.19652e-26 2.50732e-08 1.89667e-07 1.25077e-26 1.96752e-16 9.90761e-25 3.93562e-16 4.79876e-23 7.87319e-16 4.17379e-21 1.96943e-15 7.84694e-20 3.94204e-15
8.67162 5.1142e-19 5.1142e-19 9.79493e-27 1.91524e-08 1.66898e-07 7.96303e-26 2.22103e-16 5.09522e-24 4.44268e-16 2.04195e-22 8.88746e-16 1.4281e-20 2.22309e-15 2.32658e-19 4.44961e-15
9.11674 1.92321e-19 1.92321e-19 8.01825e-27 4.1692e-08 1.46611e-07 1.61089e-25 8.73107e-17 8.41336e-24 1.74645e-16 2.81575e-22 3.49367e-16 1.60044e-20 8.73878e-16 2.27524e-19 1.74904e-15
9.5847 1.59945e-19 1.59945e-19 6.56115e-27 4.10212e-08 1.2801e-07 6.558e-25 7.53569e-17 2.82358e-23 1.50733e-16 7.96133e-22 3.01529e-16 3.71504e-20 7.54199e-16 4.63944e-19 1.50945e-15
10.0767 1.70268e-19 1.70268e-19 5.36649e-27 3.15178e-08 1.10237e-07 3.12395e-24 8.26773e-17 1.11932e-22 1.65374e-16 2.68124e-21 3.30814e-16 1.03711e-19 8.27425e-16 1.14497e-18 1.65595e-15
10.5939 2.34019e-19 2.34019e-19 4.38609e-27 1.87425e-08 9.45848e-08 1.76408e-23 1.16341e-16 5.3074e-22 2.32708e-16 1.08872e-20 4.65502e-16 3.5229e-19 1.16427e-15 3.45896e-18 2.33e-15
11.1377 1.19681e-18 1.19681e-18 3.58205e-27 2.993e-09 7.9315e-08 3.41756e-22 6.05347e-16 8.70764e-21 1.21081e-15 1.54126e-19 2.42205e-15 4.20858e-18 6.05763e-15 3.69611e-17 1.21223e-14
11.7094 6.28467e-19 6.28467e-19 2.9527e-27 4.69825e-09 6.53475e-08 6.29285e-22 3.21483e-16 1.36891e-20 6.43025e-16 2.10582e-19 1.28625e-15 4.89279e-18 3.21687e-15 3.86452e-17 6.43723e-15
12.3105 6.47047e-19 6.47047e-19 2.40084e-27 3.71045e-09 5.03244e-08 2.1109e-21 3.32841e-16 3.95088e-20 6.65736e-16 5.31841e-19 1.33166e-15 1.05978e-17 3.33034e-15 7.56718e-17 6.664e-15
12.9424 5.28367e-19 5.28367e-19 1.96041e-27 3.71031e-09 3.89936e-08 5.23696e-21 2.71843e-16 8.49552e-20 5.43726e-16 1.00728e-18 1.08759e-15 1.73438e-17 2.71986e-15 1.12507e-16 5.44218e-15
13.6067 3.97763e-19 3.97763e-19 1.60081e-27 4.02454e-09 2.70348e-08 1.12076e-20 2.03645e-16 1.58687e-19 4.07315e-16 1.66751e-18 8.14723e-16 2.49869e-17 2.03739e-15 1.47945e-16 4.07645e-15
14.3051 3.04446e-19 3.04446e-19 1.30613e-27 4.2902e-09 1.42265e-08 2.28918e-20 1.54358e-16 2.8478e-19 3.08733e-16 2.66785e-18 6.17527e-16 3.50273e-17 1.54421e-15 1.90145e-16 3.08952e-15
15.0394 2.48763e-19 2.48763e-19 1.06507e-27 4.28149e-09 7.17626e-09 4.70023e-20 1.24338e-16 5.17006e-19 2.48687e-16 4.34217e-18 4.97415e-16 5.02754e-17 1.24381e-15 2.51283e-16 2.48837e-15
15.8114 2.56264e-19 2.56264e-19 8.68483e-28 3.38902e-09 -5.83722e-10 1.14905e-19 1.25733e-16 1.12427e-18 2.51474e-16 8.51055e-18 5.02981e-16 8.74329e-17 1.25768e-15 4.03984e-16 2.51599e-15
16.623 3.57468e-19 3.57468e-19 7.08047e-28 1.98073e-09 -8.63712e-09 3.60227e-19 1.71476e-16 3.15316e-18 3.42959e-16 2.16229e-17 6.85951e-16 1.9826e-16 1.71511e-15 8.50102e-16 3.43089e-15
17.4762 3.06277e-19 3.06277e-19 5.76948e-28 1.88375e-09 -1.97827e-08 6.58659e-19 1.43105e-16 5.18597e-18 2.86212e-16 3.23722e-17 5.72442e-16 2.66385e-16 1.43124e-15 1.06385e-15 2.86285e-15
18.3733 2.00958e-19 2.00958e-19 4.69869e-28 2.33815e-09 -2.8695e-08 8.77975e-19 9.11378e-17 6.25024e-18 1.82275e-16 3.56786e-17 3.64554e-16 2.64883e-16 9.11429e-16 9.88698e-16 1.82297e-15
19.3164 1.68465e-19 1.68465e-19 3.83156e-28 2.2744e-09 -3.77897e-08 1.42685e-18 7.39161e-17 9.22942e-18 1.4783e-16 4.83893e-17 2.95657e-16 3.25753e-16 7.3914e-16 1.14018e-15 1.47826e-15
20.3079 1.43765e-19 1.43765e-19 3.12644e-28 2.17469e-09 -4.30744e-08 2.25773e-18 6.08414e-17 1.33316e-17 1.21679e-16 6.44651e-17 2.43351e-16 3.95396e-16 6.08341e-16 1.30183e-15 1.21657e-15
21.3503 1.242e-19 1.242e-19 2.55381e-28 2.05622e-09 -4.72907e-08 3.46647e-18 5.05541e-17 1.87691e-17 1.01104e-16 8.40369e-17 2.02196e-16 4.7176e-16 5.05431e-16 1.46549e-15 1.01067e-15
22.4463 1.07722e-19 1.07722e-19 2.09282e-28 1.94279e-09 -5.8485e-08 5.13244e-18 4.20624e-17 2.55897e-17 8.41198e-17 1.06489e-16 1.68226e-16 5.49514e-16 4.20487e-16 1.61515e-15 8.40733e-16
23.5984 9.35902e-20 9.35902e-20 1.72528e-28 1.84345e-09 -5.65982e-08 7.32571e-18 3.49716e-17 3.37696e-17 6.99378e-17 1.31079e-16 1.3986e-16 6.24335e-16 3.49559e-16 1.74102e-15 6.98839e-16
24.8097 8.14116e-20 8.14116e-20 1.43458e-28 1.76214e-09 -6.29002e-08 1.00943e-17 2.9046e-17 4.31866e-17 5.80865e-17 1.56892e-16 1.16156e-16 6.92464e-16 2.90291e-16 1.83677e-15 5.80275e-16
26.0832 7.09283e-20 7.09283e-20 1.20831e-28 1.70356e-09 -7.51093e-08 1.3456e-17 2.41116e-17 5.36254e-17 4.82176e-17 1.82925e-16 9.64178e-17 7.50932e-16 2.40939e-16 1.89933e-15 4.81553e-16
27.4221 6.19329e-20 6.19329e-20 1.03179e-28 1.66598e-09 -6.55166e-08 1.73942e-17 2.0021e-17 6.47953e-17 4.00365e-17 2.08177e-16 8.00554e-17 7.97693e-16 2.0003e-16 1.92839e-15 3.99722e-16
28.8297 5.42003e-20 5.42003e-20 8.95904e-29 1.65295e-09 -8.02855e-08 2.18395e-17 1.66317e-17 7.62957e-17 3.32579e-17 2.31552e-16 6.64981e-17 8.30993e-16 1.66135e-16 1.92436e-15 3.31925e-16
30.3095 4.75361e-20 4.75361e-20 7.87512e-29 1.65666e-09 -7.1818e-08 2.66726e-17 1.38225e-17 8.76603e-17 2.76397e-17 2.52014e-16 5.52619e-17 8.49804e-16 1.38044e-16 1.88915e-15 2.7574e-16
31.8653 4.17834e-20 4.17834e-20 6.9192e-29 1.65597e-09 -6.77067e-08 3.17336e-17 1.14948e-17 9.84091e-17 2.29845e-17 2.68709e-16 4.59517e-17 8.54002e-16 1.14768e-16 1.82622e-15 2.2919e-16
33.5009 3.68234e-20 3.68234e-20 6.06892e-29 1.64811e-09 -6.89554e-08 3.6846e-17 9.56981e-18 1.08123e-16 1.91346e-17 2.81121e-16 3.82524e-17 8.44554e-16 9.55211e-17 1.74066e-15 1.90698e-16
35.2206 3.25185e-20 3.25185e-20 5.19736e-29 1.59828e-09 -7.80292e-08 4.17828e-17 7.97203e-18 1.16337e-16 1.59392e-17 2.88713e-16 3.1862e-17 8.22196e-16 7.95467e-17 1.63631e-15 1.58753e-16
37.0284 2.87727e-20 2.87727e-20 4.39627e-29 1.52793e-09 -7.30219e-08 4.63281e-17 6.64487e-18 1.22709e-16 1.32851e-17 2.9134e-16 2.65542e-17 7.88586e-16 6.62791e-17 1.51816e-15 1.32223e-16
38.9291 2.55086e-20 2.55086e-20 3.65211e-29 1.43172e-09 -3.91232e-08 5.0288e-17 5.5423e-18 1.27021e-16 1.10802e-17 2.89155e-16 2.21447e-17 7.45816e-16 5.52577e-17 1.39131e-15 1.10187e-16
40.9273 2.26591e-20 2.26591e-20 3.00466e-29 1.32603e-09 -4.07563e-08 5.34991e-17 4.62591e-18 1.29168e-16 9.24754e-18 2.82525e-16 1.848e-17 6.96104e-16 4.60982e-17 1.26038e-15 9.18753e-17
43.0282 2.01589e-20 2.01589e-20 2.45126e-29 1.21597e-09 -2.52235e-08 5.58193e-17 3.86226e-18 1.29112e-16 7.72041e-18 2.71883e-16 1.54262e-17 6.41412e-16 3.84663e-17 1.12897e-15 7.66194e-17
