# 8.4139e-06 1 95 : grain size, compostion index, size index
# Heating and cooling timescale: 0.401515 522320
# Ratio of heating to cooling to determine stochastic cutoff: 100
# Equilibrium emission is recorded even for those grains in the stochastic regime.
# Emission spectrum was computed for: 
# Type: IRSF
# Scales: 0.25 0.5 1 1.5 2 2.5 3 3.5 4 4.5 5 5.5 6 6.5 7 7.5 8 8.5 9 9.5 10
# StochasticallyHeated: 0 0 0 0 0 0 0 0 0 0 0 0 0 0 0 0 0 0 0 0 0
# Temperature: -1
# Wavelength  CExt  CAbs  CSca  Albedo G EqEm1 StEm1 EqEm2 StEm2 EqEm3 StEm3 EqEm4 StEm4 EqEm5 StEm5 EqEm6 StEm6 EqEm7 StEm7 EqEm8 StEm8 EqEm9 StEm9 EqEm10 StEm10 EqEm11 StEm11 EqEm12 StEm12 EqEm13 StEm13 EqEm14 StEm14 EqEm15 StEm15 EqEm16 StEm16 EqEm17 StEm17 EqEm18 StEm18 EqEm19 StEm19 EqEm20 StEm20 EqEm21 StEm21
0.05 1.40797e-10 7.2395e-11 6.84023e-11 0.485821 0.202994 0 0 0 0 0 0 0 0 0 0 0 0 0 0 0 0 0 0 0 0 0 0 0 0 0 0 0 0 0 0 0 0 0 0 0 0 0 0 0 0 0 0
0.0525665 1.55623e-10 8.00179e-11 7.56048e-11 0.485821 0.224369 0 0 0 0 0 0 0 0 0 0 0 0 0 0 0 0 0 0 0 0 0 0 0 0 0 0 0 0 0 0 0 0 0 0 0 0 0 0 0 0 0 0
0.0552647 1.72009e-10 8.84434e-11 8.35656e-11 0.485821 0.247993 0 0 0 0 0 0 0 0 0 0 0 0 0 0 0 0 0 0 0 0 0 0 0 0 0 0 0 0 0 0 0 0 0 0 0 0 0 0 0 0 0 0
0.0581015 1.90121e-10 9.7756e-11 9.23646e-11 0.485821 0.274106 0 0 0 0 0 0 0 0 0 0 0 0 0 0 0 0 0 0 0 0 0 0 0 0 0 0 0 0 0 0 0 0 0 0 0 0 0 0 0 0 0 0
0.0610839 2.10139e-10 1.08049e-10 1.0209e-10 0.485821 0.302968 0 0 0 0 0 0 0 0 0 0 0 0 0 0 0 0 0 0 0 0 0 0 0 0 0 0 0 0 0 0 0 0 0 0 0 0 0 0 0 0 0 0
0.0642193 2.32266e-10 1.19426e-10 1.1284e-10 0.485821 0.334869 0 0 0 0 0 0 0 0 0 0 0 0 0 0 0 0 0 0 0 0 0 0 0 0 0 0 0 0 0 0 0 0 0 0 0 0 0 0 0 0 0 0
0.0675157 2.56723e-10 1.32001e-10 1.24721e-10 0.485821 0.370129 0 0 0 0 0 0 0 0 0 0 0 0 0 0 0 0 0 0 0 0 0 0 0 0 0 0 0 0 0 0 0 0 0 0 0 0 0 0 0 0 0 0
0.0709813 2.83754e-10 1.459e-10 1.37854e-10 0.485821 0.409102 0 0 0 0 0 0 0 0 0 0 0 0 0 0 0 0 0 0 0 0 0 0 0 0 0 0 0 0 0 0 0 0 0 0 0 0 0 0 0 0 0 0
0.0746248 3.13632e-10 1.61263e-10 1.52369e-10 0.485821 0.452178 0 0 0 0 0 0 0 0 0 0 0 0 0 0 0 0 0 0 0 0 0 0 0 0 0 0 0 0 0 0 0 0 0 0 0 0 0 0 0 0 0 0
0.0784553 3.46656e-10 1.78243e-10 1.68413e-10 0.485821 0.49979 0 0 0 0 0 0 0 0 0 0 0 0 0 0 0 0 0 0 0 0 0 0 0 0 0 0 0 0 0 0 0 0 0 0 0 0 0 0 0 0 0 0
0.0824824 3.83157e-10 1.97011e-10 1.86146e-10 0.485821 0.552416 0 0 0 0 0 0 0 0 0 0 0 0 0 0 0 0 0 0 0 0 0 0 0 0 0 0 0 0 0 0 0 0 0 0 0 0 0 0 0 0 0 0
0.0867162 4.23502e-10 2.17756e-10 2.05746e-10 0.485821 0.610583 0 0 0 0 0 0 0 0 0 0 0 0 0 0 0 0 0 0 0 0 0 0 0 0 0 0 0 0 0 0 0 0 0 0 0 0 0 0 0 0 0 0
0.0911674 4.68095e-10 2.40685e-10 2.2741e-10 0.485821 0.674874 0 0 0 0 0 0 0 0 0 0 0 0 0 0 0 0 0 0 0 0 0 0 0 0 0 0 0 0 0 0 0 0 0 0 0 0 0 0 0 0 0 0
0.095847 5.17383e-10 2.66027e-10 2.51355e-10 0.485821 0.745935 0 0 0 0 0 0 0 0 0 0 0 0 0 0 0 0 0 0 0 0 0 0 0 0 0 0 0 0 0 0 0 0 0 0 0 0 0 0 0 0 0 0
0.100767 5.64246e-10 2.90323e-10 2.73924e-10 0.485468 0.811362 0 0 0 0 0 0 0 0 0 0 0 0 0 0 0 0 0 0 0 0 0 0 0 0 0 0 0 0 0 0 0 0 0 0 0 0 0 0 0 0 0 0
0.105939 5.7146e-10 2.95239e-10 2.76221e-10 0.48336 0.810415 0 0 0 0 0 0 0 0 0 0 0 0 0 0 0 0 0 0 0 0 0 0 0 0 0 0 0 0 0 0 0 0 0 0 0 0 0 0 0 0 0 0
0.111377 5.78776e-10 3.00283e-10 2.78493e-10 0.481176 0.810335 0 0 0 0 0 0 0 0 0 0 0 0 0 0 0 0 0 0 0 0 0 0 0 0 0 0 0 0 0 0 0 0 0 0 0 0 0 0 0 0 0 0
0.117094 5.86314e-10 3.05325e-10 2.80989e-10 0.479247 0.808152 0 0 0 0 0 0 0 0 0 0 0 0 0 0 0 0 0 0 0 0 0 0 0 0 0 0 0 0 0 0 0 0 0 0 0 0 0 0 0 0 0 0
0.123105 5.94136e-10 3.10725e-10 2.83411e-10 0.477013 0.804344 0 0 0 0 0 0 0 0 0 0 0 0 0 0 0 0 0 0 0 0 0 0 0 0 0 0 0 0 0 0 0 0 0 0 0 0 0 0 0 0 0 0
0.129424 6.02162e-10 3.16532e-10 2.8563e-10 0.474341 0.799284 0 0 0 0 0 0 0 0 0 0 0 0 0 0 0 0 0 0 0 0 0 0 0 0 0 0 0 0 0 0 0 0 0 0 0 0 0 0 0 0 0 0
0.136067 6.10881e-10 3.22559e-10 2.88322e-10 0.471977 0.79285 0 0 0 0 0 0 0 0 0 0 0 0 0 0 0 0 0 0 0 0 0 0 0 0 0 0 0 0 0 0 0 0 0 0 0 0 0 0 0 0 0 0
0.143051 6.20441e-10 3.2948e-10 2.90961e-10 0.468959 0.783967 0 0 0 0 0 0 0 0 0 0 0 0 0 0 0 0 0 0 0 0 0 0 0 0 0 0 0 0 0 0 0 0 0 0 0 0 0 0 0 0 0 0
0.150394 6.33401e-10 3.34747e-10 2.98655e-10 0.471509 0.773693 0 0 0 0 0 0 0 0 0 0 0 0 0 0 0 0 0 0 0 0 0 0 0 0 0 0 0 0 0 0 0 0 0 0 0 0 0 0 0 0 0 0
0.158114 6.66472e-10 3.27457e-10 3.39016e-10 0.508672 0.737064 0 0 0 0 0 0 0 0 0 0 0 0 0 0 0 0 0 0 0 0 0 0 0 0 0 0 0 0 0 0 0 0 0 0 0 0 0 0 0 0 0 0
0.16623 7.4137e-10 2.94466e-10 4.46904e-10 0.602809 0.653954 0 0 0 0 0 0 0 0 0 0 0 0 0 0 0 0 0 0 0 0 0 0 0 0 0 0 0 0 0 0 0 0 0 0 0 0 0 0 0 0 0 0
0.174762 8.27389e-10 2.59338e-10 5.68051e-10 0.686559 0.611146 0 0 0 0 0 0 0 0 0 0 0 0 0 0 0 0 0 0 0 0 0 0 0 0 0 0 0 0 0 0 0 0 0 0 0 0 0 0 0 0 0 0
0.183733 8.83322e-10 2.10449e-10 6.72872e-10 0.761752 0.59903 0 0 0 0 0 0 0 0 0 0 0 0 0 0 0 0 0 0 0 0 0 0 0 0 0 0 0 0 0 0 0 0 0 0 0 0 0 0 0 0 0 0
0.193164 8.83194e-10 1.58424e-10 7.24771e-10 0.820624 0.570965 0 0 0 0 0 0 0 0 0 0 0 0 0 0 0 0 0 0 0 0 0 0 0 0 0 0 0 0 0 0 0 0 0 0 0 0 0 0 0 0 0 0
0.203079 8.58606e-10 1.44181e-10 7.14425e-10 0.832075 0.585966 0 0 0 0 0 0 0 0 0 0 0 0 0 0 0 0 0 0 0 0 0 0 0 0 0 0 0 0 0 0 0 0 0 0 0 0 0 0 0 0 0 0
0.213503 8.1356e-10 1.41017e-10 6.72544e-10 0.826667 0.623282 0 0 0 0 0 0 0 0 0 0 0 0 0 0 0 0 0 0 0 0 0 0 0 0 0 0 0 0 0 0 0 0 0 0 0 0 0 0 0 0 0 0
0.224463 7.41938e-10 1.31814e-10 6.10124e-10 0.822338 0.645007 0 0 0 0 0 0 0 0 0 0 0 0 0 0 0 0 0 0 0 0 0 0 0 0 0 0 0 0 0 0 0 0 0 0 0 0 0 0 0 0 0 0
0.235984 6.63007e-10 1.18824e-10 5.44183e-10 0.82078 0.628458 0 0 0 0 0 0 0 0 0 0 0 0 0 0 0 0 0 0 0 0 0 0 0 0 0 0 0 0 0 0 0 0 0 0 0 0 0 0 0 0 0 0
0.248097 6.00068e-10 1.07835e-10 4.92233e-10 0.820296 0.596748 0 0 0 0 0 0 0 0 0 0 0 0 0 0 0 0 0 0 0 0 0 0 0 0 0 0 0 0 0 0 0 0 0 0 0 0 0 0 0 0 0 0
0.260832 5.53241e-10 1.01511e-10 4.5173e-10 0.816515 0.568276 0 0 0 0 0 0 0 0 0 0 0 0 0 0 0 0 0 0 0 0 0 0 0 0 0 0 0 0 0 0 0 0 0 0 0 0 0 0 0 0 0 0
0.274221 5.11173e-10 9.78438e-11 4.1333e-10 0.80859 0.554064 0 0 0 0 0 0 0 0 0 0 0 0 0 0 0 0 0 0 0 0 0 0 0 0 0 0 0 0 0 0 0 0 0 0 0 0 0 0 0 0 0 0
0.288297 4.66514e-10 9.45811e-11 3.71933e-10 0.79726 0.556839 0 0 0 0 0 0 0 0 0 0 0 0 0 0 0 0 0 0 0 0 0 0 0 0 0 0 0 0 0 0 0 0 0 0 0 0 0 0 0 0 0 0
0.303095 4.17349e-10 9.01124e-11 3.27237e-10 0.784084 0.570066 0 0 0 0 0 0 0 0 0 0 0 0 0 0 0 0 0 0 0 0 0 0 0 0 0 0 0 0 0 0 0 0 0 0 0 0 0 0 0 0 0 0
0.318653 3.67294e-10 8.41467e-11 2.83147e-10 0.770901 0.582003 0 0 0 0 0 0 0 0 0 0 0 0 0 0 0 0 0 0 0 0 0 0 0 0 0 0 0 0 0 0 0 0 0 0 0 0 0 0 0 0 0 0
0.335009 3.20426e-10 7.72734e-11 2.43153e-10 0.758842 0.580494 0 0 0 0 0 0 0 0 0 0 0 0 0 0 0 0 0 0 0 0 0 0 0 0 0 0 0 0 0 0 0 0 0 0 0 0 0 0 0 0 0 0
0.352205 2.79317e-10 7.03657e-11 2.08951e-10 0.748079 0.559421 0 0 0 0 0 0 0 0 0 0 0 0 0 0 0 0 0 0 0 0 0 0 0 0 0 0 0 0 0 0 0 0 0 0 0 0 0 0 0 0 0 0
0.370284 2.44496e-10 6.40322e-11 1.80464e-10 0.738106 0.521088 0 0 0 0 0 0 0 0 0 0 0 0 0 0 0 0 0 0 0 0 0 0 0 0 0 0 0 0 0 0 0 0 0 0 0 0 0 0 0 0 0 0
0.389291 2.1482e-10 5.84802e-11 1.5634e-10 0.727771 0.472599 0 0 0 0 0 0 0 0 0 0 0 0 0 0 0 0 0 0 0 0 0 0 0 0 0 0 0 0 0 0 0 0 0 0 0 0 0 0 0 0 0 0
0.409273 1.89264e-10 5.36954e-11 1.35568e-10 0.716293 0.421207 0 0 0 0 0 0 0 0 0 0 0 0 0 0 0 0 0 0 0 0 0 0 0 0 0 0 0 0 0 0 0 0 0 0 0 0 0 0 0 0 0 0
0.430281 1.66767e-10 4.95416e-11 1.17226e-10 0.702929 0.372096 0 0 0 0 0 0 0 0 0 0 0 0 0 0 0 0 0 0 0 0 0 0 0 0 0 0 0 0 0 0 0 0 0 0 0 0 0 0 0 0 0 0
0.452368 1.46745e-10 4.58745e-11 1.0087e-10 0.687385 0.328095 0 0 0 0 0 0 0 0 0 0 0 0 0 0 0 0 0 0 0 0 0 0 0 0 0 0 0 0 0 0 0 0 0 0 0 0 0 0 0 0 0 0
0.475588 1.28832e-10 4.25729e-11 8.62595e-11 0.669548 0.289653 0 0 0 0 0 0 0 0 0 0 0 0 0 0 0 0 0 0 0 0 0 0 0 0 0 0 0 0 0 0 0 0 0 0 0 0 0 0 0 0 0 0
0.5 1.12856e-10 3.95621e-11 7.32937e-11 0.649445 0.256472 0 0 0 0 0 0 0 0 0 0 0 0 0 0 0 0 0 0 0 0 0 0 0 0 0 0 0 0 0 0 0 0 0 0 0 0 0 0 0 0 0 0
0.525665 9.86991e-11 3.67884e-11 6.19108e-11 0.627268 0.227899 0 0 0 0 0 0 0 0 0 0 0 0 0 0 0 0 0 0 0 0 0 0 0 0 0 0 0 0 0 0 0 0 0 0 0 0 0 0 0 0 0 0
0.552648 8.62301e-11 3.42165e-11 5.20135e-11 0.603195 0.203238 0 0 0 0 0 0 0 0 0 0 0 0 0 0 0 0 0 0 0 0 0 0 0 0 0 0 0 0 0 0 0 0 0 0 0 0 0 0 0 0 0 0
0.581015 7.5283e-11 3.18321e-11 4.34509e-11 0.577167 0.181843 0 0 0 0 0 0 0 0 0 0 0 0 0 0 0 0 0 0 0 0 0 0 0 0 0 0 0 0 0 0 0 0 0 0 0 0 0 0 0 0 0 0
0.610839 6.57682e-11 2.96219e-11 3.61463e-11 0.549601 0.163099 0 0 0 0 0 0 0 0 0 0 0 0 0 0 0 0 0 0 0 0 0 0 0 0 0 0 0 0 0 0 0 0 0 0 0 0 0 0 0 0 0 0
0.642193 5.75413e-11 2.7562e-11 2.99793e-11 0.521005 0.146582 0 0 0 0 0 0 0 0 0 0 0 0 0 0 0 0 0 0 0 0 0 0 0 0 0 0 0 0 0 0 0 0 0 0 0 0 0 0 0 0 0 0
0.675157 5.04524e-11 2.56633e-11 2.47891e-11 0.491337 0.132003 0 0 0 0 0 0 0 0 0 0 0 0 0 0 0 0 0 0 0 0 0 0 0 0 0 0 0 0 0 0 0 0 0 0 0 0 0 0 0 0 0 0
0.709813 4.43608e-11 2.39157e-11 2.04451e-11 0.460881 0.119038 0 0 0 0 0 0 0 0 0 0 0 0 0 0 0 0 0 0 0 0 0 0 0 0 0 0 0 0 0 0 0 0 0 0 0 0 0 0 0 0 0 0
0.746248 3.91411e-11 2.23083e-11 1.68329e-11 0.430056 0.107454 0 0 0 0 0 0 0 0 0 0 0 0 0 0 0 0 0 0 0 0 0 0 0 0 0 0 0 0 0 0 0 0 0 0 0 0 0 0 0 0 0 0
0.784553 3.46601e-11 2.0826e-11 1.38341e-11 0.399136 0.0970697 0 0 0 0 0 0 0 0 0 0 0 0 0 0 0 0 0 0 0 0 0 0 0 0 0 0 0 0 0 0 0 0 0 0 0 0 0 0 0 0 0 0
0.824824 3.08193e-11 1.94614e-11 1.13579e-11 0.368531 0.087767 0 0 0 0 0 0 0 0 0 0 0 0 0 0 0 0 0 0 0 0 0 0 0 0 0 0 0 0 0 0 0 0 0 0 0 0 0 0 0 0 0 0
0.867162 2.7516e-11 1.82005e-11 9.3155e-12 0.338548 0.0793981 0 0 0 0 0 0 0 0 0 0 0 0 0 0 0 0 0 0 0 0 0 0 0 0 0 0 0 0 0 0 0 0 0 0 0 0 0 0 0 0 0 0
0.911674 2.46821e-11 1.70509e-11 7.63125e-12 0.309181 0.0718488 0 0 0 0 0 0 0 0 0 0 0 0 0 0 0 0 0 0 0 0 0 0 0 0 0 0 0 0 0 0 0 0 0 0 0 0 0 0 0 0 0 0
0.95847 2.22412e-11 1.59982e-11 6.24299e-12 0.280695 0.0650323 0 0 0 0 0 0 0 0 0 0 0 0 0 0 0 0 0 0 0 0 0 0 0 0 0 0 0 0 0 0 0 0 0 0 0 0 0 0 0 0 0 0
1.00767 2.01174e-11 1.50255e-11 5.09196e-12 0.253112 0.0588788 0 0 0 0 0 0 0 0 0 0 0 0 0 0 0 0 0 0 0 0 0 0 0 0 0 0 0 0 0 0 0 0 0 0 0 0 0 0 0 0 0 0
1.05939 1.85947e-11 1.44423e-11 4.15245e-12 0.223314 0.0533168 0 0 0 0 0 0 0 0 0 0 0 0 0 0 0 0 0 0 0 0 0 0 0 0 0 0 0 0 0 0 0 0 0 0 0 0 0 0 0 0 0 0
1.11377 1.73409e-11 1.39497e-11 3.39118e-12 0.195559 0.0482805 0 0 0 0 0 0 0 0 0 0 0 0 0 0 0 0 0 0 0 0 0 0 0 0 0 0 0 0 0 0 0 0 0 0 0 0 0 0 0 0 0 0
1.17094 1.63144e-11 1.35393e-11 2.77515e-12 0.170104 0.0437184 0 0 0 0 0 0 0 0 0 0 0 0 0 0 0 0 0 0 0 0 0 0 0 0 0 0 0 0 0 0 0 0 0 0 0 0 0 0 0 0 0 0
1.23105 1.54455e-11 1.31755e-11 2.27002e-12 0.14697 0.0395886 0 0 0 0 0 0 0 0 0 0 0 0 0 0 0 0 0 0 0 0 0 0 0 0 0 0 0 0 0 0 0 0 0 0 0 0 0 0 0 0 0 0
1.29424 1.46673e-11 1.28095e-11 1.85782e-12 0.126664 0.0358501 0 0 0 0 0 0 0 0 0 0 0 0 0 0 0 0 0 0 0 0 0 0 0 0 0 0 0 0 0 0 0 0 0 0 0 0 0 0 0 0 0 0
1.36067 1.39589e-11 1.24316e-11 1.52729e-12 0.109413 0.0324665 0 0 0 0 0 0 0 0 0 0 0 0 0 0 0 0 0 0 0 0 0 0 0 0 0 0 0 0 0 0 0 0 0 0 0 0 0 0 0 0 0 0
1.43051 1.32822e-11 1.20409e-11 1.24132e-12 0.0934573 0.029395 0 0 0 0 0 0 0 0 0 0 0 0 0 0 0 0 0 0 0 0 0 0 0 0 0 0 0 0 0 0 0 0 0 0 0 0 0 0 0 0 0 0
1.50394 1.26722e-11 1.16584e-11 1.0138e-12 0.080002 0.0266142 0 0 0 0 0 0 0 0 0 0 0 0 0 0 0 0 0 0 0 0 0 0 0 0 0 0 0 0 0 0 0 0 0 0 0 0 0 0 0 0 0 0
1.58114 1.21273e-11 1.12984e-11 8.28928e-13 0.0683523 0.0240986 0 0 0 0 0 0 0 0 0 0 0 0 0 0 0 0 0 0 0 0 0 0 0 0 0 0 0 0 0 0 0 0 0 0 0 0 0 0 0 0 0 0
1.6623 1.16506e-11 1.09729e-11 6.77733e-13 0.0581714 0.0218157 0 0 0 0 0 0 0 0 0 0 0 0 0 0 0 0 0 0 0 0 0 0 0 0 0 0 0 0 0 0 0 0 0 0 0 0 0 0 0 0 0 0
1.74763 1.12497e-11 1.06957e-11 5.54061e-13 0.0492511 0.0197467 0 0 0 0 0 0 0 0 0 0 0 0 0 0 0 0 0 0 0 0 0 0 0 0 0 0 0 0 0 0 0 0 0 0 0 0 0 0 0 0 0 0
1.83733 1.09331e-11 1.04804e-11 4.52784e-13 0.0414139 0.0178708 0 0 0 0 0 0 0 0 0 0 0 0 0 0 0 0 0 0 0 0 0 0 0 0 0 0 0 0 0 0 0 0 0 0 0 0 0 0 0 0 0 0
1.93164 1.07026e-11 1.03327e-11 3.69897e-13 0.0345613 0.0161744 0 0 0 0 0 0 0 0 0 0 0 0 0 0 0 0 0 0 0 0 0 0 0 0 0 0 0 0 0 0 0 0 0 0 0 0 0 0 0 0 0 0
2.03079 1.05542e-11 1.02519e-11 3.02364e-13 0.0286487 0.014638 0 0 0 0 0 0 0 0 0 0 0 0 0 0 0 0 0 0 0 0 0 0 0 0 0 0 0 0 0 0 0 0 0 0 0 0 0 0 0 0 0 0
2.13503 1.0469e-11 1.02216e-11 2.47413e-13 0.0236329 0.0132444 0 0 0 0 0 0 0 0 0 0 0 0 0 0 0 0 0 0 0 0 0 0 0 0 0 0 0 0 0 0 0 0 0 0 0 0 0 0 0 0 0 0
2.24463 1.04099e-11 1.02072e-11 2.02642e-13 0.0194663 0.0119811 0 0 0 0 0 0 0 0 0 0 0 0 0 0 0 0 0 0 0 0 0 0 0 0 0 0 0 0 0 0 0 0 0 0 0 0 0 0 0 0 0 0
2.35984 1.03645e-11 1.01984e-11 1.66075e-13 0.0160234 0.0108388 0 0 0 0 0 0 0 0 0 0 0 0 0 0 0 0 0 0 0 0 0 0 0 0 0 0 0 0 0 0 0 0 0 0 0 0 0 0 0 0 0 0
2.48097 1.03447e-11 1.02085e-11 1.36163e-13 0.0131626 0.00980316 0 0 0 0 0 0 0 0 0 0 0 0 0 0 0 0 0 0 0 0 0 0 0 0 0 0 0 0 0 0 0 0 0 0 0 0 0 0 0 0 0 0
2.60832 1.03504e-11 1.02387e-11 1.11703e-13 0.0107921 0.00886502 0 0 0 0 0 0 0 0 0 0 0 0 0 0 0 0 0 0 0 0 0 0 0 0 0 0 0 0 0 0 0 0 0 0 0 0 0 0 0 0 0 0
2.74221 1.03942e-11 1.03025e-11 9.17206e-14 0.0088242 0.00801561 0 0 0 0 0 0 0 0 0 0 0 0 0 0 0 0 0 0 0 0 0 0 0 0 0 0 0 0 0 0 0 0 0 0 0 0 0 0 0 0 0 0
2.88297 1.04755e-11 1.04e-11 7.54373e-14 0.00720133 0.00724591 0 0 0 0 0 0 0 0 0 0 0 0 0 0 0 0 0 0 0 0 0 0 0 0 0 0 0 0 0 0 0 0 0 0 0 0 0 0 0 0 0 0
3.03095 1.05918e-11 1.05295e-11 6.22878e-14 0.00588075 0.00654948 0 0 0 0 0 0 0 0 0 0 0 0 0 0 0 0 0 0 0 0 0 0 0 0 0 0 0 0 0 0 0 0 0 0 0 0 0 0 0 0 0 0
3.18653 1.06138e-11 1.05622e-11 5.15545e-14 0.00485731 0.00591867 0 0 0 0 0 0 0 0 0 0 0 0 0 0 0 0 0 0 0 0 0 0 0 0 0 0 0 0 0 0 0 0 0 0 0 0 0 0 0 0 0 0
3.35009 1.08539e-11 1.08118e-11 4.21385e-14 0.00388233 0.005347 0 0 0 0 0 0 0 0 0 0 0 0 0 0 0 0 0 0 0 0 0 0 0 0 0 0 0 0 0 0 0 0 0 0 0 0 0 0 0 0 0 0
3.52205 1.08e-11 1.07634e-11 3.66701e-14 0.00339537 0.0048293 0 0 0 0 0 0 0 0 0 0 0 0 0 0 0 0 0 0 0 0 0 0 0 0 0 0 0 0 0 0 0 0 0 0 0 0 0 0 0 0 0 0
3.70284 1.00633e-11 1.00335e-11 2.98251e-14 0.00296375 0.0043609 0 0 0 0 0 0 0 0 0 0 0 0 0 0 0 0 0 0 0 0 0 0 0 0 0 0 0 0 0 0 0 0 0 0 0 0 0 0 0 0 0 0
3.89291 9.84183e-12 9.8174e-12 2.44346e-14 0.00248273 0.00393625 0 0 0 0 0 0 0 0 0 0 0 0 0 0 0 0 0 0 0 0 0 0 0 0 0 0 0 0 0 0 0 0 0 0 0 0 0 0 0 0 0 0
4.09273 9.66667e-12 9.64663e-12 2.00317e-14 0.00207225 0.00355101 0 0 0 0 0 0 0 0 0 0 0 0 0 0 0 0 0 0 0 0 0 0 0 0 0 0 0 0 0 0 0 0 0 0 0 0 0 0 0 0 0 0
4.30281 9.53781e-12 9.52138e-12 1.64301e-14 0.00172263 0.00320184 0 0 0 0 0 0 0 0 0 0 0 0 0 0 0 0 0 0 0 0 0 0 0 0 0 0 0 0 0 0 0 0 0 0 0 0 0 0 0 0 0 0
4.52368 9.45862e-12 9.44513e-12 1.34905e-14 0.00142626 0.00288575 0 0 0 0 0 0 0 0 0 0 0 0 0 0 0 0 0 0 0 0 0 0 0 0 0 0 0 0 0 0 0 0 0 0 0 0 0 0 0 0 0 0
4.75588 9.41612e-12 9.40503e-12 1.10947e-14 0.00117827 0.00259892 0 0 0 0 0 0 0 0 0 0 0 0 0 0 0 0 0 0 0 0 0 0 0 0 0 0 0 0 0 0 0 0 0 0 0 0 0 0 0 0 0 0
5 9.38399e-12 9.37485e-12 9.14393e-15 0.000974419 0.00233806 0 0 0 0 0 0 0 0 0 0 0 0 0 0 0 0 0 0 0 0 0 0 0 0 0 0 0 0 0 0 0 0 0 0 0 0 0 0 0 0 0 0
5.25665 9.3392e-12 9.33166e-12 7.54423e-15 0.000807803 0.00210096 0 0 0 0 0 0 0 0 0 0 0 0 0 0 0 0 0 0 0 0 0 0 0 0 0 0 0 0 0 0 0 0 0 0 0 0 0 0 0 0 0 0
5.52648 9.28283e-12 9.27661e-12 6.22421e-15 0.000670508 0.0018863 0 0 0 0 0 0 0 0 0 0 0 0 0 0 0 0 0 0 0 0 0 0 0 0 0 0 0 0 0 0 0 0 0 0 0 0 0 0 0 0 0 0
5.81015 9.20827e-12 9.20314e-12 5.12943e-15 0.000557046 0.00169062 0 0 0 0 0 0 0 0 0 0 0 0 0 0 0 0 0 0 0 0 0 0 0 0 0 0 0 0 0 0 0 0 0 0 0 0 0 0 0 0 1.4013e-45 0
6.10839 9.12569e-12 9.12147e-12 4.21848e-15 0.000462264 0.00151273 0 0 0 0 0 0 0 0 0 0 0 0 0 0 0 0 0 0 0 0 0 0 0 0 0 0 0 0 0 0 1.4013e-45 0 4.2039e-45 0 9.80909e-45 0 2.66247e-44 0 6.5861e-44 0 1.5134e-43 0
6.42193 9.03256e-12 9.0291e-12 3.45669e-15 0.000382692 0.00135042 0 0 0 0 0 0 0 0 0 0 0 0 0 0 0 0 0 0 0 0 0 0 1.4013e-45 0 2.8026e-45 0 1.4013e-44 0 4.62428e-44 0 1.42932e-43 0 4.21791e-43 0 1.10422e-42 0 2.77177e-42 0 6.53005e-42 0 1.44838e-41 0
6.75157 8.96441e-12 8.9616e-12 2.81021e-15 0.000313485 0.00120081 0 0 0 0 0 0 0 0 0 0 0 0 0 0 0 0 0 0 2.8026e-45 0 1.96182e-44 0 9.3887e-44 0 3.9937e-43 0 1.43913e-42 0 4.65792e-42 0 1.36529e-41 0 3.81742e-41 0 9.53486e-41 0 2.28793e-40 0 5.16943e-40 0 1.10286e-39 0
7.09813 8.81592e-12 8.81364e-12 2.28333e-15 0.000259 0.00105992 0 0 0 0 0 0 0 0 0 0 0 0 0 0 5.60519e-45 0 5.32493e-44 0 3.6714e-43 0 2.01507e-42 0 8.97532e-42 0 3.55061e-41 0 1.20003e-40 0 3.66797e-40 0 1.02018e-39 0 2.71285e-39 0 6.47982e-39 0 1.48981e-38 0 3.2348e-38 0 6.65055e-38 0
7.46248 8.69499e-12 8.69318e-12 1.8094e-15 0.000208097 0.000922791 0 0 0 0 0 0 0 0 0 0 2.8026e-45 0 4.90454e-44 0 6.1517e-43 0 5.1764e-42 0 3.24387e-41 0 1.6367e-40 0 6.77662e-40 0 2.50659e-39 0 7.98285e-39 0 2.31046e-38 0 6.11308e-38 0 1.54979e-37 0 3.5477e-37 0 7.83182e-37 0 1.63734e-36 0 3.24987e-36 0
7.84553 8.56919e-12 8.56782e-12 1.36937e-15 0.000159801 0.000791982 0 0 0 0 0 0 0 0 7.00649e-45 0 2.53635e-43 0 4.76582e-42 0 5.22474e-41 0 3.96052e-40 0 2.269e-39 0 1.05786e-38 0 4.08644e-38 0 1.41801e-37 0 4.26767e-37 0 1.17273e-36 0 2.95889e-36 0 7.16828e-36 0 1.5759e-35 0 3.34698e-35 0 6.74981e-35 0 1.29564e-34 0
8.24824 9.54625e-12 9.54524e-12 1.00721e-15 0.000105509 0.00068082 0 0 0 0 0 0 7.00649e-45 0 7.53899e-43 0 2.51197e-41 0 4.08532e-40 0 3.98425e-39 0 2.73578e-38 0 1.4393e-37 0 6.22442e-37 0 2.25093e-36 0 7.35046e-36 0 2.09635e-35 0 5.48324e-35 0 1.32234e-34 0 3.06808e-34 0 6.49049e-34 0 1.32871e-33 0 2.58938e-33 0 4.8146e-33 0
8.67162 1.15898e-11 1.15889e-11 8.73241e-16 7.53455e-05 0.000592532 0 0 0 0 1.4013e-45 0 8.46384e-43 0 7.64731e-41 0 2.14853e-39 0 3.04945e-38 0 2.66103e-37 0 1.66315e-36 0 8.06855e-36 0 3.24858e-35 0 1.10332e-34 0 3.40063e-34 0 9.21481e-34 0 2.2997e-33 0 5.31266e-33 0 1.18301e-32 0 2.41275e-32 0 4.76951e-32 0 8.99686e-32 0 1.62295e-31 0
9.11674 1.59047e-11 1.59036e-11 1.03871e-15 6.53085e-05 0.000505516 0 0 0 0 1.5134e-43 0 9.62272e-41 0 6.9828e-39 0 1.66701e-37 0 2.07859e-36 0 1.63178e-35 0 9.32577e-35 0 4.18854e-34 0 1.57553e-33 0 5.0409e-33 0 1.47062e-32 0 3.79568e-32 0 9.05905e-32 0 2.00895e-31 0 4.30201e-31 0 8.47387e-31 0 1.62029e-30 0 2.96315e-30 0 5.19347e-30 0
9.5847 1.93926e-11 1.93912e-11 1.44125e-15 7.43194e-05 0.000452268 0 0 0 0 1.67301e-41 0 7.74486e-39 0 4.55929e-37 0 9.32245e-36 0 1.02768e-34 0 7.29557e-34 0 3.82932e-33 0 1.59826e-32 0 5.63535e-32 0 1.70349e-31 0 4.71661e-31 0 1.16229e-30 0 2.65866e-30 0 5.67101e-30 0 1.17008e-29 0 2.22973e-29 0 4.13066e-29 0 7.33467e-29 0 1.25079e-28 0
10.0767 1.878e-11 1.87784e-11 1.58632e-15 8.44687e-05 0.000429347 0 0 2.10195e-44 0 1.16189e-39 0 3.9859e-37 0 1.92308e-35 0 3.39343e-34 0 3.32719e-33 0 2.14644e-32 0 1.03902e-31 0 4.0444e-31 0 1.34093e-30 0 3.84036e-30 0 1.01173e-29 0 2.38576e-29 0 5.24119e-29 0 1.07737e-28 0 2.14567e-28 0 3.96212e-28 0 7.1223e-28 0 1.22972e-27 0 2.04312e-27 0
10.5939 1.59931e-11 1.59917e-11 1.40843e-15 8.80646e-05 0.000422142 0 0 1.71239e-42 0 5.68977e-38 0 1.46781e-35 0 5.86067e-34 0 8.98925e-33 0 7.88416e-32 0 4.64373e-31 0 2.08129e-30 0 7.58133e-30 0 2.37073e-29 0 6.44965e-29 0 1.62066e-28 0 3.6649e-28 0 7.74777e-28 0 1.53756e-27 0 2.9609e-27 0 5.30619e-27 0 9.26916e-27 0 1.55828e-26 0 2.52562e-26 0
11.1377 1.33621e-11 1.33609e-11 1.18375e-15 8.85905e-05 0.000432322 1.4013e-45 0 1.1089e-40 0 2.21567e-36 0 4.3585e-34 0 1.45356e-32 0 1.95126e-31 0 1.53924e-30 0 8.31413e-30 0 3.46318e-29 0 1.18434e-28 0 3.503e-28 0 9.07554e-28 0 2.18017e-27 0 4.73761e-27 0 9.65607e-27 0 1.85321e-26 0 3.45637e-26 0 6.02017e-26 0 1.02338e-25 0 1.67737e-25 0 2.65529e-25 0
11.7094 1.07292e-11 1.07282e-11 9.25598e-16 8.62695e-05 0.000434949 1.35926e-43 0 5.51139e-39 0 6.79047e-35 0 1.03214e-32 0 2.90049e-31 0 3.42993e-30 0 2.44613e-29 0 1.21682e-28 0 4.72751e-28 0 1.52252e-27 0 4.27101e-27 0 1.05628e-26 0 2.43115e-26 0 5.08655e-26 0 1.00131e-25 0 1.86152e-25 0 3.3678e-25 0 5.70912e-25 0 9.4569e-25 0 1.51308e-24 0 2.3421e-24 0
12.3105 8.617e-12 8.61631e-12 6.89638e-16 8.00323e-05 0.000432684 9.12806e-42 0 2.21283e-37 0 1.72133e-33 0 2.04728e-31 0 4.88852e-30 0 5.12404e-29 0 3.3201e-28 0 1.52714e-27 0 5.55274e-27 0 1.68903e-26 0 4.50542e-26 0 1.06606e-25 0 2.35581e-25 0 4.75443e-25 0 9.05483e-25 0 1.63317e-24 0 2.87039e-24 0 4.74211e-24 0 7.6639e-24 0 1.19839e-23 0 1.81584e-23 0
