# 2.1135e-06 0 71 : grain size, compostion index, size index
# Heating and cooling timescale: 5.6724 3615.25
# Ratio of heating to cooling to determine stochastic cutoff: 100
# Equilibrium emission is recorded even for those grains in the stochastic regime.
# Emission spectrum was computed for: 
# Type: IRSF
# Scales: 0.25 0.5 1 1.5 2 2.5 3 3.5 4 4.5 5 5.5 6 6.5 7 7.5 8 8.5 9 9.5 10
# StochasticallyHeated: 1 1 1 1 0 0 0 0 0 0 0 0 0 0 0 0 0 0 0 0 0
# Temperature: -1
# Wavelength  CExt  CAbs  CSca  Albedo G EqEm1 StEm1 EqEm2 StEm2 EqEm3 StEm3 EqEm4 StEm4 EqEm5 StEm5 EqEm6 StEm6 EqEm7 StEm7 EqEm8 StEm8 EqEm9 StEm9 EqEm10 StEm10 EqEm11 StEm11 EqEm12 StEm12 EqEm13 StEm13 EqEm14 StEm14 EqEm15 StEm15 EqEm16 StEm16 EqEm17 StEm17 EqEm18 StEm18 EqEm19 StEm19 EqEm20 StEm20 EqEm21 StEm21
0.05 1.0473e-11 5.89019e-12 4.58276e-12 0.437581 0.00576547 0 0 0 0 0 0 0 0 0 0 0 0 0 0 0 0 0 0 0 0 0 0 0 0 0 0 0 0 0 0 0 0 0 0 0 0 0 0 0 0 0 0
0.0525665 1.15757e-11 6.5104e-12 5.0653e-12 0.437581 0.00637255 0 0 0 0 0 0 0 0 0 0 0 0 0 0 0 0 0 0 0 0 0 0 0 0 0 0 0 0 0 0 0 0 0 0 0 0 0 0 0 0 0 0
0.0552647 1.27946e-11 7.19591e-12 5.59866e-12 0.437581 0.00704355 0 0 0 0 0 0 0 0 0 0 0 0 0 0 0 0 0 0 0 0 0 0 0 0 0 0 0 0 0 0 0 0 0 0 0 0 0 0 0 0 0 0
0.0581015 1.41418e-11 7.95361e-12 6.18817e-12 0.437581 0.0077852 0 0 0 0 0 0 0 0 0 0 0 0 0 0 0 0 0 0 0 0 0 0 0 0 0 0 0 0 0 0 0 0 0 0 0 0 0 0 0 0 0 0
0.0610839 1.56308e-11 8.79109e-12 6.83975e-12 0.437581 0.00860494 0 0 0 0 0 0 0 0 0 0 0 0 0 0 0 0 0 0 0 0 0 0 0 0 0 0 0 0 0 0 0 0 0 0 0 0 0 0 0 0 0 0
0.0642193 1.72767e-11 9.71674e-12 7.55994e-12 0.437581 0.009511 0 0 0 0 0 0 0 0 0 0 0 0 0 0 0 0 0 0 0 0 0 0 0 0 0 0 0 0 0 0 0 0 0 0 0 0 0 0 0 0 0 0
0.0675157 1.90958e-11 1.07399e-11 8.35597e-12 0.437581 0.0105125 0 0 0 0 0 0 0 0 0 0 0 0 0 0 0 0 0 0 0 0 0 0 0 0 0 0 0 0 0 0 0 0 0 0 0 0 0 0 0 0 0 0
0.0709813 2.11065e-11 1.18707e-11 9.23581e-12 0.437581 0.0116194 0 0 0 0 0 0 0 0 0 0 0 0 0 0 0 0 0 0 0 0 0 0 0 0 0 0 0 0 0 0 0 0 0 0 0 0 0 0 0 0 0 0
0.0746248 2.33289e-11 1.31207e-11 1.02083e-11 0.437581 0.0128428 0 0 0 0 0 0 0 0 0 0 0 0 0 0 0 0 0 0 0 0 0 0 0 0 0 0 0 0 0 0 0 0 0 0 0 0 0 0 0 0 0 0
0.0784553 2.57854e-11 1.45022e-11 1.12832e-11 0.437581 0.0141951 0 0 0 0 0 0 0 0 0 0 0 0 0 0 0 0 0 0 0 0 0 0 0 0 0 0 0 0 0 0 0 0 0 0 0 0 0 0 0 0 0 0
0.0824824 2.85004e-11 1.60292e-11 1.24712e-11 0.437581 0.0156898 0 0 0 0 0 0 0 0 0 0 0 0 0 0 0 0 0 0 0 0 0 0 0 0 0 0 0 0 0 0 0 0 0 0 0 0 0 0 0 0 0 0
0.0867162 3.15014e-11 1.7717e-11 1.37844e-11 0.437581 0.0173419 0 0 0 0 0 0 0 0 0 0 0 0 0 0 0 0 0 0 0 0 0 0 0 0 0 0 0 0 0 0 0 0 0 0 0 0 0 0 0 0 0 0
0.0911674 3.48184e-11 1.95825e-11 1.52358e-11 0.437581 0.0191679 0 0 0 0 0 0 0 0 0 0 0 0 0 0 0 0 0 0 0 0 0 0 0 0 0 0 0 0 0 0 0 0 0 0 0 0 0 0 0 0 0 0
0.095847 3.84846e-11 2.16445e-11 1.68401e-11 0.437581 0.0211862 0 0 0 0 0 0 0 0 0 0 0 0 0 0 0 0 0 0 0 0 0 0 0 0 0 0 0 0 0 0 0 0 0 0 0 0 0 0 0 0 0 0
0.100767 4.18779e-11 2.35874e-11 1.82905e-11 0.436759 0.0235692 0 0 0 0 0 0 0 0 0 0 0 0 0 0 0 0 0 0 0 0 0 0 0 0 0 0 0 0 0 0 0 0 0 0 0 0 0 0 0 0 0 0
0.105939 4.09187e-11 2.36332e-11 1.72856e-11 0.422437 0.0256046 0 0 0 0 0 0 0 0 0 0 0 0 0 0 0 0 0 0 0 0 0 0 0 0 0 0 0 0 0 0 0 0 0 0 0 0 0 0 0 0 0 0
0.111377 4.11142e-11 2.36138e-11 1.75004e-11 0.425654 0.0289403 0 0 0 0 0 0 0 0 0 0 0 0 0 0 0 0 0 0 0 0 0 0 0 0 0 0 0 0 0 0 0 0 0 0 0 0 0 0 0 0 0 0
0.117094 3.8454e-11 2.13265e-11 1.71275e-11 0.445402 0.0274507 0 0 0 0 0 0 0 0 0 0 0 0 0 0 0 0 0 0 0 0 0 0 0 0 0 0 0 0 0 0 0 0 0 0 0 0 0 0 0 0 0 0
0.123105 2.76929e-11 1.51852e-11 1.25078e-11 0.451659 0.0236555 0 0 0 0 0 0 0 0 0 0 0 0 0 0 0 0 0 0 0 0 0 0 0 0 0 0 0 0 0 0 0 0 0 0 0 0 0 0 0 0 0 0
0.129424 1.93401e-11 1.10951e-11 8.24496e-12 0.426315 0.0199126 0 0 0 0 0 0 0 0 0 0 0 0 0 0 0 0 0 0 0 0 0 0 0 0 0 0 0 0 0 0 0 0 0 0 0 0 0 0 0 0 0 0
0.136067 1.4536e-11 9.19461e-12 5.34134e-12 0.367457 0.0168557 0 0 0 0 0 0 0 0 0 0 0 0 0 0 0 0 0 0 0 0 0 0 0 0 0 0 0 0 0 0 0 0 0 0 0 0 0 0 0 0 0 0
0.143051 1.1826e-11 8.40235e-12 3.42363e-12 0.2895 0.0143876 0 0 0 0 0 0 0 0 0 0 0 0 0 0 0 0 0 0 0 0 0 0 0 0 0 0 0 0 0 0 0 0 0 0 0 0 0 0 0 0 0 0
0.150394 1.04663e-11 8.28439e-12 2.1819e-12 0.208469 0.0122986 0 0 0 0 0 0 0 0 0 0 0 0 0 0 0 0 0 0 0 0 0 0 0 0 0 0 0 0 0 0 0 0 0 0 0 0 0 0 0 0 0 0
0.158114 1.01441e-11 8.72064e-12 1.42348e-12 0.140326 0.01055 0 0 0 0 0 0 0 0 0 0 0 0 0 0 0 0 0 0 0 0 0 0 0 0 0 0 0 0 0 0 0 0 0 0 0 0 0 0 0 0 0 0
0.16623 1.07186e-11 9.68404e-12 1.0346e-12 0.0965233 0.00908216 0 0 0 0 0 0 0 0 0 0 0 0 0 0 0 0 0 0 0 0 0 0 0 0 0 0 0 0 0 0 0 0 0 0 0 0 0 0 0 0 0 0
0.174762 1.1987e-11 1.10728e-11 9.14173e-13 0.0762637 0.00782097 0 0 0 0 0 0 0 0 0 0 0 0 0 0 0 0 0 0 0 0 0 0 0 0 0 0 0 0 0 0 0 0 0 0 0 0 0 0 0 0 0 0
0.183733 1.40589e-11 1.30455e-11 1.01339e-12 0.0720814 0.00667218 0 0 0 0 0 0 0 0 0 0 0 0 0 0 0 0 0 0 0 0 0 0 0 0 0 0 0 0 0 0 0 0 0 0 0 0 0 0 0 0 0 0
0.193164 1.76023e-11 1.61728e-11 1.42945e-12 0.0812081 0.00556038 0 0 0 0 0 0 0 0 0 0 0 0 0 0 0 0 0 0 0 0 0 0 0 0 0 0 0 0 0 0 0 0 0 0 0 0 0 0 0 0 0 0
0.203079 2.29674e-11 2.07054e-11 2.262e-12 0.0984875 0.00446034 0 0 0 0 0 0 0 0 0 0 0 0 0 0 0 0 0 0 0 0 0 0 0 0 0 0 0 0 0 0 0 0 0 0 0 0 0 0 0 0 0 0
0.213503 2.92815e-11 2.58275e-11 3.45405e-12 0.11796 0.00342932 0 0 0 0 0 0 0 0 0 0 0 0 0 0 0 0 0 0 0 0 0 0 0 0 0 0 0 0 0 0 0 0 0 0 0 0 0 0 0 0 0 0
0.224463 3.31653e-11 2.868e-11 4.48534e-12 0.135242 0.00254317 0 0 0 0 0 0 0 0 0 0 0 0 0 0 0 0 0 0 0 0 0 0 0 0 0 0 0 0 0 0 0 0 0 0 0 0 0 0 0 0 0 0
0.235984 3.13796e-11 2.67619e-11 4.61762e-12 0.147154 0.00182186 0 0 0 0 0 0 0 0 0 0 0 0 0 0 0 0 0 0 0 0 0 0 0 0 0 0 0 0 0 0 0 0 0 0 0 0 0 0 0 0 0 0
0.248097 2.56012e-11 2.16912e-11 3.90996e-12 0.152726 0.00138916 0 0 0 0 0 0 0 0 0 0 0 0 0 0 0 0 0 0 0 0 0 0 0 0 0 0 0 0 0 0 0 0 0 0 0 0 0 0 0 0 0 0
0.260832 1.9409e-11 1.64645e-11 2.9445e-12 0.151708 0.00141961 0 0 0 0 0 0 0 0 0 0 0 0 0 0 0 0 0 0 0 0 0 0 0 0 0 0 0 0 0 0 0 0 0 0 0 0 0 0 0 0 0 0
0.274221 1.45891e-11 1.24862e-11 2.10291e-12 0.144142 0.00187131 0 0 0 0 0 0 0 0 0 0 0 0 0 0 0 0 0 0 0 0 0 0 0 0 0 0 0 0 0 0 0 0 0 0 0 0 0 0 0 0 0 0
0.288297 1.11692e-11 9.68881e-12 1.4804e-12 0.132543 0.00251556 0 0 0 0 0 0 0 0 0 0 0 0 0 0 0 0 0 0 0 0 0 0 0 0 0 0 0 0 0 0 0 0 0 0 0 0 0 0 0 0 0 0
0.303095 8.77809e-12 7.72633e-12 1.05176e-12 0.119817 0.0028362 0 0 0 0 0 0 0 0 0 0 0 0 0 0 0 0 0 0 0 0 0 0 0 0 0 0 0 0 0 0 0 0 0 0 0 0 0 0 0 0 0 0
0.318653 7.21656e-12 6.45242e-12 7.64141e-13 0.105887 0.00297223 0 0 0 0 0 0 0 0 0 0 0 0 0 0 0 0 0 0 0 0 0 0 0 0 0 0 0 0 0 0 0 0 0 0 0 0 0 0 0 0 0 0
0.335009 6.27232e-12 5.70087e-12 5.71448e-13 0.0911063 0.00293231 0 0 0 0 0 0 0 0 0 0 0 0 0 0 0 0 0 0 0 0 0 0 0 0 0 0 0 0 0 0 0 0 0 0 0 0 0 0 0 0 0 0
0.352205 5.69928e-12 5.25914e-12 4.40137e-13 0.0772267 0.00278811 0 0 0 0 0 0 0 0 0 0 0 0 0 0 0 0 0 0 0 0 0 0 0 0 0 0 0 0 0 0 0 0 0 0 0 0 0 0 0 0 0 0
0.370284 5.31513e-12 4.96714e-12 3.47995e-13 0.0654724 0.00261033 0 0 0 0 0 0 0 0 0 0 0 0 0 0 0 0 0 0 0 0 0 0 0 0 0 0 0 0 0 0 0 0 0 0 0 0 0 0 0 0 0 0
0.389291 5.00552e-12 4.7248e-12 2.80715e-13 0.0560811 0.00243645 0 0 0 0 0 0 0 0 0 0 0 0 0 0 0 0 0 0 0 0 0 0 0 0 0 0 0 0 0 0 0 0 0 0 0 0 0 0 0 0 0 0
0.409273 4.70949e-12 4.48025e-12 2.2924e-13 0.0486763 0.00226652 0 0 0 0 0 0 0 0 0 0 0 0 0 0 0 0 0 0 0 0 0 0 0 0 0 0 0 0 0 0 0 0 0 0 0 0 0 0 0 0 0 0
0.430281 4.40641e-12 4.21814e-12 1.88272e-13 0.0427269 0.00210471 0 0 0 0 0 0 0 0 0 0 0 0 0 0 0 0 0 0 0 0 0 0 0 0 0 0 0 0 0 0 0 0 0 0 0 0 0 0 0 0 0 0
0.452368 4.09923e-12 3.9444e-12 1.54827e-13 0.0377697 0.00193723 0 0 0 0 0 0 0 0 0 0 0 0 0 0 0 0 0 0 0 0 0 0 0 0 0 0 0 0 0 0 0 0 0 0 0 0 0 0 0 0 0 0
0.475588 3.80042e-12 3.67321e-12 1.27215e-13 0.0334739 0.00177642 0 0 0 0 0 0 0 0 0 0 0 0 0 0 0 0 0 0 0 0 0 0 0 0 0 0 0 0 0 0 0 0 0 0 0 0 0 0 0 0 0 0
0.5 3.52135e-12 3.41694e-12 1.04411e-13 0.0296508 0.00162159 0 0 0 0 0 0 0 0 0 0 0 0 0 0 0 0 0 0 0 0 0 0 0 0 0 0 0 0 0 0 0 0 0 0 0 0 0 0 0 0 0 0
0.525665 3.26924e-12 3.1836e-12 8.5641e-14 0.026196 0.0014751 0 0 0 0 0 0 0 0 0 0 0 0 0 0 0 0 0 0 0 0 0 0 0 0 0 0 0 0 0 0 0 0 0 0 0 0 0 0 0 0 0 0
0.552648 3.04609e-12 2.97582e-12 7.02673e-14 0.023068 0.00134175 0 0 0 0 0 0 0 0 0 0 0 0 0 0 0 0 0 0 0 0 0 0 0 0 0 0 0 0 0 0 0 0 0 0 0 0 0 0 0 0 0 0
0.581015 2.85067e-12 2.79295e-12 5.772e-14 0.0202478 0.00121775 0 0 0 0 0 0 0 0 0 0 0 0 0 0 0 0 0 0 0 0 0 0 0 0 0 0 0 0 0 0 0 0 0 0 0 0 0 0 0 0 0 0
0.610839 2.67937e-12 2.63188e-12 4.74946e-14 0.017726 0.00110516 0 0 0 0 0 0 0 0 0 0 0 0 0 0 0 0 0 0 0 0 0 0 0 0 0 0 0 0 0 0 0 0 0 0 0 0 0 0 0 0 0 0
0.642193 2.52816e-12 2.48899e-12 3.91678e-14 0.0154926 0.00100302 0 0 0 0 0 0 0 0 0 0 0 0 0 0 0 0 0 0 0 0 0 0 0 0 0 0 0 0 0 0 0 0 0 0 0 0 0 0 0 0 0 0
0.675157 2.39237e-12 2.35999e-12 3.23775e-14 0.0135337 0.000910957 0 0 0 0 0 0 0 0 0 0 0 0 0 0 0 0 0 0 0 0 0 0 0 0 0 0 0 0 0 0 0 0 0 0 0 0 0 0 0 0 0 0
0.709813 2.26805e-12 2.24123e-12 2.68277e-14 0.0118285 0.00082817 0 0 0 0 0 0 0 0 0 0 0 0 0 0 0 0 0 0 0 0 0 0 0 0 0 0 0 0 0 0 0 0 0 0 0 0 0 0 0 0 0 0
0.746248 2.15199e-12 2.12972e-12 2.22756e-14 0.0103512 0.000754183 0 0 0 0 0 0 0 0 0 0 0 0 0 0 0 0 0 0 0 0 0 0 0 0 0 0 0 0 0 0 0 0 0 0 0 0 0 0 0 0 0 0
0.784553 2.04135e-12 2.02282e-12 1.8528e-14 0.00907635 0.000686995 0 0 0 0 0 0 0 0 0 0 0 0 0 0 0 0 0 0 0 0 0 0 0 0 0 0 0 0 0 0 0 0 0 0 0 0 0 0 0 0 0 0
0.824824 1.93445e-12 1.91902e-12 1.54332e-14 0.00797804 0.000626788 0 0 0 0 0 0 0 0 0 0 0 0 0 0 0 0 0 0 0 0 0 0 0 0 0 0 0 0 0 0 0 0 0 0 0 0 0 0 0 0 0 0
0.867162 1.83001e-12 1.81715e-12 1.28675e-14 0.00703137 0.000572518 0 0 0 0 0 0 0 0 0 0 0 0 0 0 0 0 0 0 0 0 0 0 0 0 0 0 0 0 0 0 0 0 0 0 0 0 0 0 0 0 0 0
0.911674 1.7274e-12 1.71667e-12 1.07346e-14 0.00621429 0.000523427 0 0 0 0 0 0 0 0 0 0 0 0 0 0 0 0 0 0 0 0 0 0 0 0 0 0 0 0 0 0 0 0 0 0 0 0 0 0 0 0 0 0
0.95847 1.6267e-12 1.61774e-12 8.95597e-15 0.0055056 0.00047944 0 0 0 0 0 0 0 0 0 0 0 0 0 0 0 0 0 0 0 0 0 0 0 0 0 0 0 0 0 0 0 0 0 0 0 0 0 0 0 0 0 0
1.00767 1.53e-12 1.52252e-12 7.47125e-15 0.00488318 0.0004395 0 0 0 0 0 0 0 0 0 0 0 0 0 0 0 0 0 0 0 0 0 0 0 0 0 0 0 0 0 0 0 0 0 0 0 0 0 0 0 0 0 0
1.05939 1.43944e-12 1.43321e-12 6.22984e-15 0.00432797 0.000403275 0 0 0 0 0 0 0 0 0 0 0 0 0 0 0 0 0 0 0 0 0 0 0 0 0 0 0 0 0 0 0 0 0 0 0 0 0 0 0 0 0 0
1.11377 1.33577e-12 1.33058e-12 5.18921e-15 0.00388482 0.000370298 0 0 0 0 0 0 0 0 0 0 0 0 0 0 0 0 0 0 0 0 0 0 0 0 0 0 0 0 0 0 0 0 0 0 0 0 0 0 0 0 0 0
1.17094 1.24262e-12 1.2383e-12 4.32072e-15 0.0034771 0.000339515 0 0 0 0 0 0 0 0 0 0 0 0 0 0 0 0 0 0 0 0 0 0 0 0 0 0 0 0 0 0 0 0 0 0 0 0 0 0 0 0 0 0
1.23105 1.15455e-12 1.15096e-12 3.59306e-15 0.00311208 0.000311294 0 0 0 0 0 0 0 0 0 0 0 0 0 0 0 0 0 0 0 0 0 0 0 0 0 0 0 0 0 0 0 0 0 0 0 0 0 0 0 0 0 0
1.29424 1.0691e-12 1.06611e-12 2.98537e-15 0.00279241 0.000285362 0 0 0 0 0 0 0 0 0 0 0 0 0 0 0 0 0 0 0 0 0 0 0 0 0 0 0 0 0 0 0 0 0 0 0 0 0 0 0 0 0 0
1.36067 9.86562e-13 9.84084e-13 2.47773e-15 0.00251148 0.000261742 0 0 0 0 0 0 0 0 0 0 0 0 0 0 0 0 0 0 0 0 0 0 0 0 0 0 0 0 0 0 0 0 0 0 0 0 0 0 0 0 0 0
1.43051 9.08994e-13 9.0694e-13 2.05381e-15 0.00225943 0.000240209 0 0 0 0 0 0 0 0 0 0 0 0 0 0 0 0 0 0 0 0 0 0 0 0 0 0 0 0 0 0 0 0 0 0 0 0 0 0 0 0 0 0
1.50394 8.36249e-13 8.34548e-13 1.70082e-15 0.00203386 0.000220279 0 0 0 0 0 0 0 0 0 0 0 0 0 0 0 0 0 0 0 0 0 0 0 0 0 0 0 0 0 0 0 0 0 0 0 0 0 0 0 0 0 0
1.58114 7.68126e-13 7.66719e-13 1.4073e-15 0.00183211 0.000201732 0 0 0 0 0 0 0 0 0 0 0 0 0 0 0 0 0 0 0 0 0 0 0 0 0 0 0 0 0 0 0 0 0 0 0 0 0 0 0 0 0 0
1.6623 7.04491e-13 7.03328e-13 1.1632e-15 0.00165112 0.000184534 0 0 0 0 0 0 0 0 0 0 0 0 0 0 0 0 0 0 0 0 0 0 0 0 0 0 0 0 0 0 0 0 0 0 0 0 0 0 0 0 0 0
1.74763 6.45284e-13 6.44323e-13 9.60663e-16 0.00148875 0.000169005 0 0 0 0 0 0 0 0 0 0 0 0 0 0 0 0 0 0 0 0 0 0 0 0 0 0 0 0 0 0 0 0 0 0 0 0 0 0 0 0 0 0
1.83733 5.90349e-13 5.89556e-13 7.92736e-16 0.00134283 0.000154804 0 0 0 0 0 0 0 0 0 0 0 0 0 0 0 0 0 0 0 0 0 0 0 0 0 0 0 0 0 0 0 0 0 0 0 0 0 0 0 0 0 0
1.93164 5.39527e-13 5.38874e-13 6.53611e-16 0.00121145 0.000141793 0 0 0 0 0 0 0 0 0 0 0 0 0 0 0 0 0 0 0 0 0 0 0 0 0 0 0 0 0 0 0 0 0 0 0 0 0 0 0 0 0 0
2.03079 4.92732e-13 4.92193e-13 5.38518e-16 0.00109292 0.000129725 0 0 0 0 0 0 0 0 0 0 0 0 0 0 0 0 0 0 0 0 0 0 0 0 0 0 0 0 0 0 0 0 0 0 0 0 0 0 0 0 0 0
2.13503 4.49663e-13 4.49219e-13 4.43461e-16 0.000986209 0.000118657 0 0 0 0 0 0 0 0 0 0 0 0 0 0 0 0 0 0 0 0 0 0 0 0 0 0 0 0 0 0 0 0 0 0 0 0 0 0 0 0 0 0
2.24463 4.10084e-13 4.09719e-13 3.64936e-16 0.000889904 0.000108569 0 0 0 0 0 0 0 0 0 0 0 0 0 0 0 0 0 0 0 0 0 0 0 0 0 0 0 0 0 0 0 0 0 0 0 0 0 0 0 0 0 0
2.35984 3.73807e-13 3.73507e-13 3.00175e-16 0.00080302 9.92926e-05 0 0 0 0 0 0 0 0 0 0 0 0 0 0 0 0 0 0 0 0 0 0 0 0 0 0 0 0 0 0 0 0 0 0 0 0 0 0 0 0 0 0
2.48097 3.40602e-13 3.40356e-13 2.46784e-16 0.000724551 9.07218e-05 0 0 0 0 0 0 0 0 0 0 0 0 0 0 0 0 0 0 0 0 0 0 0 0 0 0 0 0 0 0 0 0 0 0 0 0 0 0 0 0 0 0
2.60832 3.10255e-13 3.10052e-13 2.02793e-16 0.000653632 8.27967e-05 0 0 0 0 0 0 0 0 0 0 0 0 0 0 0 0 0 0 0 0 0 0 0 0 0 0 0 0 0 0 0 0 0 0 0 0 0 0 0 0 0 0
2.74221 2.82576e-13 2.8241e-13 1.66603e-16 0.000589587 7.55862e-05 0 0 0 0 0 0 0 0 0 0 0 0 0 0 0 0 0 0 0 0 0 0 0 0 0 0 0 0 0 0 0 0 0 0 0 0 0 0 0 0 0 0
2.88297 2.5731e-13 2.57173e-13 1.36792e-16 0.000531624 6.90729e-05 0 0 0 0 0 0 0 0 0 0 0 0 0 0 0 0 0 0 0 0 0 0 0 0 0 0 0 0 0 0 0 0 0 0 0 0 0 0 0 0 0 0
3.03095 2.34319e-13 2.34207e-13 1.12308e-16 0.000479294 6.31538e-05 0 0 0 0 0 0 0 0 0 0 0 0 0 0 0 0 0 0 0 0 0 0 0 0 0 0 0 0 0 0 0 0 0 0 0 0 0 0 0 0 0 0
3.18653 2.13385e-13 2.13293e-13 9.21666e-17 0.000431925 5.76567e-05 0 0 0 0 0 0 0 0 0 0 0 0 0 0 0 0 0 0 0 0 0 0 0 0 0 0 0 0 0 0 0 0 0 0 0 0 0 0 0 0 0 0
3.35009 1.94398e-13 1.94322e-13 7.56167e-17 0.000388979 5.2603e-05 0 0 0 0 0 0 0 0 0 0 0 0 0 0 0 0 0 0 0 0 0 0 0 0 0 0 0 0 0 0 0 0 0 0 0 0 0 0 0 0 0 0
3.52205 1.7705e-13 1.76988e-13 6.20282e-17 0.000350343 4.80102e-05 0 0 0 0 0 0 0 0 0 0 0 0 0 0 0 0 0 0 0 0 0 0 0 0 0 0 0 0 0 0 0 0 0 0 0 0 0 0 0 0 0 0
3.70284 1.61335e-13 1.61284e-13 5.08686e-17 0.000315299 4.38066e-05 0 0 0 0 0 0 0 0 0 0 0 0 0 0 0 0 0 0 0 0 0 0 0 0 0 0 0 0 0 0 0 0 0 0 0 0 0 0 0 0 0 0
3.89291 1.47063e-13 1.47021e-13 4.17088e-17 0.000283612 3.9926e-05 0 0 0 0 0 0 0 0 0 0 0 0 0 0 0 0 0 0 0 0 0 0 0 0 0 0 0 0 0 0 0 0 0 0 0 0 0 0 0 0 0 0
4.09273 1.34121e-13 1.34087e-13 3.41933e-17 0.000254943 3.62643e-05 0 0 0 0 0 0 0 0 0 0 0 0 0 0 0 0 0 0 0 0 0 0 0 0 0 0 0 0 0 0 0 0 0 0 0 0 0 0 0 0 0 0
4.30281 1.22388e-13 1.2236e-13 2.80287e-17 0.000229015 3.29535e-05 0 0 0 0 0 0 0 0 0 0 0 0 0 0 0 0 0 0 0 0 0 0 0 0 0 0 0 0 0 0 0 0 0 0 0 0 1.4013e-45 0 2.8026e-45 0 7.00649e-45 0
4.52368 1.11751e-13 1.11728e-13 2.29745e-17 0.000205586 2.99416e-05 0 0 0 0 0 0 0 0 0 0 0 0 0 0 0 0 0 0 0 0 0 0 0 0 0 0 0 0 1.4013e-45 0 4.2039e-45 0 1.12104e-44 0 3.50325e-44 0 1.00893e-43 0 2.62043e-43 0 6.48801e-43 0
4.75588 1.0211e-13 1.02092e-13 1.88314e-17 0.000184422 2.71796e-05 0 0 0 0 0 0 0 0 0 0 0 0 0 0 0 0 0 0 0 0 0 0 1.4013e-45 0 5.60519e-45 0 2.52234e-44 0 9.80909e-44 0 3.25101e-43 0 1.02015e-42 0 2.9161e-42 0 7.88791e-42 0 1.9635e-41 0 4.65623e-41 0
5 9.33793e-14 9.33638e-14 1.5431e-17 0.000165251 2.45398e-05 0 0 0 0 0 0 0 0 0 0 0 0 0 0 0 0 0 0 2.8026e-45 0 2.10195e-44 0 1.17709e-43 0 5.26888e-43 0 2.10195e-42 0 7.54739e-42 0 2.37576e-41 0 7.04237e-41 0 1.91256e-40 0 4.92915e-40 0 1.1735e-39 0 2.66785e-39 0
5.25665 8.55503e-14 8.55377e-14 1.26454e-17 0.000147812 2.21678e-05 0 0 0 0 0 0 0 4.2039e-45 0 0 0 0 0 0 2.8026e-45 0 3.64338e-44 0 2.85865e-43 0 1.76564e-42 0 8.88283e-42 0 3.69775e-41 0 1.38046e-40 0 4.6571e-40 0 1.38606e-39 0 3.89642e-39 0 1.0078e-38 0 2.48004e-38 0 5.65952e-38 0 1.23607e-37 0
5.52648 7.83567e-14 7.83463e-14 1.03619e-17 0.000132241 2.00489e-05 0 0 0 0 0 4.2039e-45 0 2.42425e-43 0 0 1.4013e-45 0 1.96182e-44 0 2.99878e-43 0 2.89228e-42 0 2.03328e-41 0 1.15048e-40 0 5.34684e-40 0 2.07614e-39 0 7.26803e-39 0 2.3106e-38 0 6.52025e-38 0 1.74273e-37 0 4.3032e-37 0 1.0134e-36 0 2.22129e-36 0 4.66986e-36 0
5.81015 7.19418e-14 7.19333e-14 8.48998e-18 0.000118012 1.8115e-05 0 0 0 0 0 2.17201e-43 0 1.04677e-41 1.4013e-45 0 7.28675e-44 0 1.6213e-42 0 2.09564e-41 0 1.81349e-40 0 1.15903e-39 0 6.02587e-39 0 2.59812e-38 0 9.44179e-38 0 3.10918e-37 0 9.34177e-37 0 2.50594e-36 0 6.38399e-36 0 1.50829e-35 0 3.40654e-35 0 7.18618e-35 0 1.45694e-34 0
6.10839 6.66265e-14 6.66195e-14 6.95853e-18 0.000104441 1.63023e-05 0 0 0 2.24208e-44 0 8.95009e-42 1.4013e-45 3.85831e-40 1.28919e-43 0 5.41602e-42 0 1.0377e-40 0 1.18362e-39 0 9.2182e-39 0 5.38138e-38 0 2.58145e-37 0 1.03638e-36 0 3.53632e-36 0 1.09868e-35 0 3.12844e-35 0 7.99738e-35 0 1.94644e-34 0 4.40964e-34 0 9.57095e-34 0 1.94676e-33 0 3.81302e-33 0
6.42193 6.07155e-14 6.07098e-14 5.68669e-18 9.36612e-05 1.48144e-05 0 4.2039e-45 0 9.10844e-43 0 3.07137e-40 7.56701e-44 1.18924e-38 9.05659e-42 0 3.16459e-40 0 5.2492e-39 0 5.31641e-38 0 3.74568e-37 0 2.00617e-36 0 8.91434e-36 0 3.34403e-35 0 1.07468e-34 0 3.1591e-34 0 8.54734e-34 0 2.08712e-33 0 4.86386e-33 0 1.05877e-32 0 2.2127e-32 0 4.34735e-32 0 8.24e-32 0
6.75157 5.60982e-14 5.60935e-14 4.66445e-18 8.3148e-05 1.32279e-05 0 1.91978e-43 0 3.16483e-41 7.00649e-45 9.11832e-39 5.44825e-42 3.17843e-37 5.14523e-40 0 1.51152e-38 0 2.18592e-37 0 1.97727e-36 0 1.26643e-35 0 6.24931e-35 0 2.58184e-34 0 9.07983e-34 0 2.75634e-33 0 7.68693e-33 0 1.98114e-32 0 4.6313e-32 0 1.03561e-31 0 2.17032e-31 0 4.37537e-31 0 8.31757e-31 0 1.52806e-30 0
7.09813 5.18024e-14 5.17986e-14 3.8213e-18 7.37667e-05 1.18448e-05 0 6.52024e-42 0 9.40877e-40 5.05869e-43 2.3228e-37 3.12043e-40 7.30548e-36 2.36028e-38 0 5.87892e-37 0 7.46229e-36 0 6.06188e-35 0 3.54604e-34 0 1.61863e-33 0 6.23973e-33 0 2.06371e-32 0 5.93413e-32 0 1.57409e-31 0 3.87363e-31 0 8.68761e-31 0 1.8678e-30 0 3.77546e-30 0 7.35518e-30 0 1.35505e-29 0 2.41658e-29 0
7.46248 4.85233e-14 4.85201e-14 3.13009e-18 6.4507e-05 1.05694e-05 0 1.92495e-40 0 2.44217e-38 3.25185e-41 5.18386e-36 1.46413e-38 1.47428e-34 8.96602e-37 0 1.9088e-35 0 2.14019e-34 0 1.56954e-33 0 8.42274e-33 0 3.56995e-32 0 1.28845e-31 0 4.01965e-31 0 1.09774e-30 0 2.77644e-30 0 6.53856e-30 0 1.40973e-29 0 2.91968e-29 0 5.70234e-29 0 1.07532e-28 0 1.92283e-28 0 3.33366e-28 0
7.84553 4.5204e-14 4.52014e-14 2.56395e-18 5.67196e-05 9.34187e-06 0 4.87876e-39 3.08286e-44 5.45801e-37 1.66868e-39 9.99436e-35 5.57539e-37 2.57574e-33 2.79285e-35 0 5.12107e-34 0 5.10275e-33 0 3.39527e-32 0 1.67853e-31 0 6.63004e-31 0 2.24754e-30 0 6.63287e-30 0 1.72469e-29 0 4.16893e-29 0 9.41576e-29 0 1.95533e-28 0 3.90824e-28 0 7.38761e-28 0 1.35063e-27 0 2.34757e-27 0 3.96215e-27 0
8.24824 4.10826e-14 4.10805e-14 2.1e-18 5.11166e-05 8.19911e-06 0 1.04709e-37 2.11176e-42 1.03601e-35 6.78525e-38 1.64184e-33 1.70703e-35 3.84242e-32 7.06354e-34 0 1.12371e-32 0 1.00081e-31 0 6.07065e-31 0 2.7759e-30 0 1.02533e-29 0 3.27467e-29 0 9.16675e-29 0 2.27491e-28 0 5.26697e-28 0 1.14318e-27 0 2.2908e-27 0 4.42652e-27 0 8.11119e-27 0 1.43987e-26 0 2.43604e-26 0 4.00773e-26 0
8.67162 3.81465e-14 3.81448e-14 1.71993e-18 4.50875e-05 7.20916e-06 1.4013e-45 2.00395e-36 1.19506e-40 1.7586e-34 2.31299e-36 2.41962e-32 4.4426e-34 5.15265e-31 1.53278e-32 0 2.13032e-31 0 1.70519e-30 0 9.47182e-30 0 4.02134e-29 0 1.39355e-28 0 4.20539e-28 0 1.11951e-27 0 2.65768e-27 0 5.90607e-27 0 1.2343e-26 0 2.39085e-26 0 4.47365e-26 0 7.95871e-26 0 1.37377e-25 0 2.26529e-25 0 3.63732e-25 0
9.11674 3.51015e-14 3.51001e-14 1.40869e-18 4.01318e-05 6.32492e-06 1.52742e-43 3.33473e-35 5.41572e-39 2.60285e-33 6.47358e-35 3.11863e-31 9.61878e-33 6.05518e-30 2.79177e-31 0 3.41225e-30 0 2.46754e-29 0 1.26057e-28 0 4.98708e-28 0 1.62647e-27 0 4.6506e-27 0 1.18024e-26 0 2.68603e-26 0 5.74084e-26 0 1.15736e-25 0 2.17061e-25 0 3.93918e-25 0 6.81351e-25 0 1.14516e-24 0 1.84277e-24 0 2.89127e-24 0
9.5847 3.26366e-14 3.26355e-14 1.15378e-18 3.53524e-05 5.52644e-06 9.51482e-42 4.94478e-34 2.02535e-37 3.44201e-32 1.53077e-33 3.60207e-30 1.78172e-31 6.38913e-29 4.38715e-30 0 4.7453e-29 0 3.11556e-28 0 1.4698e-27 0 5.43718e-27 0 1.67382e-26 0 4.54668e-26 0 1.10257e-25 0 2.41053e-25 0 4.96445e-25 0 9.67159e-25 0 1.75904e-24 0 3.10072e-24 0 5.22167e-24 0 8.5565e-24 0 1.34528e-23 0 2.06481e-23 0
