# 2.32244e-05 2 62 : grain size, compostion index, size index
# Heating and cooling timescale: 0.0287626 5.28232e+06
# Ratio of heating to cooling to determine stochastic cutoff: 100
# Equilibrium emission is recorded even for those grains in the stochastic regime.
# Emission spectrum was computed for: 
# Type: ISRF
# Scales: 0.25 0.5 1 1.5 2 2.5 3 3.5 4 4.5 5 5.5 6 6.5 7 7.5 8 8.5 9 9.5 10
# StochasticallyHeated: 0 0 0 0 0 0 0 0 0 0 0 0 0 0 0 0 0 0 0 0 0
# Temperature: -1
# Wavelength  CExt  CAbs  CSca  Albedo G EqEm1 StEm1 EqEm2 StEm2 EqEm3 StEm3 EqEm4 StEm4 EqEm5 StEm5 EqEm6 StEm6 EqEm7 StEm7 EqEm8 StEm8 EqEm9 StEm9 EqEm10 StEm10 EqEm11 StEm11 EqEm12 StEm12 EqEm13 StEm13 EqEm14 StEm14 EqEm15 StEm15 EqEm16 StEm16 EqEm17 StEm17 EqEm18 StEm18 EqEm19 StEm19 EqEm20 StEm20 EqEm21 StEm21
0.05 3.57206e-09 1.55416e-09 2.01789e-09 0.564911 0.927957 0 0 0 0 0 0 0 0 0 0 0 0 0 0 0 0 0 0 0 0 0 0 0 0 0 0 0 0 0 0 0 0 0 0 0 0 0 0 0 0 0 0
0.0525665 3.58764e-09 1.55089e-09 2.03675e-09 0.567712 0.922101 0 0 0 0 0 0 0 0 0 0 0 0 0 0 0 0 0 0 0 0 0 0 0 0 0 0 0 0 0 0 0 0 0 0 0 0 0 0 0 0 0 0
0.0552647 3.60589e-09 1.53849e-09 2.06741e-09 0.573341 0.913375 0 0 0 0 0 0 0 0 0 0 0 0 0 0 0 0 0 0 0 0 0 0 0 0 0 0 0 0 0 0 0 0 0 0 0 0 0 0 0 0 0 0
0.0581015 3.63212e-09 1.51789e-09 2.11423e-09 0.582093 0.900095 0 0 0 0 0 0 0 0 0 0 0 0 0 0 0 0 0 0 0 0 0 0 0 0 0 0 0 0 0 0 0 0 0 0 0 0 0 0 0 0 0 0
0.0610839 3.66673e-09 1.50358e-09 2.16315e-09 0.589941 0.885337 0 0 0 0 0 0 0 0 0 0 0 0 0 0 0 0 0 0 0 0 0 0 0 0 0 0 0 0 0 0 0 0 0 0 0 0 0 0 0 0 0 0
0.0642193 3.70432e-09 1.50404e-09 2.20028e-09 0.593977 0.873325 0 0 0 0 0 0 0 0 0 0 0 0 0 0 0 0 0 0 0 0 0 0 0 0 0 0 0 0 0 0 0 0 0 0 0 0 0 0 0 0 0 0
0.0675157 3.74203e-09 1.51702e-09 2.22501e-09 0.5946 0.864778 0 0 0 0 0 0 0 0 0 0 0 0 0 0 0 0 0 0 0 0 0 0 0 0 0 0 0 0 0 0 0 0 0 0 0 0 0 0 0 0 0 0
0.0709813 3.77859e-09 1.53932e-09 2.23926e-09 0.592619 0.859252 0 0 0 0 0 0 0 0 0 0 0 0 0 0 0 0 0 0 0 0 0 0 0 0 0 0 0 0 0 0 0 0 0 0 0 0 0 0 0 0 0 0
0.0746248 3.81258e-09 1.56833e-09 2.24425e-09 0.588644 0.856319 0 0 0 0 0 0 0 0 0 0 0 0 0 0 0 0 0 0 0 0 0 0 0 0 0 0 0 0 0 0 0 0 0 0 0 0 0 0 0 0 0 0
0.0784553 3.84141e-09 1.60331e-09 2.23809e-09 0.582624 0.856368 0 0 0 0 0 0 0 0 0 0 0 0 0 0 0 0 0 0 0 0 0 0 0 0 0 0 0 0 0 0 0 0 0 0 0 0 0 0 0 0 0 0
0.0824824 3.86149e-09 1.64573e-09 2.21576e-09 0.57381 0.860752 0 0 0 0 0 0 0 0 0 0 0 0 0 0 0 0 0 0 0 0 0 0 0 0 0 0 0 0 0 0 0 0 0 0 0 0 0 0 0 0 0 0
0.0867162 3.87433e-09 1.66813e-09 2.20619e-09 0.569439 0.862777 0 0 0 0 0 0 0 0 0 0 0 0 0 0 0 0 0 0 0 0 0 0 0 0 0 0 0 0 0 0 0 0 0 0 0 0 0 0 0 0 0 0
0.0911674 3.90218e-09 1.67484e-09 2.22734e-09 0.570795 0.856155 0 0 0 0 0 0 0 0 0 0 0 0 0 0 0 0 0 0 0 0 0 0 0 0 0 0 0 0 0 0 0 0 0 0 0 0 0 0 0 0 0 0
0.095847 3.92924e-09 1.6945e-09 2.23474e-09 0.568746 0.852295 0 0 0 0 0 0 0 0 0 0 0 0 0 0 0 0 0 0 0 0 0 0 0 0 0 0 0 0 0 0 0 0 0 0 0 0 0 0 0 0 0 0
0.100767 3.94948e-09 1.7167e-09 2.23278e-09 0.565334 0.850862 0 0 0 0 0 0 0 0 0 0 0 0 0 0 0 0 0 0 0 0 0 0 0 0 0 0 0 0 0 0 0 0 0 0 0 0 0 0 0 0 0 0
0.105939 3.9626e-09 1.74616e-09 2.21645e-09 0.559341 0.853276 0 0 0 0 0 0 0 0 0 0 0 0 0 0 0 0 0 0 0 0 0 0 0 0 0 0 0 0 0 0 0 0 0 0 0 0 0 0 0 0 0 0
0.111377 3.97429e-09 1.77522e-09 2.19907e-09 0.553324 0.856767 0 0 0 0 0 0 0 0 0 0 0 0 0 0 0 0 0 0 0 0 0 0 0 0 0 0 0 0 0 0 0 0 0 0 0 0 0 0 0 0 0 0
0.117094 3.98847e-09 1.79994e-09 2.18853e-09 0.548715 0.858496 0 0 0 0 0 0 0 0 0 0 0 0 0 0 0 0 0 0 0 0 0 0 0 0 0 0 0 0 0 0 0 0 0 0 0 0 0 0 0 0 0 0
0.123105 4.00433e-09 1.82222e-09 2.18211e-09 0.544938 0.859086 0 0 0 0 0 0 0 0 0 0 0 0 0 0 0 0 0 0 0 0 0 0 0 0 0 0 0 0 0 0 0 0 0 0 0 0 0 0 0 0 0 0
0.129424 4.02155e-09 1.84248e-09 2.17907e-09 0.541848 0.85865 0 0 0 0 0 0 0 0 0 0 0 0 0 0 0 0 0 0 0 0 0 0 0 0 0 0 0 0 0 0 0 0 0 0 0 0 0 0 0 0 0 0
0.136067 4.03994e-09 1.86021e-09 2.17972e-09 0.539544 0.856988 0 0 0 0 0 0 0 0 0 0 0 0 0 0 0 0 0 0 0 0 0 0 0 0 0 0 0 0 0 0 0 0 0 0 0 0 0 0 0 0 0 0
0.143051 4.05898e-09 1.87295e-09 2.18603e-09 0.538566 0.853237 0 0 0 0 0 0 0 0 0 0 0 0 0 0 0 0 0 0 0 0 0 0 0 0 0 0 0 0 0 0 0 0 0 0 0 0 0 0 0 0 0 0
0.150394 4.07605e-09 1.89427e-09 2.18178e-09 0.535269 0.852631 0 0 0 0 0 0 0 0 0 0 0 0 0 0 0 0 0 0 0 0 0 0 0 0 0 0 0 0 0 0 0 0 0 0 0 0 0 0 0 0 0 0
0.158114 4.09395e-09 1.93082e-09 2.16313e-09 0.528373 0.856878 0 0 0 0 0 0 0 0 0 0 0 0 0 0 0 0 0 0 0 0 0 0 0 0 0 0 0 0 0 0 0 0 0 0 0 0 0 0 0 0 0 0
0.16623 4.13124e-09 1.97306e-09 2.15818e-09 0.522404 0.863288 0 0 0 0 0 0 0 0 0 0 0 0 0 0 0 0 0 0 0 0 0 0 0 0 0 0 0 0 0 0 0 0 0 0 0 0 0 0 0 0 0 0
0.174762 4.22827e-09 1.9951e-09 2.23317e-09 0.528152 0.86474 0 0 0 0 0 0 0 0 0 0 0 0 0 0 0 0 0 0 0 0 0 0 0 0 0 0 0 0 0 0 0 0 0 0 0 0 0 0 0 0 0 0
0.183733 4.09157e-09 1.92194e-09 2.16963e-09 0.530268 0.827475 0 0 0 0 0 0 0 0 0 0 0 0 0 0 0 0 0 0 0 0 0 0 0 0 0 0 0 0 0 0 0 0 0 0 0 0 0 0 0 0 0 0
0.193164 3.8857e-09 1.73491e-09 2.15079e-09 0.553514 0.762202 0 0 0 0 0 0 0 0 0 0 0 0 0 0 0 0 0 0 0 0 0 0 0 0 0 0 0 0 0 0 0 0 0 0 0 0 0 0 0 0 0 0
0.203079 4.25198e-09 1.5662e-09 2.68578e-09 0.631654 0.773749 0 0 0 0 0 0 0 0 0 0 0 0 0 0 0 0 0 0 0 0 0 0 0 0 0 0 0 0 0 0 0 0 0 0 0 0 0 0 0 0 0 0
0.213503 4.84568e-09 1.33843e-09 3.50725e-09 0.72379 0.80103 0 0 0 0 0 0 0 0 0 0 0 0 0 0 0 0 0 0 0 0 0 0 0 0 0 0 0 0 0 0 0 0 0 0 0 0 0 0 0 0 0 0
0.224463 5.02141e-09 1.17828e-09 3.84313e-09 0.765349 0.796028 0 0 0 0 0 0 0 0 0 0 0 0 0 0 0 0 0 0 0 0 0 0 0 0 0 0 0 0 0 0 0 0 0 0 0 0 0 0 0 0 0 0
0.235984 4.59647e-09 1.2405e-09 3.35597e-09 0.730119 0.751367 0 0 0 0 0 0 0 0 0 0 0 0 0 0 0 0 0 0 0 0 0 0 0 0 0 0 0 0 0 0 0 0 0 0 0 0 0 0 0 0 0 0
0.248097 4.07818e-09 1.17937e-09 2.89881e-09 0.710809 0.701722 0 0 0 0 0 0 0 0 0 0 0 0 0 0 0 0 0 0 0 0 0 0 0 0 0 0 0 0 0 0 0 0 0 0 0 0 0 0 0 0 0 0
0.260832 3.57955e-09 1.20806e-09 2.37149e-09 0.66251 0.565799 0 0 0 0 0 0 0 0 0 0 0 0 0 0 0 0 0 0 0 0 0 0 0 0 0 0 0 0 0 0 0 0 0 0 0 0 0 0 0 0 0 0
0.274221 3.55065e-09 1.17162e-09 2.37903e-09 0.670026 0.504205 0 0 0 0 0 0 0 0 0 0 0 0 0 0 0 0 0 0 0 0 0 0 0 0 0 0 0 0 0 0 0 0 0 0 0 0 0 0 0 0 0 0
0.288297 3.46004e-09 1.28094e-09 2.1791e-09 0.629791 0.415567 0 0 0 0 0 0 0 0 0 0 0 0 0 0 0 0 0 0 0 0 0 0 0 0 0 0 0 0 0 0 0 0 0 0 0 0 0 0 0 0 0 0
0.303095 3.72541e-09 1.05848e-09 2.66692e-09 0.715874 0.462068 0 0 0 0 0 0 0 0 0 0 0 0 0 0 0 0 0 0 0 0 0 0 0 0 0 0 0 0 0 0 0 0 0 0 0 0 0 0 0 0 0 0
0.318653 4.31701e-09 1.16229e-09 3.15472e-09 0.730766 0.499279 0 0 0 0 0 0 0 0 0 0 0 0 0 0 0 0 0 0 0 0 0 0 0 0 0 0 0 0 0 0 0 0 0 0 0 0 0 0 0 0 0 0
0.335009 4.4245e-09 1.10614e-09 3.31836e-09 0.749997 0.51146 0 0 0 0 0 0 0 0 0 0 0 0 0 0 0 0 0 0 0 0 0 0 0 0 0 0 0 0 0 0 0 0 0 0 0 0 0 0 0 0 0 0
0.352205 5.05258e-09 9.41398e-10 4.11118e-09 0.81368 0.597516 0 0 0 0 0 0 0 0 0 0 0 0 0 0 0 0 0 0 0 0 0 0 0 0 0 0 0 0 0 0 0 0 0 0 0 0 0 0 0 0 0 0
0.370284 6.01226e-09 1.01813e-09 4.99413e-09 0.830657 0.621208 0 0 0 0 0 0 0 0 0 0 0 0 0 0 0 0 0 0 0 0 0 0 0 0 0 0 0 0 0 0 0 0 0 0 0 0 0 0 0 0 0 0
0.389291 6.25449e-09 1.04836e-09 5.20613e-09 0.832383 0.607541 0 0 0 0 0 0 0 0 0 0 0 0 0 0 0 0 0 0 0 0 0 0 0 0 0 0 0 0 0 0 0 0 0 0 0 0 0 0 0 0 0 0
0.409273 6.15815e-09 8.50446e-10 5.3077e-09 0.861899 0.649382 0 0 0 0 0 0 0 0 0 0 0 0 0 0 0 0 0 0 0 0 0 0 0 0 0 0 0 0 0 0 0 0 0 0 0 0 0 0 0 0 0 0
0.430281 6.82623e-09 8.15747e-10 6.01048e-09 0.880498 0.689025 0 0 0 0 0 0 0 0 0 0 0 0 0 0 0 0 0 0 0 0 0 0 0 0 0 0 0 0 0 0 0 0 0 0 0 0 0 0 0 0 0 0
0.452368 7.48921e-09 8.80896e-10 6.60831e-09 0.882378 0.69203 0 0 0 0 0 0 0 0 0 0 0 0 0 0 0 0 0 0 0 0 0 0 0 0 0 0 0 0 0 0 0 0 0 0 0 0 0 0 0 0 0 0
0.475588 7.33626e-09 8.68329e-10 6.46793e-09 0.881639 0.666776 0 0 0 0 0 0 0 0 0 0 0 0 0 0 0 0 0 0 0 0 0 0 0 0 0 0 0 0 0 0 0 0 0 0 0 0 0 0 0 0 0 0
0.5 6.75841e-09 7.21884e-10 6.03653e-09 0.893187 0.652143 0 0 0 0 0 0 0 0 0 0 0 0 0 0 0 0 0 0 0 0 0 0 0 0 0 0 0 0 0 0 0 0 0 0 0 0 0 0 0 0 0 0
0.525665 6.71268e-09 6.48885e-10 6.0638e-09 0.903334 0.66623 0 0 0 0 0 0 0 0 0 0 0 0 0 0 0 0 0 0 0 0 0 0 0 0 0 0 0 0 0 0 0 0 0 0 0 0 0 0 0 0 0 0
0.552648 6.96753e-09 6.57028e-10 6.31051e-09 0.905701 0.686634 0 0 0 0 0 0 0 0 0 0 0 0 0 0 0 0 0 0 0 0 0 0 0 0 0 0 0 0 0 0 0 0 0 0 0 0 0 0 0 0 0 0
0.581015 7.08538e-09 6.92469e-10 6.39291e-09 0.902268 0.695741 0 0 0 0 0 0 0 0 0 0 0 0 0 0 0 0 0 0 0 0 0 0 0 0 0 0 0 0 0 0 0 0 0 0 0 0 0 0 0 0 0 0
0.610839 6.67945e-09 6.80421e-10 5.99902e-09 0.898132 0.683951 0 0 0 0 0 0 0 0 0 0 0 0 0 0 0 0 0 0 0 0 0 0 0 0 0 0 0 0 0 0 0 0 0 0 0 0 0 0 0 0 0 0
0.642193 5.92567e-09 5.97478e-10 5.32819e-09 0.899171 0.650552 0 0 0 0 0 0 0 0 0 0 0 0 0 0 0 0 0 0 0 0 0 0 0 0 0 0 0 0 0 0 0 0 0 0 0 0 0 0 0 0 0 0
0.675157 5.32349e-09 5.09136e-10 4.81435e-09 0.904361 0.611345 0 0 0 0 0 0 0 0 0 0 0 0 0 0 0 0 0 0 0 0 0 0 0 0 0 0 0 0 0 0 0 0 0 0 0 0 0 0 0 0 0 0
0.709813 5.00124e-09 4.57625e-10 4.54361e-09 0.908498 0.582577 0 0 0 0 0 0 0 0 0 0 0 0 0 0 0 0 0 0 0 0 0 0 0 0 0 0 0 0 0 0 0 0 0 0 0 0 0 0 0 0 0 0
0.746248 4.84307e-09 4.41253e-10 4.40182e-09 0.90889 0.569516 0 0 0 0 0 0 0 0 0 0 0 0 0 0 0 0 0 0 0 0 0 0 0 0 0 0 0 0 0 0 0 0 0 0 0 0 0 0 0 0 0 0
0.784553 4.7078e-09 4.46427e-10 4.26137e-09 0.905173 0.571316 0 0 0 0 0 0 0 0 0 0 0 0 0 0 0 0 0 0 0 0 0 0 0 0 0 0 0 0 0 0 0 0 0 0 0 0 0 0 0 0 0 0
0.824824 4.46448e-09 4.54697e-10 4.00978e-09 0.898152 0.582887 0 0 0 0 0 0 0 0 0 0 0 0 0 0 0 0 0 0 0 0 0 0 0 0 0 0 0 0 0 0 0 0 0 0 0 0 0 0 0 0 0 0
0.867162 4.04366e-09 4.47243e-10 3.59642e-09 0.889396 0.594439 0 0 0 0 0 0 0 0 0 0 0 0 0 0 0 0 0 0 0 0 0 0 0 0 0 0 0 0 0 0 0 0 0 0 0 0 0 0 0 0 0 0
0.911674 3.50353e-09 4.17475e-10 3.08605e-09 0.880842 0.594027 0 0 0 0 0 0 0 0 0 0 0 0 0 0 0 0 0 0 0 0 0 0 0 0 0 0 0 0 0 0 0 0 0 0 0 0 0 0 0 0 0 0
0.95847 2.96391e-09 3.73522e-10 2.59039e-09 0.873977 0.573831 0 0 0 0 0 0 0 0 0 0 0 0 0 0 0 0 0 0 0 0 0 0 0 0 0 0 0 0 0 0 0 0 0 0 0 0 0 0 0 0 0 0
1.00767 2.50352e-09 3.27874e-10 2.17564e-09 0.869035 0.534599 0 0 0 0 0 0 0 0 0 0 0 0 0 0 0 0 0 0 0 0 0 0 0 0 0 0 0 0 0 0 0 0 0 0 0 0 0 0 0 0 0 0
1.05939 2.13399e-09 2.87909e-10 1.84608e-09 0.865084 0.484182 0 0 0 0 0 0 0 0 0 0 0 0 0 0 0 0 0 0 0 0 0 0 0 0 0 0 0 0 0 0 0 0 0 0 0 0 0 0 0 0 0 0
1.11377 1.83514e-09 2.55177e-10 1.57996e-09 0.860949 0.431054 0 0 0 0 0 0 0 0 0 0 0 0 0 0 0 0 0 0 0 0 0 0 0 0 0 0 0 0 0 0 0 0 0 0 0 0 0 0 0 0 0 0
1.17094 1.58501e-09 2.28702e-10 1.35631e-09 0.855709 0.380685 0 0 0 0 0 0 0 0 0 0 0 0 0 0 0 0 0 0 0 0 0 0 0 0 0 0 0 0 0 0 0 0 0 0 0 0 0 0 0 0 0 0
1.23105 1.36965e-09 2.07105e-10 1.16255e-09 0.848791 0.335699 0 0 0 0 0 0 0 0 0 0 0 0 0 0 0 0 0 0 0 0 0 0 0 0 0 0 0 0 0 0 0 0 0 0 0 0 0 0 0 0 0 0
1.29424 1.18041e-09 1.89393e-10 9.91013e-10 0.839553 0.296491 0 0 0 0 0 0 0 0 0 0 0 0 0 0 0 0 0 0 0 0 0 0 0 0 0 0 0 0 0 0 0 0 0 0 0 0 0 0 0 0 0 0
1.36067 1.01409e-09 1.74278e-10 8.39812e-10 0.828143 0.262701 0 0 0 0 0 0 0 0 0 0 0 0 0 0 0 0 0 0 0 0 0 0 0 0 0 0 0 0 0 0 0 0 0 0 0 0 0 0 0 0 0 0
1.43051 8.67096e-10 1.60902e-10 7.06194e-10 0.814436 0.233529 0 0 0 0 0 0 0 0 0 0 0 0 0 0 0 0 0 0 0 0 0 0 0 0 0 0 0 0 0 0 0 0 0 0 0 0 0 0 0 0 0 0
1.50394 7.39387e-10 1.48959e-10 5.90427e-10 0.798536 0.208359 0 0 0 0 0 0 0 0 0 0 0 0 0 0 0 0 0 0 0 0 0 0 0 0 0 0 0 0 0 0 0 0 0 0 0 0 0 0 0 0 0 0
1.58114 6.28934e-10 1.38129e-10 4.90805e-10 0.780376 0.186437 0 0 0 0 0 0 0 0 0 0 0 0 0 0 0 0 0 0 0 0 0 0 0 0 0 0 0 0 0 0 0 0 0 0 0 0 0 0 0 0 0 0
1.6623 5.33973e-10 1.28233e-10 4.0574e-10 0.759851 0.167208 0 0 0 0 0 0 0 0 0 0 0 0 0 0 0 0 0 0 0 0 0 0 0 0 0 0 0 0 0 0 0 0 0 0 0 0 0 0 0 0 0 0
1.74763 4.53522e-10 1.19292e-10 3.34229e-10 0.736964 0.150296 0 0 0 0 0 0 0 0 0 0 0 0 0 0 0 0 0 0 0 0 0 0 0 0 0 0 0 0 0 0 0 0 0 0 0 0 0 0 0 0 0 0
1.83733 3.85766e-10 1.11336e-10 2.7443e-10 0.71139 0.135324 0 0 0 0 0 0 0 0 0 0 0 0 0 0 0 0 0 0 0 0 0 0 0 0 0 0 0 0 0 0 0 0 0 0 0 0 0 0 0 0 0 0
1.93164 3.28894e-10 1.04161e-10 2.24733e-10 0.683299 0.121994 0 0 0 0 0 0 0 0 0 0 0 0 0 0 0 0 0 0 0 0 0 0 0 0 0 0 0 0 0 0 0 0 0 0 0 0 0 0 0 0 0 0
2.03079 2.81363e-10 9.76575e-11 1.83706e-10 0.652913 0.110091 0 0 0 0 0 0 0 0 0 0 0 0 0 0 0 0 0 0 0 0 0 0 0 0 0 0 0 0 0 0 0 0 0 0 0 0 0 0 0 0 0 0
2.13503 2.41723e-10 9.17455e-11 1.49978e-10 0.620452 0.0994397 0 0 0 0 0 0 0 0 0 0 0 0 0 0 0 0 0 0 0 0 0 0 0 0 0 0 0 0 0 0 0 0 0 0 0 0 0 0 0 0 0 0
2.24463 2.08675e-10 8.64201e-11 1.22255e-10 0.585862 0.0898631 0 0 0 0 0 0 0 0 0 0 0 0 0 0 0 0 0 0 0 0 0 0 0 0 0 0 0 0 0 0 0 0 0 0 0 0 0 0 0 0 0 0
2.35984 1.81098e-10 8.15502e-11 9.95481e-11 0.549691 0.0812379 0 0 0 0 0 0 0 0 0 0 0 0 0 0 0 0 0 0 0 0 0 0 0 0 0 0 0 0 0 0 0 0 0 0 0 0 0 0 0 0 0 0
2.48097 1.58061e-10 7.71162e-11 8.09448e-11 0.512111 0.0734524 0 0 0 0 0 0 0 0 0 0 0 0 0 0 0 0 0 0 0 0 0 0 0 0 0 0 0 0 0 0 0 0 0 0 0 0 0 0 0 0 0 0
2.60832 1.38968e-10 7.31421e-11 6.58262e-11 0.473678 0.0664379 0 0 0 0 0 0 0 0 0 0 0 0 0 0 0 0 0 0 0 0 0 0 0 0 0 0 0 0 0 0 0 0 0 0 0 0 0 0 0 0 0 0
2.74221 1.23012e-10 6.95118e-11 5.35003e-11 0.434919 0.0600972 0 0 0 0 0 0 0 0 0 0 0 0 0 0 0 0 0 0 0 0 0 0 0 0 0 0 0 0 0 0 0 0 0 0 0 0 0 0 0 0 0 0
2.88297 1.09635e-10 6.62311e-11 4.34041e-11 0.395896 0.0543477 0 0 0 0 0 0 0 0 0 0 0 0 0 0 0 0 0 0 0 0 0 0 0 0 0 0 0 0 0 0 0 0 0 0 0 0 0 0 0 0 0 0
3.03095 9.84487e-11 6.32378e-11 3.52109e-11 0.357658 0.0491521 0 0 0 0 0 0 0 0 0 0 0 0 0 0 0 0 0 0 0 0 0 0 0 0 0 0 0 0 0 0 0 0 0 0 0 0 0 0 0 0 0 0
3.18653 8.91943e-11 6.06413e-11 2.8553e-11 0.320122 0.0444511 0 0 0 0 0 0 0 0 0 0 0 0 0 0 0 0 0 0 0 0 0 0 0 0 0 0 0 0 0 0 0 0 0 0 0 0 0 0 0 0 0 0
3.35009 8.13872e-11 5.82611e-11 2.31261e-11 0.284149 0.0401887 0 0 0 0 0 0 0 0 0 0 0 0 0 0 0 0 0 0 0 0 0 0 0 0 0 0 0 0 0 0 0 0 0 0 0 0 0 0 0 0 0 0
3.52205 7.45546e-11 5.58546e-11 1.87e-11 0.250823 0.0363212 0 0 0 0 0 0 0 0 0 0 0 0 0 0 0 0 0 0 0 0 0 0 0 0 0 0 0 0 0 0 0 0 0 0 0 0 0 0 0 0 0 0
3.70284 6.86917e-11 5.35772e-11 1.51145e-11 0.220034 0.0328233 0 0 0 0 0 0 0 0 0 0 0 0 0 0 0 0 0 0 0 0 0 0 0 0 0 0 0 0 0 0 0 0 0 0 0 0 0 0 0 0 0 0
3.89291 6.36373e-11 5.14435e-11 1.21939e-11 0.191615 0.0296496 0 0 0 0 0 0 0 0 0 0 0 0 0 0 0 0 0 0 0 0 0 0 0 0 0 0 0 0 0 0 0 0 0 0 0 0 0 0 0 0 0 0
4.09273 5.92821e-11 4.947e-11 9.81215e-12 0.165516 0.0267673 0 0 0 0 0 0 0 0 0 0 0 0 0 0 0 0 0 0 0 0 0 0 0 0 0 0 0 0 0 0 0 0 0 0 0 0 0 0 0 0 0 0
4.30281 5.53696e-11 4.74952e-11 7.87446e-12 0.142216 0.0241517 0 0 0 0 0 0 0 0 0 0 0 0 0 0 0 0 0 0 0 0 0 0 0 0 0 0 0 0 0 0 0 0 0 0 0 0 0 0 0 0 0 0
4.52368 5.20088e-11 4.57053e-11 6.30346e-12 0.1212 0.0217814 0 0 0 0 0 0 0 0 0 0 0 0 0 0 0 0 0 0 0 0 0 0 0 0 0 0 0 0 0 0 0 0 0 0 0 0 0 0 0 0 0 0
4.75588 4.91803e-11 4.41548e-11 5.02558e-12 0.102187 0.0196282 0 0 0 0 0 0 0 0 0 0 0 0 0 0 0 0 0 0 0 0 0 0 0 0 0 0 0 0 0 0 0 0 0 0 0 0 0 0 0 0 0 0
5 4.69317e-11 4.29495e-11 3.98224e-12 0.0848517 0.0176679 0 0 0 0 0 0 0 0 0 0 0 0 0 0 0 0 0 0 0 0 0 0 0 0 0 0 0 0 0 0 0 0 0 0 0 0 0 0 0 0 0 0
5.25665 4.53287e-11 4.21931e-11 3.13558e-12 0.0691743 0.0158867 0 0 0 0 0 0 0 0 0 0 0 0 0 0 0 0 0 0 0 0 0 0 0 0 0 0 0 0 0 0 0 0 0 0 0 0 0 0 0 0 0 0
5.52648 4.42716e-11 4.18188e-11 2.45276e-12 0.0554025 0.0142709 0 0 0 0 0 0 0 0 0 0 0 0 0 0 0 0 0 0 0 0 0 0 0 0 0 0 0 0 0 0 0 0 0 0 0 0 0 0 0 0 0 0
5.81015 4.39181e-11 4.20223e-11 1.8958e-12 0.0431666 0.0127961 0 0 0 0 0 0 0 0 0 0 0 0 0 0 0 0 0 0 0 0 0 0 0 0 0 0 0 0 0 0 0 0 0 0 0 0 0 0 0 0 0 0
6.10839 4.40643e-11 4.26176e-11 1.44669e-12 0.0328312 0.0114545 0 0 0 0 0 0 0 0 0 0 0 0 0 0 0 0 0 0 0 0 0 0 0 0 0 0 0 0 0 0 0 0 0 0 0 0 0 0 0 0 0 0
6.42193 4.41371e-11 4.30531e-11 1.08401e-12 0.02456 0.0102326 0 0 0 0 0 0 0 0 0 0 0 0 0 0 0 0 0 0 0 0 0 0 0 0 0 0 0 0 0 0 0 0 0 0 0 0 1.4013e-45 0 2.8026e-45 0 8.40779e-45 0
6.75157 4.37559e-11 4.29738e-11 7.82099e-13 0.0178741 0.00910346 0 0 0 0 0 0 0 0 0 0 0 0 0 0 0 0 0 0 0 0 0 0 0 0 0 0 1.4013e-45 0 2.8026e-45 0 8.40779e-45 0 2.52234e-44 0 7.00649e-44 0 1.79366e-43 0 4.28797e-43 0 9.85113e-43 0
7.09813 4.3985e-11 4.34622e-11 5.22742e-13 0.0118846 0.0080403 0 0 0 0 0 0 0 0 0 0 0 0 0 0 0 0 0 0 0 0 1.4013e-45 0 5.60519e-45 0 2.66247e-44 0 9.94922e-44 0 3.37713e-43 0 1.03276e-42 0 2.84464e-42 0 7.48293e-42 0 1.83514e-41 0 4.21076e-41 0 9.29299e-41 0
7.46248 5.35637e-11 5.327e-11 2.93737e-13 0.00548387 0.00700466 0 0 0 0 0 0 0 0 0 0 0 0 0 0 0 0 4.2039e-45 0 3.36312e-44 0 1.90577e-43 0 8.80015e-43 0 3.56911e-42 0 1.2494e-41 0 4.0192e-41 0 1.16381e-40 0 3.05217e-40 0 7.65692e-40 0 1.79732e-39 0 3.9602e-39 0 8.40858e-39 0
7.84553 1.03064e-10 1.02918e-10 1.46291e-13 0.00141942 0.00601902 0 0 0 0 0 0 0 0 0 0 0 0 9.80909e-45 0 1.21913e-43 0 1.0804e-42 0 7.09337e-42 0 3.67336e-41 0 1.57266e-40 0 5.95527e-40 0 1.96102e-39 0 5.95839e-39 0 1.63804e-38 0 4.09834e-38 0 9.82993e-38 0 2.21324e-37 0 4.69212e-37 0 9.60305e-37 0
8.24824 2.13371e-10 2.13193e-10 1.7833e-13 0.000835774 0.00517855 0 0 0 0 0 0 0 0 2.8026e-45 0 1.17709e-43 0 2.28552e-42 0 2.63668e-41 0 2.08952e-40 0 1.25195e-39 0 5.98256e-39 0 2.38576e-38 0 8.46561e-38 0 2.63007e-37 0 7.56921e-37 0 1.98063e-36 0 4.7385e-36 0 1.08901e-35 0 2.35669e-35 0 4.81625e-35 0 9.51837e-35 0
8.67162 3.25281e-10 3.2496e-10 3.20794e-13 0.000986207 0.00451034 0 0 0 0 0 0 4.2039e-45 0 5.21283e-43 0 1.90114e-41 0 3.21136e-40 0 3.28719e-39 0 2.35462e-38 0 1.2927e-37 0 5.72313e-37 0 2.13325e-36 0 7.11573e-36 0 2.09167e-35 0 5.7169e-35 0 1.42731e-34 0 3.27234e-34 0 7.22114e-34 0 1.50489e-33 0 2.97001e-33 0 5.67762e-33 0
9.11674 4.79992e-10 4.79365e-10 6.26712e-13 0.00130567 0.00384414 0 0 0 0 1.4013e-45 0 7.94536e-43 0 7.6787e-41 0 2.35033e-39 0 3.45826e-38 0 3.15992e-37 0 2.056e-36 0 1.0387e-35 0 4.27641e-35 0 1.49482e-34 0 4.70135e-34 0 1.31109e-33 0 3.41178e-33 0 8.14587e-33 0 1.79343e-32 0 3.80759e-32 0 7.65561e-32 0 1.46156e-31 0 2.70698e-31 0
9.5847 5.43666e-10 5.42768e-10 8.97563e-13 0.00165095 0.00343583 0 0 0 0 1.30321e-43 0 8.86447e-41 0 6.85243e-39 0 1.77478e-37 0 2.29013e-36 0 1.87831e-35 0 1.11533e-34 0 5.20626e-34 0 2.00035e-33 0 6.5778e-33 0 1.95622e-32 0 5.18897e-32 0 1.2887e-31 0 2.94885e-31 0 6.24693e-31 0 1.2784e-30 0 2.4842e-30 0 4.59528e-30 0 8.25872e-30 0
10.0767 4.89335e-10 4.88468e-10 8.66965e-13 0.00177172 0.00325671 0 0 0 0 1.25542e-41 0 6.20539e-39 0 3.87944e-37 0 8.57169e-36 0 9.7623e-35 0 7.22501e-34 0 3.9328e-33 0 1.70277e-32 0 6.12626e-32 0 1.90076e-31 0 5.35988e-31 0 1.35561e-30 0 3.22043e-30 0 7.07725e-30 0 1.44531e-29 0 2.85612e-29 0 5.37292e-29 0 9.64479e-29 0 1.68447e-28 0
10.5939 4.11931e-10 4.11143e-10 7.88436e-13 0.001914 0.00319494 0 0 1.54143e-44 0 8.8865e-40 0 3.24481e-37 0 1.65768e-35 0 3.14894e-34 0 3.1847e-33 0 2.13753e-32 0 1.07115e-31 0 4.31745e-31 0 1.45922e-30 0 4.28395e-30 0 1.14839e-29 0 2.77583e-29 0 6.32158e-29 0 1.33684e-28 0 2.63655e-28 0 5.03976e-28 0 9.19273e-28 0 1.6037e-27 0 2.72564e-27 0
11.1377 3.24174e-10 3.2355e-10 6.24449e-13 0.00192627 0.00327337 0 0 1.34244e-42 0 4.6794e-38 0 1.28097e-35 0 5.40063e-34 0 8.88543e-33 0 8.02637e-32 0 4.909e-31 0 2.27382e-30 0 8.56205e-30 0 2.72676e-29 0 7.59513e-29 0 1.94031e-28 0 4.49222e-28 0 9.82749e-28 0 2.00363e-27 0 3.82272e-27 0 7.07959e-27 0 1.254e-26 0 2.129e-26 0 3.52594e-26 0
11.7094 2.58814e-10 2.58324e-10 4.9065e-13 0.00189576 0.00329414 1.4013e-45 0 9.61599e-41 0 2.01136e-36 0 4.18636e-34 0 1.47031e-32 0 2.10989e-31 0 1.71172e-30 0 9.58315e-30 0 4.11875e-29 0 1.4537e-28 0 4.37503e-28 0 1.15917e-27 0 2.82876e-27 0 6.28615e-27 0 1.32363e-26 0 2.60638e-26 0 4.81831e-26 0 8.65891e-26 0 1.49153e-25 0 2.46766e-25 0 3.98738e-25 0
12.3105 2.01936e-10 2.0156e-10 3.7592e-13 0.00186158 0.00328 1.28919e-43 0 5.33863e-39 0 6.8704e-35 0 1.10189e-32 0 3.25273e-31 0 4.09845e-30 0 3.00194e-29 0 1.54509e-28 0 6.18433e-28 0 2.05239e-27 0 5.85334e-27 0 1.4788e-26 0 3.45495e-26 0 7.38412e-26 0 1.49931e-25 0 2.85624e-25 0 5.12416e-25 0 8.94876e-25 0 1.50106e-24 0 2.42314e-24 0 3.82477e-24 0
12.9424 1.57336e-10 1.57056e-10 2.79885e-13 0.0017789 0.00314219 9.62132e-42 0 2.37432e-37 0 1.92507e-33 0 2.40956e-31 0 6.02936e-30 0 6.71301e-29 0 4.46147e-28 0 2.11977e-27 0 7.929e-27 0 2.4817e-26 0 6.72469e-26 0 1.62378e-25 0 3.6397e-25 0 7.49578e-25 0 1.47026e-24 0 2.71412e-24 0 4.73221e-24 0 8.04233e-24 0 1.31538e-23 0 2.07432e-23 0 3.20202e-23 0
13.6067 1.2542e-10 1.2522e-10 2.00209e-13 0.00159631 0.00285797 5.81694e-40 0 8.7609e-36 0 4.57728e-32 0 4.52576e-30 0 9.67726e-29 0 9.57849e-28 0 5.80359e-27 0 2.55542e-26 0 8.96232e-26 0 2.65313e-25 0 6.84768e-25 0 1.58382e-24 0 3.41294e-24 0 6.78519e-24 0 1.28781e-23 0 2.30723e-23 0 3.91506e-23 0 6.48352e-23 0 1.03526e-22 0 1.59666e-22 0 2.413e-22 0
