# 2.6607e-06 0 75 : grain size, compostion index, size index
# Heating and cooling timescale: 2.78288 6411.07
# Ratio of heating to cooling to determine stochastic cutoff: 100
# Equilibrium emission is recorded even for those grains in the stochastic regime.
# Emission spectrum was computed for: 
# Type: IRSF
# Scales: 0.25 0.5 1 1.5 2 2.5 3 3.5 4 4.5 5 5.5 6 6.5 7 7.5 8 8.5 9 9.5 10
# StochasticallyHeated: 1 0 0 0 0 0 0 0 0 0 0 0 0 0 0 0 0 0 0 0 0
# Temperature: -1
# Wavelength  CExt  CAbs  CSca  Albedo G EqEm1 StEm1 EqEm2 StEm2 EqEm3 StEm3 EqEm4 StEm4 EqEm5 StEm5 EqEm6 StEm6 EqEm7 StEm7 EqEm8 StEm8 EqEm9 StEm9 EqEm10 StEm10 EqEm11 StEm11 EqEm12 StEm12 EqEm13 StEm13 EqEm14 StEm14 EqEm15 StEm15 EqEm16 StEm16 EqEm17 StEm17 EqEm18 StEm18 EqEm19 StEm19 EqEm20 StEm20 EqEm21 StEm21
0.05 1.68042e-11 9.1827e-12 7.62149e-12 0.453547 0.00576547 0 0 0 0 0 0 0 0 0 0 0 0 0 0 0 0 0 0 0 0 0 0 0 0 0 0 0 0 0 0 0 0 0 0 0 0 0 0 0 0 0 0
0.0525665 1.85736e-11 1.01496e-11 8.424e-12 0.453547 0.00637255 0 0 0 0 0 0 0 0 0 0 0 0 0 0 0 0 0 0 0 0 0 0 0 0 0 0 0 0 0 0 0 0 0 0 0 0 0 0 0 0 0 0
0.0552647 2.05293e-11 1.12183e-11 9.311e-12 0.453547 0.00704355 0 0 0 0 0 0 0 0 0 0 0 0 0 0 0 0 0 0 0 0 0 0 0 0 0 0 0 0 0 0 0 0 0 0 0 0 0 0 0 0 0 0
0.0581015 2.26909e-11 1.23995e-11 1.02914e-11 0.453547 0.0077852 0 0 0 0 0 0 0 0 0 0 0 0 0 0 0 0 0 0 0 0 0 0 0 0 0 0 0 0 0 0 0 0 0 0 0 0 0 0 0 0 0 0
0.0610839 2.50802e-11 1.37051e-11 1.1375e-11 0.453547 0.00860494 0 0 0 0 0 0 0 0 0 0 0 0 0 0 0 0 0 0 0 0 0 0 0 0 0 0 0 0 0 0 0 0 0 0 0 0 0 0 0 0 0 0
0.0642193 2.7721e-11 1.51482e-11 1.25728e-11 0.453547 0.009511 0 0 0 0 0 0 0 0 0 0 0 0 0 0 0 0 0 0 0 0 0 0 0 0 0 0 0 0 0 0 0 0 0 0 0 0 0 0 0 0 0 0
0.0675157 3.06399e-11 1.67433e-11 1.38966e-11 0.453547 0.0105125 0 0 0 0 0 0 0 0 0 0 0 0 0 0 0 0 0 0 0 0 0 0 0 0 0 0 0 0 0 0 0 0 0 0 0 0 0 0 0 0 0 0
0.0709813 3.38661e-11 1.85063e-11 1.53599e-11 0.453547 0.0116194 0 0 0 0 0 0 0 0 0 0 0 0 0 0 0 0 0 0 0 0 0 0 0 0 0 0 0 0 0 0 0 0 0 0 0 0 0 0 0 0 0 0
0.0746248 3.74321e-11 2.04549e-11 1.69772e-11 0.453547 0.0128428 0 0 0 0 0 0 0 0 0 0 0 0 0 0 0 0 0 0 0 0 0 0 0 0 0 0 0 0 0 0 0 0 0 0 0 0 0 0 0 0 0 0
0.0784553 4.13735e-11 2.26087e-11 1.87648e-11 0.453547 0.0141951 0 0 0 0 0 0 0 0 0 0 0 0 0 0 0 0 0 0 0 0 0 0 0 0 0 0 0 0 0 0 0 0 0 0 0 0 0 0 0 0 0 0
0.0824824 4.57299e-11 2.49892e-11 2.07406e-11 0.453547 0.0156898 0 0 0 0 0 0 0 0 0 0 0 0 0 0 0 0 0 0 0 0 0 0 0 0 0 0 0 0 0 0 0 0 0 0 0 0 0 0 0 0 0 0
0.0867162 5.05451e-11 2.76205e-11 2.29246e-11 0.453547 0.0173419 0 0 0 0 0 0 0 0 0 0 0 0 0 0 0 0 0 0 0 0 0 0 0 0 0 0 0 0 0 0 0 0 0 0 0 0 0 0 0 0 0 0
0.0911674 5.58672e-11 3.05288e-11 2.53384e-11 0.453547 0.0191679 0 0 0 0 0 0 0 0 0 0 0 0 0 0 0 0 0 0 0 0 0 0 0 0 0 0 0 0 0 0 0 0 0 0 0 0 0 0 0 0 0 0
0.095847 6.17498e-11 3.37434e-11 2.80064e-11 0.453547 0.0211862 0 0 0 0 0 0 0 0 0 0 0 0 0 0 0 0 0 0 0 0 0 0 0 0 0 0 0 0 0 0 0 0 0 0 0 0 0 0 0 0 0 0
0.100767 6.71069e-11 3.6749e-11 3.0358e-11 0.452382 0.0235692 0 0 0 0 0 0 0 0 0 0 0 0 0 0 0 0 0 0 0 0 0 0 0 0 0 0 0 0 0 0 0 0 0 0 0 0 0 0 0 0 0 0
0.105939 6.61017e-11 3.66219e-11 2.94798e-11 0.445976 0.0256046 0 0 0 0 0 0 0 0 0 0 0 0 0 0 0 0 0 0 0 0 0 0 0 0 0 0 0 0 0 0 0 0 0 0 0 0 0 0 0 0 0 0
0.111377 6.69686e-11 3.63501e-11 3.06185e-11 0.457207 0.0289403 0 0 0 0 0 0 0 0 0 0 0 0 0 0 0 0 0 0 0 0 0 0 0 0 0 0 0 0 0 0 0 0 0 0 0 0 0 0 0 0 0 0
0.117094 7.01102e-11 3.50906e-11 3.50196e-11 0.499494 0.0274507 0 0 0 0 0 0 0 0 0 0 0 0 0 0 0 0 0 0 0 0 0 0 0 0 0 0 0 0 0 0 0 0 0 0 0 0 0 0 0 0 0 0
0.123105 6.41616e-11 3.13136e-11 3.28481e-11 0.511958 0.0236555 0 0 0 0 0 0 0 0 0 0 0 0 0 0 0 0 0 0 0 0 0 0 0 0 0 0 0 0 0 0 0 0 0 0 0 0 0 0 0 0 0 0
0.129424 4.87833e-11 2.47801e-11 2.40031e-11 0.492036 0.0199126 0 0 0 0 0 0 0 0 0 0 0 0 0 0 0 0 0 0 0 0 0 0 0 0 0 0 0 0 0 0 0 0 0 0 0 0 0 0 0 0 0 0
0.136067 3.60705e-11 1.98564e-11 1.62141e-11 0.449513 0.0168557 0 0 0 0 0 0 0 0 0 0 0 0 0 0 0 0 0 0 0 0 0 0 0 0 0 0 0 0 0 0 0 0 0 0 0 0 0 0 0 0 0 0
0.143051 2.81611e-11 1.74386e-11 1.07225e-11 0.380755 0.0143876 0 0 0 0 0 0 0 0 0 0 0 0 0 0 0 0 0 0 0 0 0 0 0 0 0 0 0 0 0 0 0 0 0 0 0 0 0 0 0 0 0 0
0.150394 2.36606e-11 1.66809e-11 6.97974e-12 0.294994 0.0122986 0 0 0 0 0 0 0 0 0 0 0 0 0 0 0 0 0 0 0 0 0 0 0 0 0 0 0 0 0 0 0 0 0 0 0 0 0 0 0 0 0 0
0.158114 2.17033e-11 1.71089e-11 4.59441e-12 0.211692 0.01055 0 0 0 0 0 0 0 0 0 0 0 0 0 0 0 0 0 0 0 0 0 0 0 0 0 0 0 0 0 0 0 0 0 0 0 0 0 0 0 0 0 0
0.16623 2.18512e-11 1.85177e-11 3.33344e-12 0.152552 0.00908216 0 0 0 0 0 0 0 0 0 0 0 0 0 0 0 0 0 0 0 0 0 0 0 0 0 0 0 0 0 0 0 0 0 0 0 0 0 0 0 0 0 0
0.174762 2.35531e-11 2.06324e-11 2.92067e-12 0.124004 0.00782097 0 0 0 0 0 0 0 0 0 0 0 0 0 0 0 0 0 0 0 0 0 0 0 0 0 0 0 0 0 0 0 0 0 0 0 0 0 0 0 0 0 0
0.183733 2.67981e-11 2.36106e-11 3.18746e-12 0.118944 0.00667218 0 0 0 0 0 0 0 0 0 0 0 0 0 0 0 0 0 0 0 0 0 0 0 0 0 0 0 0 0 0 0 0 0 0 0 0 0 0 0 0 0 0
0.193164 3.26514e-11 2.82664e-11 4.38507e-12 0.134299 0.00556038 0 0 0 0 0 0 0 0 0 0 0 0 0 0 0 0 0 0 0 0 0 0 0 0 0 0 0 0 0 0 0 0 0 0 0 0 0 0 0 0 0 0
0.203079 4.1652e-11 3.49034e-11 6.74858e-12 0.162023 0.00446034 0 0 0 0 0 0 0 0 0 0 0 0 0 0 0 0 0 0 0 0 0 0 0 0 0 0 0 0 0 0 0 0 0 0 0 0 0 0 0 0 0 0
0.213503 5.27334e-11 4.25567e-11 1.01767e-11 0.192985 0.00342932 0 0 0 0 0 0 0 0 0 0 0 0 0 0 0 0 0 0 0 0 0 0 0 0 0 0 0 0 0 0 0 0 0 0 0 0 0 0 0 0 0 0
0.224463 6.1762e-11 4.81247e-11 1.36372e-11 0.220803 0.00254317 0 0 0 0 0 0 0 0 0 0 0 0 0 0 0 0 0 0 0 0 0 0 0 0 0 0 0 0 0 0 0 0 0 0 0 0 0 0 0 0 0 0
0.235984 6.33883e-11 4.81607e-11 1.52276e-11 0.240227 0.00182186 0 0 0 0 0 0 0 0 0 0 0 0 0 0 0 0 0 0 0 0 0 0 0 0 0 0 0 0 0 0 0 0 0 0 0 0 0 0 0 0 0 0
0.248097 5.67994e-11 4.26371e-11 1.41623e-11 0.249339 0.00138916 0 0 0 0 0 0 0 0 0 0 0 0 0 0 0 0 0 0 0 0 0 0 0 0 0 0 0 0 0 0 0 0 0 0 0 0 0 0 0 0 0 0
0.260832 4.62673e-11 3.48122e-11 1.14551e-11 0.247584 0.00141961 0 0 0 0 0 0 0 0 0 0 0 0 0 0 0 0 0 0 0 0 0 0 0 0 0 0 0 0 0 0 0 0 0 0 0 0 0 0 0 0 0 0
0.274221 3.6374e-11 2.78334e-11 8.54061e-12 0.2348 0.00187131 0 0 0 0 0 0 0 0 0 0 0 0 0 0 0 0 0 0 0 0 0 0 0 0 0 0 0 0 0 0 0 0 0 0 0 0 0 0 0 0 0 0
0.288297 2.85439e-11 2.23985e-11 6.14534e-12 0.215295 0.00251556 0 0 0 0 0 0 0 0 0 0 0 0 0 0 0 0 0 0 0 0 0 0 0 0 0 0 0 0 0 0 0 0 0 0 0 0 0 0 0 0 0 0
0.303095 2.24502e-11 1.80551e-11 4.39515e-12 0.195773 0.0028362 0 0 0 0 0 0 0 0 0 0 0 0 0 0 0 0 0 0 0 0 0 0 0 0 0 0 0 0 0 0 0 0 0 0 0 0 0 0 0 0 0 0
0.318653 1.80845e-11 1.48972e-11 3.18724e-12 0.176242 0.00297223 0 0 0 0 0 0 0 0 0 0 0 0 0 0 0 0 0 0 0 0 0 0 0 0 0 0 0 0 0 0 0 0 0 0 0 0 0 0 0 0 0 0
0.335009 1.52875e-11 1.29148e-11 2.37266e-12 0.155203 0.00293231 0 0 0 0 0 0 0 0 0 0 0 0 0 0 0 0 0 0 0 0 0 0 0 0 0 0 0 0 0 0 0 0 0 0 0 0 0 0 0 0 0 0
0.352205 1.35361e-11 1.17168e-11 1.8193e-12 0.134404 0.00278811 0 0 0 0 0 0 0 0 0 0 0 0 0 0 0 0 0 0 0 0 0 0 0 0 0 0 0 0 0 0 0 0 0 0 0 0 0 0 0 0 0 0
0.370284 1.23617e-11 1.09284e-11 1.43331e-12 0.115948 0.00261033 0 0 0 0 0 0 0 0 0 0 0 0 0 0 0 0 0 0 0 0 0 0 0 0 0 0 0 0 0 0 0 0 0 0 0 0 0 0 0 0 0 0
0.389291 1.14551e-11 1.03019e-11 1.15316e-12 0.100668 0.00243645 0 0 0 0 0 0 0 0 0 0 0 0 0 0 0 0 0 0 0 0 0 0 0 0 0 0 0 0 0 0 0 0 0 0 0 0 0 0 0 0 0 0
0.409273 1.06428e-11 9.70291e-12 9.39863e-13 0.08831 0.00226652 0 0 0 0 0 0 0 0 0 0 0 0 0 0 0 0 0 0 0 0 0 0 0 0 0 0 0 0 0 0 0 0 0 0 0 0 0 0 0 0 0 0
0.430281 9.85767e-12 9.08698e-12 7.70686e-13 0.0781814 0.00210471 0 0 0 0 0 0 0 0 0 0 0 0 0 0 0 0 0 0 0 0 0 0 0 0 0 0 0 0 0 0 0 0 0 0 0 0 0 0 0 0 0 0
0.452368 9.09161e-12 8.45879e-12 6.32824e-13 0.0696053 0.00193723 0 0 0 0 0 0 0 0 0 0 0 0 0 0 0 0 0 0 0 0 0 0 0 0 0 0 0 0 0 0 0 0 0 0 0 0 0 0 0 0 0 0
0.475588 8.36337e-12 7.84418e-12 5.19195e-13 0.0620796 0.00177642 0 0 0 0 0 0 0 0 0 0 0 0 0 0 0 0 0 0 0 0 0 0 0 0 0 0 0 0 0 0 0 0 0 0 0 0 0 0 0 0 0 0
0.5 7.69325e-12 7.26778e-12 4.25471e-13 0.0553044 0.00162159 0 0 0 0 0 0 0 0 0 0 0 0 0 0 0 0 0 0 0 0 0 0 0 0 0 0 0 0 0 0 0 0 0 0 0 0 0 0 0 0 0 0
0.525665 7.09352e-12 6.74507e-12 3.48446e-13 0.0491218 0.0014751 0 0 0 0 0 0 0 0 0 0 0 0 0 0 0 0 0 0 0 0 0 0 0 0 0 0 0 0 0 0 0 0 0 0 0 0 0 0 0 0 0 0
0.552648 6.56693e-12 6.28146e-12 2.85468e-13 0.0434705 0.00134175 0 0 0 0 0 0 0 0 0 0 0 0 0 0 0 0 0 0 0 0 0 0 0 0 0 0 0 0 0 0 0 0 0 0 0 0 0 0 0 0 0 0
0.581015 6.10901e-12 5.87487e-12 2.34144e-13 0.0383277 0.00121775 0 0 0 0 0 0 0 0 0 0 0 0 0 0 0 0 0 0 0 0 0 0 0 0 0 0 0 0 0 0 0 0 0 0 0 0 0 0 0 0 0 0
0.610839 5.71033e-12 5.51793e-12 1.924e-13 0.0336934 0.00110516 0 0 0 0 0 0 0 0 0 0 0 0 0 0 0 0 0 0 0 0 0 0 0 0 0 0 0 0 0 0 0 0 0 0 0 0 0 0 0 0 0 0
0.642193 5.36083e-12 5.20236e-12 1.58473e-13 0.0295613 0.00100302 0 0 0 0 0 0 0 0 0 0 0 0 0 0 0 0 0 0 0 0 0 0 0 0 0 0 0 0 0 0 0 0 0 0 0 0 0 0 0 0 0 0
0.675157 5.0499e-12 4.91906e-12 1.30844e-13 0.0259101 0.000910957 0 0 0 0 0 0 0 0 0 0 0 0 0 0 0 0 0 0 0 0 0 0 0 0 0 0 0 0 0 0 0 0 0 0 0 0 0 0 0 0 0 0
0.709813 4.76799e-12 4.6597e-12 1.08291e-13 0.0227122 0.00082817 0 0 0 0 0 0 0 0 0 0 0 0 0 0 0 0 0 0 0 0 0 0 0 0 0 0 0 0 0 0 0 0 0 0 0 0 0 0 0 0 0 0
0.746248 4.50725e-12 4.41742e-12 8.98307e-14 0.0199303 0.000754183 0 0 0 0 0 0 0 0 0 0 0 0 0 0 0 0 0 0 0 0 0 0 0 0 0 0 0 0 0 0 0 0 0 0 0 0 0 0 0 0 0 0
0.784553 4.26148e-12 4.18682e-12 7.46515e-14 0.0175177 0.000686995 0 0 0 0 0 0 0 0 0 0 0 0 0 0 0 0 0 0 0 0 0 0 0 0 0 0 0 0 0 0 0 0 0 0 0 0 0 0 0 0 0 0
0.824824 4.02628e-12 3.96415e-12 6.21322e-14 0.0154316 0.000626788 0 0 0 0 0 0 0 0 0 0 0 0 0 0 0 0 0 0 0 0 0 0 0 0 0 0 0 0 0 0 0 0 0 0 0 0 0 0 0 0 0 0
0.867162 3.79863e-12 3.74686e-12 5.17617e-14 0.0136264 0.000572518 0 0 0 0 0 0 0 0 0 0 0 0 0 0 0 0 0 0 0 0 0 0 0 0 0 0 0 0 0 0 0 0 0 0 0 0 0 0 0 0 0 0
0.911674 3.57698e-12 3.53383e-12 4.31492e-14 0.012063 0.000523427 0 0 0 0 0 0 0 0 0 0 0 0 0 0 0 0 0 0 0 0 0 0 0 0 0 0 0 0 0 0 0 0 0 0 0 0 0 0 0 0 0 0
0.95847 3.3606e-12 3.32463e-12 3.59772e-14 0.0107056 0.00047944 0 0 0 0 0 0 0 0 0 0 0 0 0 0 0 0 0 0 0 0 0 0 0 0 0 0 0 0 0 0 0 0 0 0 0 0 0 0 0 0 0 0
1.00767 3.15153e-12 3.12153e-12 2.99935e-14 0.00951712 0.0004395 0 0 0 0 0 0 0 0 0 0 0 0 0 0 0 0 0 0 0 0 0 0 0 0 0 0 0 0 0 0 0 0 0 0 0 0 0 0 0 0 0 0
1.05939 2.95212e-12 2.92713e-12 2.49958e-14 0.00846707 0.000403275 0 0 0 0 0 0 0 0 0 0 0 0 0 0 0 0 0 0 0 0 0 0 0 0 0 0 0 0 0 0 0 0 0 0 0 0 0 0 0 0 0 0
1.11377 2.74291e-12 2.7221e-12 2.08076e-14 0.00758595 0.000370298 0 0 0 0 0 0 0 0 0 0 0 0 0 0 0 0 0 0 0 0 0 0 0 0 0 0 0 0 0 0 0 0 0 0 0 0 0 0 0 0 0 0
1.17094 2.54865e-12 2.53133e-12 1.73169e-14 0.00679456 0.000339515 0 0 0 0 0 0 0 0 0 0 0 0 0 0 0 0 0 0 0 0 0 0 0 0 0 0 0 0 0 0 0 0 0 0 0 0 0 0 0 0 0 0
1.23105 2.36374e-12 2.34934e-12 1.43931e-14 0.00608911 0.000311294 0 0 0 0 0 0 0 0 0 0 0 0 0 0 0 0 0 0 0 0 0 0 0 0 0 0 0 0 0 0 0 0 0 0 0 0 0 0 0 0 0 0
1.29424 2.18603e-12 2.17407e-12 1.19531e-14 0.00546798 0.000285362 0 0 0 0 0 0 0 0 0 0 0 0 0 0 0 0 0 0 0 0 0 0 0 0 0 0 0 0 0 0 0 0 0 0 0 0 0 0 0 0 0 0
1.36067 2.01614e-12 2.00622e-12 9.91617e-15 0.0049184 0.000261742 0 0 0 0 0 0 0 0 0 0 0 0 0 0 0 0 0 0 0 0 0 0 0 0 0 0 0 0 0 0 0 0 0 0 0 0 0 0 0 0 0 0
1.43051 1.85615e-12 1.84793e-12 8.21601e-15 0.00442638 0.000240209 0 0 0 0 0 0 0 0 0 0 0 0 0 0 0 0 0 0 0 0 0 0 0 0 0 0 0 0 0 0 0 0 0 0 0 0 0 0 0 0 0 0
1.50394 1.70604e-12 1.69924e-12 6.80144e-15 0.00398668 0.000220279 0 0 0 0 0 0 0 0 0 0 0 0 0 0 0 0 0 0 0 0 0 0 0 0 0 0 0 0 0 0 0 0 0 0 0 0 0 0 0 0 0 0
1.58114 1.56574e-12 1.56012e-12 5.62544e-15 0.00359282 0.000201732 0 0 0 0 0 0 0 0 0 0 0 0 0 0 0 0 0 0 0 0 0 0 0 0 0 0 0 0 0 0 0 0 0 0 0 0 0 0 0 0 0 0
1.6623 1.43482e-12 1.43017e-12 4.64824e-15 0.00323961 0.000184534 0 0 0 0 0 0 0 0 0 0 0 0 0 0 0 0 0 0 0 0 0 0 0 0 0 0 0 0 0 0 0 0 0 0 0 0 0 0 0 0 0 0
1.74763 1.31326e-12 1.30942e-12 3.8376e-15 0.0029222 0.000169005 0 0 0 0 0 0 0 0 0 0 0 0 0 0 0 0 0 0 0 0 0 0 0 0 0 0 0 0 0 0 0 0 0 0 0 0 0 0 0 0 0 0
1.83733 1.20062e-12 1.19745e-12 3.16585e-15 0.00263685 0.000154804 0 0 0 0 0 0 0 0 0 0 0 0 0 0 0 0 0 0 0 0 0 0 0 0 0 0 0 0 0 0 0 0 0 0 0 0 0 0 0 0 0 0
1.93164 1.09658e-12 1.09398e-12 2.60951e-15 0.00237967 0.000141793 0 0 0 0 0 0 0 0 0 0 0 0 0 0 0 0 0 0 0 0 0 0 0 0 0 0 0 0 0 0 0 0 0 0 0 0 0 0 0 0 0 0
2.03079 1.00076e-12 9.98615e-13 2.14944e-15 0.0021478 0.000129725 0 0 0 0 0 0 0 0 0 0 0 0 0 0 0 0 0 0 0 0 0 0 0 0 0 0 0 0 0 0 0 0 0 0 0 0 0 0 0 0 0 0
2.13503 9.12736e-13 9.10966e-13 1.76964e-15 0.00193883 0.000118657 0 0 0 0 0 0 0 0 0 0 0 0 0 0 0 0 0 0 0 0 0 0 0 0 0 0 0 0 0 0 0 0 0 0 0 0 0 0 0 0 0 0
2.24463 8.31928e-13 8.30472e-13 1.45597e-15 0.00175011 0.000108569 0 0 0 0 0 0 0 0 0 0 0 0 0 0 0 0 0 0 0 0 0 0 0 0 0 0 0 0 0 0 0 0 0 0 0 0 0 0 0 0 0 0
2.35984 7.57918e-13 7.56721e-13 1.19738e-15 0.00157983 9.92926e-05 0 0 0 0 0 0 0 0 0 0 0 0 0 0 0 0 0 0 0 0 0 0 0 0 0 0 0 0 0 0 0 0 0 0 0 0 0 0 0 0 0 0
2.48097 6.90246e-13 6.89262e-13 9.84202e-16 0.00142587 9.07218e-05 0 0 0 0 0 0 0 0 0 0 0 0 0 0 0 0 0 0 0 0 0 0 0 0 0 0 0 0 0 0 0 0 0 0 0 0 0 0 0 0 0 0
2.60832 6.28453e-13 6.27644e-13 8.08652e-16 0.00128673 8.27967e-05 0 0 0 0 0 0 0 0 0 0 0 0 0 0 0 0 0 0 0 0 0 0 0 0 0 0 0 0 0 0 0 0 0 0 0 0 0 0 0 0 0 0
2.74221 5.72124e-13 5.7146e-13 6.64247e-16 0.00116102 7.55862e-05 0 0 0 0 0 0 0 0 0 0 0 0 0 0 0 0 0 0 0 0 0 0 0 0 0 0 0 0 0 0 0 0 0 0 0 0 0 0 0 0 0 0
2.88297 5.20737e-13 5.20191e-13 5.45314e-16 0.0010472 6.90729e-05 0 0 0 0 0 0 0 0 0 0 0 0 0 0 0 0 0 0 0 0 0 0 0 0 0 0 0 0 0 0 0 0 0 0 0 0 0 0 0 0 0 0
3.03095 4.7402e-13 4.73572e-13 4.47655e-16 0.000944381 6.31538e-05 0 0 0 0 0 0 0 0 0 0 0 0 0 0 0 0 0 0 0 0 0 0 0 0 0 0 0 0 0 0 0 0 0 0 0 0 0 0 0 0 0 0
3.18653 4.31512e-13 4.31145e-13 3.67318e-16 0.000851233 5.76567e-05 0 0 0 0 0 0 0 0 0 0 0 0 0 0 0 0 0 0 0 0 0 0 0 0 0 0 0 0 0 0 0 0 0 0 0 0 0 0 0 0 0 0
3.35009 3.92911e-13 3.92609e-13 3.01329e-16 0.000766916 5.2603e-05 0 0 0 0 0 0 0 0 0 0 0 0 0 0 0 0 0 0 0 0 0 0 0 0 0 0 0 0 0 0 0 0 0 0 0 0 0 0 0 0 0 0
3.52205 3.5778e-13 3.57533e-13 2.47161e-16 0.000690819 4.80102e-05 0 0 0 0 0 0 0 0 0 0 0 0 0 0 0 0 0 0 0 0 0 0 0 0 0 0 0 0 0 0 0 0 0 0 0 0 0 0 0 0 0 0
3.70284 3.25924e-13 3.25721e-13 2.02672e-16 0.000621838 4.38066e-05 0 0 0 0 0 0 0 0 0 0 0 0 0 0 0 0 0 0 0 0 0 0 0 0 0 0 0 0 0 0 0 0 0 0 0 0 0 0 0 0 0 0
3.89291 2.97004e-13 2.96837e-13 1.66162e-16 0.00055946 3.9926e-05 0 0 0 0 0 0 0 0 0 0 0 0 0 0 0 0 0 0 0 0 0 0 0 0 0 0 0 0 0 0 0 0 0 0 0 0 0 0 0 0 0 0
4.09273 2.70807e-13 2.70671e-13 1.36212e-16 0.000502985 3.62643e-05 0 0 0 0 0 0 0 0 0 0 0 0 0 0 0 0 0 0 0 0 0 0 0 0 0 0 0 0 0 0 0 0 0 0 0 0 0 0 0 0 0 0
4.30281 2.47044e-13 2.46933e-13 1.11652e-16 0.000451953 3.29535e-05 0 0 0 0 0 0 0 0 0 0 0 0 0 0 0 0 0 0 0 0 0 0 0 0 0 0 0 0 0 0 0 0 0 0 0 0 1.4013e-45 0 4.2039e-45 0 9.80909e-45 0
4.52368 2.25511e-13 2.2542e-13 9.15149e-17 0.000405811 2.99416e-05 0 0 0 0 0 0 0 0 0 0 0 0 0 0 0 0 0 0 0 0 0 0 0 0 0 0 0 0 1.4013e-45 0 5.60519e-45 0 1.68156e-44 0 4.90454e-44 0 1.4013e-43 0 3.68541e-43 0 9.19252e-43 0
4.75588 2.06012e-13 2.05937e-13 7.50044e-17 0.000364077 2.71796e-05 0 0 0 0 0 0 0 0 0 0 0 0 0 0 0 0 0 0 0 0 0 0 1.4013e-45 0 8.40779e-45 0 3.64338e-44 0 1.38729e-43 0 4.66632e-43 0 1.47417e-42 0 4.11001e-42 0 1.12048e-41 0 2.80862e-41 0 6.70367e-41 0
5 1.88346e-13 1.88285e-13 6.14599e-17 0.000326313 2.45398e-05 0 0 0 0 0 0 0 0 0 0 0 0 0 0 0 0 0 0 4.2039e-45 0 2.94273e-44 0 1.63952e-43 0 7.72115e-43 0 3.00999e-42 0 1.09105e-41 0 3.46289e-41 0 1.03452e-40 0 2.74285e-40 0 7.12081e-40 0 1.70654e-39 0 3.90381e-39 0
5.25665 1.7243e-13 1.7238e-13 5.03624e-17 0.000292075 2.21678e-05 0 0 0 0 0 0 0 0 0 0 0 0 0 0 4.2039e-45 0 5.1848e-44 0 4.11982e-43 0 2.4859e-42 0 1.26607e-41 0 5.51033e-41 0 2.00871e-40 0 6.83741e-40 0 2.05114e-39 0 5.80893e-39 0 1.46853e-38 0 3.639e-38 0 8.35672e-38 0 1.83595e-37 0
5.52648 1.5792e-13 1.57878e-13 4.12658e-17 0.000261309 2.00489e-05 0 0 0 0 0 0 0 0 0 0 1.4013e-45 0 2.94273e-44 0 4.24593e-43 0 4.17727e-42 0 2.97762e-41 0 1.64811e-40 0 7.75076e-40 0 3.1396e-39 0 1.07446e-38 0 3.44501e-38 0 9.79491e-38 0 2.6365e-37 0 6.37014e-37 0 1.5101e-36 0 3.32991e-36 0 7.03994e-36 0
5.81015 1.44881e-13 1.44847e-13 3.3811e-17 0.000233371 1.8115e-05 0 0 0 0 0 0 0 0 1.4013e-45 0 1.05097e-43 0 2.34157e-42 0 3.02484e-41 0 2.65958e-40 0 1.72266e-39 0 8.77073e-39 0 3.82443e-38 0 1.44689e-37 0 4.66296e-37 0 1.4124e-36 0 3.81603e-36 0 9.78686e-36 0 2.26495e-35 0 5.14771e-35 0 1.09213e-34 0 2.22605e-34 0
6.10839 1.33535e-13 1.33507e-13 2.77111e-17 0.00020752 1.63023e-05 0 0 0 0 0 0 1.4013e-45 0 1.87774e-43 0 7.89492e-42 0 1.51545e-40 0 1.72813e-39 0 1.36644e-38 0 8.07906e-38 0 3.79914e-37 0 1.54167e-36 0 5.4657e-36 0 1.66364e-35 0 4.77373e-35 0 1.22867e-34 0 3.00952e-34 0 6.68529e-34 0 1.45971e-33 0 2.98522e-33 0 5.87678e-33 0
6.42193 1.2193e-13 1.21907e-13 2.26454e-17 0.000185724 1.48144e-05 0 0 0 0 0 0 1.10703e-43 0 1.33684e-41 0 4.69478e-40 0 7.80087e-39 0 7.89893e-38 0 5.64595e-37 0 3.06075e-36 0 1.33453e-35 0 5.05747e-35 0 1.68559e-34 0 4.85917e-34 0 1.32437e-33 0 3.25492e-33 0 7.63143e-33 0 1.63044e-32 0 3.42684e-32 0 6.76759e-32 0 1.28894e-31 0
6.75157 1.12717e-13 1.12699e-13 1.85747e-17 0.00016479 1.32279e-05 0 0 0 0 9.80909e-45 0 8.08269e-42 0 7.71413e-40 0 2.27702e-38 0 3.29839e-37 0 2.9829e-36 0 1.93688e-35 0 9.66837e-35 0 3.9231e-34 0 1.39311e-33 0 4.37802e-33 0 1.1985e-32 0 3.11047e-32 0 7.31627e-32 0 1.64546e-31 0 3.38758e-31 0 6.86638e-31 0 1.31171e-30 0 2.4209e-30 0
7.09813 1.03982e-13 1.03967e-13 1.52168e-17 0.000146341 1.18448e-05 0 2.8026e-45 0 0 7.45491e-43 0 4.69417e-40 0 3.58609e-38 0 8.97275e-37 0 1.14072e-35 0 9.26456e-35 0 5.49062e-34 0 2.53384e-33 0 9.60191e-33 0 3.20511e-32 0 9.52479e-32 0 2.48235e-31 0 6.14932e-31 0 1.38725e-30 0 2.99893e-30 0 5.96016e-30 0 1.16712e-29 0 2.16023e-29 0 3.86942e-29 0
7.46248 9.66876e-14 9.66751e-14 1.24643e-17 0.000128913 1.05694e-05 0 1.20512e-43 0 0 4.82635e-41 0 2.21745e-38 0 1.37081e-36 0 2.93097e-35 0 3.29118e-34 0 2.41315e-33 0 1.31114e-32 0 5.6154e-32 0 1.99393e-31 0 6.27534e-31 0 1.7683e-30 0 4.39796e-30 0 1.04227e-29 0 2.25974e-29 0 4.7046e-29 0 9.0417e-29 0 1.71339e-28 0 3.07743e-28 0 5.35764e-28 0
7.84553 8.97338e-14 8.97236e-14 1.02093e-17 0.000113774 9.34187e-06 0 4.86811e-42 4.48416e-44 0 2.50309e-39 0 8.52566e-37 0 4.30926e-35 0 7.93411e-34 0 7.91694e-33 0 5.26678e-32 0 2.63464e-31 0 1.05102e-30 0 3.50808e-30 0 1.04396e-29 0 2.79664e-29 0 6.65294e-29 0 1.51163e-28 0 3.15584e-28 0 6.33915e-28 0 1.18007e-27 0 2.1675e-27 0 3.78332e-27 0 6.41065e-27 0
8.24824 8.23126e-14 8.23043e-14 8.36197e-18 0.000101588 8.19911e-06 0 1.64553e-40 3.17114e-42 0 1.04145e-37 0 2.66844e-35 0 1.11366e-33 0 1.77861e-32 0 1.58621e-31 0 9.61981e-31 0 4.44843e-30 0 1.65866e-29 0 5.21986e-29 0 1.47283e-28 0 3.76018e-28 0 8.5745e-28 0 1.87172e-27 0 3.76965e-27 0 7.31859e-27 0 1.32168e-26 0 2.35661e-26 0 4.00303e-26 0 6.61053e-26 0
8.67162 7.63989e-14 7.6392e-14 6.8489e-18 8.96466e-05 7.20916e-06 2.8026e-45 4.80823e-39 1.8188e-40 0 3.59519e-36 0 7.02653e-34 0 2.44408e-32 0 3.40952e-31 0 2.73261e-30 0 1.51762e-29 0 6.51229e-29 0 2.27708e-28 0 6.77597e-28 0 1.81748e-27 0 4.43253e-27 0 9.70897e-27 0 2.0401e-26 0 3.97069e-26 0 7.4632e-26 0 1.30945e-25 0 2.26981e-25 0 3.75713e-25 0 6.05436e-25 0
9.11674 7.06563e-14 7.06507e-14 5.60946e-18 7.93908e-05 6.32492e-06 2.2701e-43 1.20333e-37 8.39597e-39 0 1.02391e-34 0 1.54677e-32 0 4.52422e-31 0 5.5493e-30 0 4.01782e-29 0 2.05222e-28 0 8.2018e-28 0 2.69781e-27 0 7.61169e-27 0 1.94562e-26 0 4.54293e-26 0 9.57706e-26 0 1.94073e-25 0 3.65646e-25 0 6.66406e-25 0 1.13758e-24 0 1.91963e-24 0 3.10027e-24 0 4.88083e-24 0
9.5847 6.57532e-14 6.57486e-14 4.59405e-18 6.98681e-05 5.52644e-06 1.43703e-41 2.62015e-36 3.18302e-37 0 2.45204e-33 0 2.8993e-31 0 7.19168e-30 0 7.80495e-29 0 5.13034e-28 0 2.41992e-27 0 9.03877e-27 0 2.8052e-26 0 7.52385e-26 0 1.83703e-25 0 4.11543e-25 0 8.3656e-25 0 1.63778e-24 0 2.9917e-24 0 5.29503e-24 0 8.8059e-24 0 1.44848e-23 0 2.28524e-23 0 3.51886e-23 0
10.0767 6.1369e-14 6.13652e-14 3.76285e-18 6.13151e-05 4.78203e-06 7.34053e-40 4.97539e-35 9.97605e-36 0 4.96458e-32 0 4.64995e-30 0 9.86048e-29 0 9.5253e-28 0 5.71121e-27 0 2.49742e-26 0 8.74697e-26 0 2.56861e-25 0 6.5653e-25 0 1.53463e-24 0 3.3052e-24 0 6.48991e-24 0 1.22956e-23 0 2.18092e-23 0 3.75391e-23 0 6.08981e-23 0 9.77667e-23 0 1.50848e-22 0 2.27436e-22 0
