# 0.00010593 1 139 : grain size, compostion index, size index
# Heating and cooling timescale: 0.0002215 8.01087e+08
# Ratio of heating to cooling to determine stochastic cutoff: 100
# Equilibrium emission is recorded even for those grains in the stochastic regime.
# Emission spectrum was computed for: 
# Type: IRSF
# Scales: 0.25 0.5 1 1.5 2 2.5 3 3.5 4 4.5 5 5.5 6 6.5 7 7.5 8 8.5 9 9.5 10
# StochasticallyHeated: 0 0 0 0 0 0 0 0 0 0 0 0 0 0 0 0 0 0 0 0 0
# Temperature: -1
# Wavelength  CExt  CAbs  CSca  Albedo G EqEm1 StEm1 EqEm2 StEm2 EqEm3 StEm3 EqEm4 StEm4 EqEm5 StEm5 EqEm6 StEm6 EqEm7 StEm7 EqEm8 StEm8 EqEm9 StEm9 EqEm10 StEm10 EqEm11 StEm11 EqEm12 StEm12 EqEm13 StEm13 EqEm14 StEm14 EqEm15 StEm15 EqEm16 StEm16 EqEm17 StEm17 EqEm18 StEm18 EqEm19 StEm19 EqEm20 StEm20 EqEm21 StEm21
0.05 1.85238e-08 8.24225e-09 1.02815e-08 0.555045 0.214852 0 0 0 0 0 0 0 0 0 0 0 0 0 0 0 0 0 0 0 0 0 0 0 0 0 0 0 0 0 0 0 0 0 0 0 0 0 0 0 0 0 0
0.0525665 2.04742e-08 9.11012e-09 1.13641e-08 0.555045 0.237475 0 0 0 0 0 0 0 0 0 0 0 0 0 0 0 0 0 0 0 0 0 0 0 0 0 0 0 0 0 0 0 0 0 0 0 0 0 0 0 0 0 0
0.0552647 2.26301e-08 1.00694e-08 1.25607e-08 0.555045 0.26248 0 0 0 0 0 0 0 0 0 0 0 0 0 0 0 0 0 0 0 0 0 0 0 0 0 0 0 0 0 0 0 0 0 0 0 0 0 0 0 0 0 0
0.0581015 2.50129e-08 1.11296e-08 1.38833e-08 0.555045 0.290118 0 0 0 0 0 0 0 0 0 0 0 0 0 0 0 0 0 0 0 0 0 0 0 0 0 0 0 0 0 0 0 0 0 0 0 0 0 0 0 0 0 0
0.0610839 2.76466e-08 1.23015e-08 1.53451e-08 0.555045 0.320666 0 0 0 0 0 0 0 0 0 0 0 0 0 0 0 0 0 0 0 0 0 0 0 0 0 0 0 0 0 0 0 0 0 0 0 0 0 0 0 0 0 0
0.0642193 3.05577e-08 1.35968e-08 1.69609e-08 0.555045 0.35443 0 0 0 0 0 0 0 0 0 0 0 0 0 0 0 0 0 0 0 0 0 0 0 0 0 0 0 0 0 0 0 0 0 0 0 0 0 0 0 0 0 0
0.0675157 3.37753e-08 1.50285e-08 1.87468e-08 0.555045 0.39175 0 0 0 0 0 0 0 0 0 0 0 0 0 0 0 0 0 0 0 0 0 0 0 0 0 0 0 0 0 0 0 0 0 0 0 0 0 0 0 0 0 0
0.0709813 3.73316e-08 1.66109e-08 2.07207e-08 0.555045 0.432999 0 0 0 0 0 0 0 0 0 0 0 0 0 0 0 0 0 0 0 0 0 0 0 0 0 0 0 0 0 0 0 0 0 0 0 0 0 0 0 0 0 0
0.0746248 4.12625e-08 1.836e-08 2.29025e-08 0.555045 0.478592 0 0 0 0 0 0 0 0 0 0 0 0 0 0 0 0 0 0 0 0 0 0 0 0 0 0 0 0 0 0 0 0 0 0 0 0 0 0 0 0 0 0
0.0784553 4.56072e-08 2.02932e-08 2.5314e-08 0.555045 0.528985 0 0 0 0 0 0 0 0 0 0 0 0 0 0 0 0 0 0 0 0 0 0 0 0 0 0 0 0 0 0 0 0 0 0 0 0 0 0 0 0 0 0
0.0824824 5.04094e-08 2.24299e-08 2.79795e-08 0.555045 0.584685 0 0 0 0 0 0 0 0 0 0 0 0 0 0 0 0 0 0 0 0 0 0 0 0 0 0 0 0 0 0 0 0 0 0 0 0 0 0 0 0 0 0
0.0867162 5.57173e-08 2.47917e-08 3.09256e-08 0.555045 0.64625 0 0 0 0 0 0 0 0 0 0 0 0 0 0 0 0 0 0 0 0 0 0 0 0 0 0 0 0 0 0 0 0 0 0 0 0 0 0 0 0 0 0
0.0911674 6.15841e-08 2.74022e-08 3.41819e-08 0.555045 0.714297 0 0 0 0 0 0 0 0 0 0 0 0 0 0 0 0 0 0 0 0 0 0 0 0 0 0 0 0 0 0 0 0 0 0 0 0 0 0 0 0 0 0
0.095847 6.80686e-08 3.02875e-08 3.77811e-08 0.555045 0.789509 0 0 0 0 0 0 0 0 0 0 0 0 0 0 0 0 0 0 0 0 0 0 0 0 0 0 0 0 0 0 0 0 0 0 0 0 0 0 0 0 0 0
0.100767 7.41203e-08 3.29853e-08 4.1135e-08 0.554976 0.859425 0 0 0 0 0 0 0 0 0 0 0 0 0 0 0 0 0 0 0 0 0 0 0 0 0 0 0 0 0 0 0 0 0 0 0 0 0 0 0 0 0 0
0.105939 7.42875e-08 3.30946e-08 4.11929e-08 0.554507 0.86301 0 0 0 0 0 0 0 0 0 0 0 0 0 0 0 0 0 0 0 0 0 0 0 0 0 0 0 0 0 0 0 0 0 0 0 0 0 0 0 0 0 0
0.111377 7.44549e-08 3.32221e-08 4.12328e-08 0.553795 0.867669 0 0 0 0 0 0 0 0 0 0 0 0 0 0 0 0 0 0 0 0 0 0 0 0 0 0 0 0 0 0 0 0 0 0 0 0 0 0 0 0 0 0
0.117094 7.46235e-08 3.3345e-08 4.12785e-08 0.553157 0.870578 0 0 0 0 0 0 0 0 0 0 0 0 0 0 0 0 0 0 0 0 0 0 0 0 0 0 0 0 0 0 0 0 0 0 0 0 0 0 0 0 0 0
0.123105 7.47932e-08 3.35071e-08 4.12862e-08 0.552004 0.872329 0 0 0 0 0 0 0 0 0 0 0 0 0 0 0 0 0 0 0 0 0 0 0 0 0 0 0 0 0 0 0 0 0 0 0 0 0 0 0 0 0 0
0.129424 7.49563e-08 3.36869e-08 4.12694e-08 0.55058 0.87307 0 0 0 0 0 0 0 0 0 0 0 0 0 0 0 0 0 0 0 0 0 0 0 0 0 0 0 0 0 0 0 0 0 0 0 0 0 0 0 0 0 0
0.136067 7.51303e-08 3.38202e-08 4.13101e-08 0.549846 0.872624 0 0 0 0 0 0 0 0 0 0 0 0 0 0 0 0 0 0 0 0 0 0 0 0 0 0 0 0 0 0 0 0 0 0 0 0 0 0 0 0 0 0
0.143051 7.53056e-08 3.40247e-08 4.1281e-08 0.548179 0.870189 0 0 0 0 0 0 0 0 0 0 0 0 0 0 0 0 0 0 0 0 0 0 0 0 0 0 0 0 0 0 0 0 0 0 0 0 0 0 0 0 0 0
0.150394 7.54963e-08 3.43321e-08 4.11642e-08 0.545248 0.871072 0 0 0 0 0 0 0 0 0 0 0 0 0 0 0 0 0 0 0 0 0 0 0 0 0 0 0 0 0 0 0 0 0 0 0 0 0 0 0 0 0 0
0.158114 7.57198e-08 3.47284e-08 4.09914e-08 0.541357 0.876959 0 0 0 0 0 0 0 0 0 0 0 0 0 0 0 0 0 0 0 0 0 0 0 0 0 0 0 0 0 0 0 0 0 0 0 0 0 0 0 0 0 0
0.16623 7.59825e-08 3.51511e-08 4.08314e-08 0.537379 0.88427 0 0 0 0 0 0 0 0 0 0 0 0 0 0 0 0 0 0 0 0 0 0 0 0 0 0 0 0 0 0 0 0 0 0 0 0 0 0 0 0 0 0
0.174762 7.62505e-08 3.55435e-08 4.0707e-08 0.533859 0.890902 0 0 0 0 0 0 0 0 0 0 0 0 0 0 0 0 0 0 0 0 0 0 0 0 0 0 0 0 0 0 0 0 0 0 0 0 0 0 0 0 0 0
0.183733 7.65207e-08 3.57072e-08 4.08136e-08 0.533366 0.896794 0 0 0 0 0 0 0 0 0 0 0 0 0 0 0 0 0 0 0 0 0 0 0 0 0 0 0 0 0 0 0 0 0 0 0 0 0 0 0 0 0 0
0.193164 7.7335e-08 3.50317e-08 4.23034e-08 0.547014 0.901564 0 0 0 0 0 0 0 0 0 0 0 0 0 0 0 0 0 0 0 0 0 0 0 0 0 0 0 0 0 0 0 0 0 0 0 0 0 0 0 0 0 0
0.203079 7.7482e-08 3.52023e-08 4.22797e-08 0.545671 0.904387 0 0 0 0 0 0 0 0 0 0 0 0 0 0 0 0 0 0 0 0 0 0 0 0 0 0 0 0 0 0 0 0 0 0 0 0 0 0 0 0 0 0
0.213503 7.73319e-08 3.56257e-08 4.17061e-08 0.539314 0.903683 0 0 0 0 0 0 0 0 0 0 0 0 0 0 0 0 0 0 0 0 0 0 0 0 0 0 0 0 0 0 0 0 0 0 0 0 0 0 0 0 0 0
0.224463 7.72293e-08 3.59356e-08 4.12937e-08 0.53469 0.898147 0 0 0 0 0 0 0 0 0 0 0 0 0 0 0 0 0 0 0 0 0 0 0 0 0 0 0 0 0 0 0 0 0 0 0 0 0 0 0 0 0 0
0.235984 7.71662e-08 3.6254e-08 4.09122e-08 0.530183 0.900018 0 0 0 0 0 0 0 0 0 0 0 0 0 0 0 0 0 0 0 0 0 0 0 0 0 0 0 0 0 0 0 0 0 0 0 0 0 0 0 0 0 0
0.248097 7.7172e-08 3.65455e-08 4.06266e-08 0.526441 0.898461 0 0 0 0 0 0 0 0 0 0 0 0 0 0 0 0 0 0 0 0 0 0 0 0 0 0 0 0 0 0 0 0 0 0 0 0 0 0 0 0 0 0
0.260832 7.72755e-08 3.68134e-08 4.04621e-08 0.523608 0.899867 0 0 0 0 0 0 0 0 0 0 0 0 0 0 0 0 0 0 0 0 0 0 0 0 0 0 0 0 0 0 0 0 0 0 0 0 0 0 0 0 0 0
0.274221 7.74455e-08 3.70556e-08 4.03899e-08 0.521527 0.896127 0 0 0 0 0 0 0 0 0 0 0 0 0 0 0 0 0 0 0 0 0 0 0 0 0 0 0 0 0 0 0 0 0 0 0 0 0 0 0 0 0 0
0.288297 7.767e-08 3.72761e-08 4.03939e-08 0.520071 0.895353 0 0 0 0 0 0 0 0 0 0 0 0 0 0 0 0 0 0 0 0 0 0 0 0 0 0 0 0 0 0 0 0 0 0 0 0 0 0 0 0 0 0
0.303095 7.79354e-08 3.74865e-08 4.04489e-08 0.519005 0.894109 0 0 0 0 0 0 0 0 0 0 0 0 0 0 0 0 0 0 0 0 0 0 0 0 0 0 0 0 0 0 0 0 0 0 0 0 0 0 0 0 0 0
0.318653 7.82382e-08 3.76898e-08 4.05484e-08 0.518268 0.890713 0 0 0 0 0 0 0 0 0 0 0 0 0 0 0 0 0 0 0 0 0 0 0 0 0 0 0 0 0 0 0 0 0 0 0 0 0 0 0 0 0 0
0.335009 7.85724e-08 3.7891e-08 4.06814e-08 0.517756 0.885514 0 0 0 0 0 0 0 0 0 0 0 0 0 0 0 0 0 0 0 0 0 0 0 0 0 0 0 0 0 0 0 0 0 0 0 0 0 0 0 0 0 0
0.352205 7.89327e-08 3.80942e-08 4.08385e-08 0.517384 0.881494 0 0 0 0 0 0 0 0 0 0 0 0 0 0 0 0 0 0 0 0 0 0 0 0 0 0 0 0 0 0 0 0 0 0 0 0 0 0 0 0 0 0
0.370284 7.93169e-08 3.82999e-08 4.1017e-08 0.517128 0.87913 0 0 0 0 0 0 0 0 0 0 0 0 0 0 0 0 0 0 0 0 0 0 0 0 0 0 0 0 0 0 0 0 0 0 0 0 0 0 0 0 0 0
0.389291 7.97246e-08 3.85115e-08 4.12131e-08 0.516944 0.879037 0 0 0 0 0 0 0 0 0 0 0 0 0 0 0 0 0 0 0 0 0 0 0 0 0 0 0 0 0 0 0 0 0 0 0 0 0 0 0 0 0 0
0.409273 8.0165e-08 3.87166e-08 4.14484e-08 0.517039 0.875087 0 0 0 0 0 0 0 0 0 0 0 0 0 0 0 0 0 0 0 0 0 0 0 0 0 0 0 0 0 0 0 0 0 0 0 0 0 0 0 0 0 0
0.430281 8.08068e-08 3.88777e-08 4.19291e-08 0.518881 0.865435 0 0 0 0 0 0 0 0 0 0 0 0 0 0 0 0 0 0 0 0 0 0 0 0 0 0 0 0 0 0 0 0 0 0 0 0 0 0 0 0 0 0
0.452368 8.24e-08 3.90131e-08 4.3387e-08 0.526541 0.8561 0 0 0 0 0 0 0 0 0 0 0 0 0 0 0 0 0 0 0 0 0 0 0 0 0 0 0 0 0 0 0 0 0 0 0 0 0 0 0 0 0 0
0.475588 8.46184e-08 3.91169e-08 4.55014e-08 0.537725 0.850941 0 0 0 0 0 0 0 0 0 0 0 0 0 0 0 0 0 0 0 0 0 0 0 0 0 0 0 0 0 0 0 0 0 0 0 0 0 0 0 0 0 0
0.5 8.63259e-08 3.92743e-08 4.70517e-08 0.545047 0.850537 0 0 0 0 0 0 0 0 0 0 0 0 0 0 0 0 0 0 0 0 0 0 0 0 0 0 0 0 0 0 0 0 0 0 0 0 0 0 0 0 0 0
0.525665 8.67917e-08 3.93471e-08 4.74447e-08 0.546649 0.847971 0 0 0 0 0 0 0 0 0 0 0 0 0 0 0 0 0 0 0 0 0 0 0 0 0 0 0 0 0 0 0 0 0 0 0 0 0 0 0 0 0 0
0.552648 8.61259e-08 3.94768e-08 4.66491e-08 0.541638 0.837468 0 0 0 0 0 0 0 0 0 0 0 0 0 0 0 0 0 0 0 0 0 0 0 0 0 0 0 0 0 0 0 0 0 0 0 0 0 0 0 0 0 0
0.581015 8.50461e-08 3.95255e-08 4.55206e-08 0.535247 0.822303 0 0 0 0 0 0 0 0 0 0 0 0 0 0 0 0 0 0 0 0 0 0 0 0 0 0 0 0 0 0 0 0 0 0 0 0 0 0 0 0 0 0
0.610839 8.43888e-08 3.96333e-08 4.47555e-08 0.530349 0.801857 0 0 0 0 0 0 0 0 0 0 0 0 0 0 0 0 0 0 0 0 0 0 0 0 0 0 0 0 0 0 0 0 0 0 0 0 0 0 0 0 0 0
0.642193 8.45664e-08 3.95438e-08 4.50226e-08 0.532394 0.794836 0 0 0 0 0 0 0 0 0 0 0 0 0 0 0 0 0 0 0 0 0 0 0 0 0 0 0 0 0 0 0 0 0 0 0 0 0 0 0 0 0 0
0.675157 8.58495e-08 3.95498e-08 4.62997e-08 0.539313 0.792076 0 0 0 0 0 0 0 0 0 0 0 0 0 0 0 0 0 0 0 0 0 0 0 0 0 0 0 0 0 0 0 0 0 0 0 0 0 0 0 0 0 0
0.709813 8.7668e-08 3.96256e-08 4.80425e-08 0.548004 0.806327 0 0 0 0 0 0 0 0 0 0 0 0 0 0 0 0 0 0 0 0 0 0 0 0 0 0 0 0 0 0 0 0 0 0 0 0 0 0 0 0 0 0
0.746248 8.91497e-08 3.92911e-08 4.98586e-08 0.559268 0.814742 0 0 0 0 0 0 0 0 0 0 0 0 0 0 0 0 0 0 0 0 0 0 0 0 0 0 0 0 0 0 0 0 0 0 0 0 0 0 0 0 0 0
0.784553 9.00755e-08 3.92124e-08 5.08631e-08 0.564672 0.835635 0 0 0 0 0 0 0 0 0 0 0 0 0 0 0 0 0 0 0 0 0 0 0 0 0 0 0 0 0 0 0 0 0 0 0 0 0 0 0 0 0 0
0.824824 9.00662e-08 3.90498e-08 5.10164e-08 0.566432 0.822401 0 0 0 0 0 0 0 0 0 0 0 0 0 0 0 0 0 0 0 0 0 0 0 0 0 0 0 0 0 0 0 0 0 0 0 0 0 0 0 0 0 0
0.867162 8.908e-08 3.84816e-08 5.05985e-08 0.568011 0.830223 0 0 0 0 0 0 0 0 0 0 0 0 0 0 0 0 0 0 0 0 0 0 0 0 0 0 0 0 0 0 0 0 0 0 0 0 0 0 0 0 0 0
0.911674 8.78917e-08 3.83889e-08 4.95028e-08 0.563225 0.78807 0 0 0 0 0 0 0 0 0 0 0 0 0 0 0 0 0 0 0 0 0 0 0 0 0 0 0 0 0 0 0 0 0 0 0 0 0 0 0 0 0 0
0.95847 8.63693e-08 3.77546e-08 4.86147e-08 0.56287 0.764283 0 0 0 0 0 0 0 0 0 0 0 0 0 0 0 0 0 0 0 0 0 0 0 0 0 0 0 0 0 0 0 0 0 0 0 0 0 0 0 0 0 0
1.00767 8.63699e-08 3.73601e-08 4.90098e-08 0.56744 0.708346 0 0 0 0 0 0 0 0 0 0 0 0 0 0 0 0 0 0 0 0 0 0 0 0 0 0 0 0 0 0 0 0 0 0 0 0 0 0 0 0 0 0
1.05939 8.65633e-08 3.68705e-08 4.96928e-08 0.574063 0.64053 0 0 0 0 0 0 0 0 0 0 0 0 0 0 0 0 0 0 0 0 0 0 0 0 0 0 0 0 0 0 0 0 0 0 0 0 0 0 0 0 0 0
1.11377 8.96226e-08 3.69277e-08 5.26949e-08 0.587965 0.594573 0 0 0 0 0 0 0 0 0 0 0 0 0 0 0 0 0 0 0 0 0 0 0 0 0 0 0 0 0 0 0 0 0 0 0 0 0 0 0 0 0 0
1.17094 9.27001e-08 3.69183e-08 5.57818e-08 0.601744 0.542167 0 0 0 0 0 0 0 0 0 0 0 0 0 0 0 0 0 0 0 0 0 0 0 0 0 0 0 0 0 0 0 0 0 0 0 0 0 0 0 0 0 0
1.23105 9.73262e-08 3.63855e-08 6.09407e-08 0.626149 0.496017 0 0 0 0 0 0 0 0 0 0 0 0 0 0 0 0 0 0 0 0 0 0 0 0 0 0 0 0 0 0 0 0 0 0 0 0 0 0 0 0 0 0
1.29424 1.03108e-07 3.64156e-08 6.66922e-08 0.64682 0.521441 0 0 0 0 0 0 0 0 0 0 0 0 0 0 0 0 0 0 0 0 0 0 0 0 0 0 0 0 0 0 0 0 0 0 0 0 0 0 0 0 0 0
1.36067 1.07576e-07 3.62038e-08 7.13725e-08 0.663459 0.511662 0 0 0 0 0 0 0 0 0 0 0 0 0 0 0 0 0 0 0 0 0 0 0 0 0 0 0 0 0 0 0 0 0 0 0 0 0 0 0 0 0 0
1.43051 1.13429e-07 3.58029e-08 7.7626e-08 0.684358 0.548651 0 0 0 0 0 0 0 0 0 0 0 0 0 0 0 0 0 0 0 0 0 0 0 0 0 0 0 0 0 0 0 0 0 0 0 0 0 0 0 0 0 0
1.50394 1.18914e-07 3.55382e-08 8.33759e-08 0.701144 0.594467 0 0 0 0 0 0 0 0 0 0 0 0 0 0 0 0 0 0 0 0 0 0 0 0 0 0 0 0 0 0 0 0 0 0 0 0 0 0 0 0 0 0
1.58114 1.22878e-07 3.51198e-08 8.77583e-08 0.71419 0.6067 0 0 0 0 0 0 0 0 0 0 0 0 0 0 0 0 0 0 0 0 0 0 0 0 0 0 0 0 0 0 0 0 0 0 0 0 0 0 0 0 0 0
1.6623 1.2576e-07 3.46539e-08 9.11063e-08 0.724445 0.631601 0 0 0 0 0 0 0 0 0 0 0 0 0 0 0 0 0 0 0 0 0 0 0 0 0 0 0 0 0 0 0 0 0 0 0 0 0 0 0 0 0 0
1.74763 1.27476e-07 3.40725e-08 9.34035e-08 0.732715 0.655877 0 0 0 0 0 0 0 0 0 0 0 0 0 0 0 0 0 0 0 0 0 0 0 0 0 0 0 0 0 0 0 0 0 0 0 0 0 0 0 0 0 0
1.83733 1.28137e-07 3.37001e-08 9.44368e-08 0.736999 0.668242 0 0 0 0 0 0 0 0 0 0 0 0 0 0 0 0 0 0 0 0 0 0 0 0 0 0 0 0 0 0 0 0 0 0 0 0 0 0 0 0 0 0
1.93164 1.28038e-07 3.38798e-08 9.41579e-08 0.735392 0.68258 0 0 0 0 0 0 0 0 0 0 0 0 0 0 0 0 0 0 0 0 0 0 0 0 0 0 0 0 0 0 0 0 0 0 0 0 0 0 0 0 0 0
2.03079 1.26298e-07 3.40512e-08 9.22468e-08 0.73039 0.690407 0 0 0 0 0 0 0 0 0 0 0 0 0 0 0 0 0 0 0 0 0 0 0 0 0 0 0 0 0 0 0 0 0 0 0 0 0 0 0 0 0 0
2.13503 1.22687e-07 3.36337e-08 8.90529e-08 0.725857 0.685207 0 0 0 0 0 0 0 0 0 0 0 0 0 0 0 0 0 0 0 0 0 0 0 0 0 0 0 0 0 0 0 0 0 0 0 0 0 0 0 0 0 0
2.24463 1.18453e-07 3.29436e-08 8.55091e-08 0.721884 0.680121 0 0 0 0 0 0 0 0 0 0 0 0 0 0 0 0 0 0 0 0 0 0 0 0 0 0 0 0 0 0 0 0 0 0 0 0 0 0 0 0 0 0
2.35984 1.14565e-07 3.26449e-08 8.19204e-08 0.715054 0.679575 0 0 0 0 0 0 0 0 0 0 0 0 0 0 0 0 0 0 0 0 0 0 0 0 0 0 0 0 0 0 0 0 0 0 0 0 0 0 0 0 0 0
2.48097 1.10676e-07 3.28966e-08 7.77791e-08 0.702766 0.688231 0 0 0 0 0 0 0 0 0 0 0 0 0 0 0 0 0 0 0 0 0 0 0 0 0 0 0 0 0 0 0 0 0 0 0 0 0 0 0 0 0 0
2.60832 1.05957e-07 3.32572e-08 7.26999e-08 0.686126 0.693252 0 0 0 0 0 0 0 0 0 0 0 0 0 0 0 0 0 0 0 0 0 0 0 0 0 0 0 0 0 0 0 0 0 0 0 0 0 0 0 0 0 0
2.74221 1.00189e-07 3.32702e-08 6.69186e-08 0.667925 0.684076 0 0 0 0 0 0 0 0 0 0 0 0 0 0 0 0 0 0 0 0 0 0 0 0 0 0 0 0 0 0 0 0 0 0 0 0 0 0 0 0 0 0
2.88297 9.41308e-08 3.29196e-08 6.12112e-08 0.650278 0.661698 0 0 0 0 0 0 0 0 0 0 0 0 0 0 0 0 0 0 0 0 0 0 0 0 0 0 0 0 0 0 0 0 0 0 0 0 0 0 0 0 0 0
3.03095 8.86774e-08 3.25375e-08 5.61399e-08 0.63308 0.632696 0 0 0 0 0 0 0 0 0 0 0 0 0 0 0 0 0 0 0 0 0 0 0 0 0 0 0 0 0 0 0 0 0 0 0 0 0 0 0 0 0 0
3.18653 8.40714e-08 3.21758e-08 5.18957e-08 0.617281 0.60687 0 0 0 0 0 0 0 0 0 0 0 0 0 0 0 0 0 0 0 0 0 0 0 0 0 0 0 0 0 0 0 0 0 0 0 0 0 0 0 0 0 0
3.35009 7.91819e-08 3.22708e-08 4.69111e-08 0.592447 0.592384 0 0 0 0 0 0 0 0 0 0 0 0 0 0 0 0 0 0 0 0 0 0 0 0 0 0 0 0 0 0 0 0 0 0 0 0 0 0 0 0 0 0
3.52205 7.81364e-08 3.27633e-08 4.53731e-08 0.580691 0.590293 0 0 0 0 0 0 0 0 0 0 0 0 0 0 0 0 0 0 0 0 0 0 0 0 0 0 0 0 0 0 0 0 0 0 0 0 0 0 0 0 0 0
3.70284 7.33649e-08 3.13613e-08 4.20036e-08 0.57253 0.595236 0 0 0 0 0 0 0 0 0 0 0 0 0 0 0 0 0 0 0 0 0 0 0 0 0 0 0 0 0 0 0 0 0 0 0 0 0 0 0 0 0 0
3.89291 6.86582e-08 3.07527e-08 3.79056e-08 0.552091 0.598284 0 0 0 0 0 0 0 0 0 0 0 0 0 0 0 0 0 0 0 0 0 0 0 0 0 0 0 0 0 0 0 0 0 0 0 0 0 0 0 0 0 0
4.09273 6.38745e-08 2.99979e-08 3.38766e-08 0.530362 0.590546 0 0 0 0 0 0 0 0 0 0 0 0 0 0 0 0 0 0 0 0 0 0 0 0 0 0 0 0 0 0 0 0 0 0 0 0 0 0 0 0 0 0
4.30281 5.92145e-08 2.91304e-08 3.00841e-08 0.508052 0.566594 0 0 0 0 0 0 0 0 0 0 0 0 0 0 0 0 0 0 0 0 0 0 0 0 0 0 0 0 0 0 0 0 0 0 0 0 0 0 0 0 0 0
4.52368 5.4894e-08 2.82548e-08 2.66392e-08 0.485285 0.526838 0 0 0 0 0 0 0 0 0 0 0 0 0 0 0 0 0 0 0 0 0 0 0 0 0 0 0 0 0 0 0 0 0 0 0 0 0 0 0 0 0 0
4.75588 5.10242e-08 2.74479e-08 2.35763e-08 0.462062 0.476995 0 0 0 0 0 0 0 0 0 0 0 0 0 0 0 0 0 0 0 0 0 0 0 0 0 0 0 0 0 0 0 0 0 0 0 0 0 0 0 0 0 0
5 4.75995e-08 2.67243e-08 2.08752e-08 0.438559 0.423863 0 0 0 0 0 0 0 0 0 0 0 0 0 0 0 0 0 0 0 0 0 0 0 0 0 0 0 0 0 0 0 0 0 0 0 0 0 0 0 0 0 0
5.25665 4.45072e-08 2.60512e-08 1.84559e-08 0.414673 0.372875 0 0 0 0 0 0 0 0 0 0 0 0 0 0 0 0 0 0 0 0 0 0 0 0 0 0 0 0 0 0 0 0 0 0 0 0 0 0 0 0 0 0
5.52648 4.16681e-08 2.54211e-08 1.6247e-08 0.389915 0.327041 0 0 0 0 0 0 0 0 0 0 0 0 0 0 0 0 0 0 0 0 0 0 0 0 0 0 0 0 0 0 0 0 0 0 0 0 0 0 0 0 0 0
5.81015 3.90123e-08 2.48018e-08 1.42105e-08 0.364257 0.286773 0 0 0 0 0 0 0 0 0 0 0 0 0 0 0 0 0 0 0 0 0 0 0 0 0 0 0 0 0 0 0 0 0 0 0 0 0 0 0 0 0 0
6.10839 3.65152e-08 2.41938e-08 1.23213e-08 0.337431 0.251892 0 0 0 0 0 0 0 0 0 0 0 0 0 0 0 0 0 0 0 0 0 0 0 0 0 0 0 0 0 0 0 0 0 0 0 0 0 0 0 0 0 0
6.42193 3.41444e-08 2.35721e-08 1.05723e-08 0.309635 0.221543 0 0 0 0 0 0 0 0 0 0 0 0 0 0 0 0 0 0 0 0 0 0 0 0 0 0 0 0 0 0 0 0 0 0 0 0 0 0 1.4013e-45 0 2.8026e-45 0
6.75157 3.19001e-08 2.29752e-08 8.92484e-09 0.279775 0.194797 0 0 0 0 0 0 0 0 0 0 0 0 0 0 0 0 0 0 0 0 0 0 0 0 0 0 0 0 0 0 2.8026e-45 0 7.00649e-45 0 2.24208e-44 0 6.44597e-44 0 1.70958e-43 0 4.18988e-43 0
7.09813 2.97479e-08 2.22477e-08 7.50015e-09 0.252124 0.170762 0 0 0 0 0 0 0 0 0 0 0 0 0 0 0 0 0 0 0 0 0 0 1.4013e-45 0 7.00649e-45 0 3.08286e-44 0 1.14906e-43 0 3.92364e-43 0 1.1855e-42 0 3.40235e-42 0 9.01455e-42 0 2.27893e-41 0 5.35422e-41 0
7.46248 2.75622e-08 2.14751e-08 6.08712e-09 0.22085 0.148924 0 0 0 0 0 0 0 0 0 0 0 0 0 0 0 0 1.4013e-45 0 7.00649e-45 0 4.34403e-44 0 2.41023e-43 0 1.10142e-42 0 4.39027e-42 0 1.54129e-41 0 4.94742e-41 0 1.41789e-40 0 3.86412e-40 0 9.76248e-40 0 2.35857e-39 0 5.31509e-39 0
7.84553 2.52138e-08 2.05477e-08 4.66616e-09 0.185064 0.130178 0 0 0 0 0 0 0 0 0 0 0 0 0 0 1.12104e-44 0 1.28919e-43 0 9.96323e-43 0 6.0466e-42 0 3.04516e-41 0 1.29172e-40 0 4.81331e-40 0 1.58933e-39 0 4.81932e-39 0 1.31198e-38 0 3.40468e-38 0 8.22117e-38 0 1.90247e-37 0 4.12052e-37 0
8.24824 2.4983e-08 2.16102e-08 3.37274e-09 0.135002 0.11532 0 0 0 0 0 0 0 0 0 0 4.2039e-45 0 1.24716e-43 0 1.8385e-42 0 1.82547e-41 0 1.27256e-40 0 7.07158e-40 0 3.29114e-39 0 1.30093e-38 0 4.5461e-38 0 1.41605e-37 0 4.06752e-37 0 1.05447e-36 0 2.61195e-36 0 6.04128e-36 0 1.34191e-35 0 2.79879e-35 0
8.67162 2.77432e-08 2.488e-08 2.86322e-09 0.103204 0.102415 0 0 0 0 0 0 0 0 1.68156e-44 0 8.57595e-43 0 1.90689e-41 0 2.47062e-40 0 2.19292e-39 0 1.3904e-38 0 7.10575e-38 0 3.06784e-37 0 1.13396e-36 0 3.7278e-36 0 1.0985e-35 0 2.99694e-35 0 7.41625e-35 0 1.75744e-34 0 3.9018e-34 0 8.33562e-34 0 1.67725e-33 0
9.11674 3.55322e-08 3.22304e-08 3.30184e-09 0.0929251 0.0892179 0 0 0 0 0 0 1.96182e-44 0 3.12069e-42 0 1.33762e-40 0 2.55824e-39 0 2.92482e-38 0 2.33358e-37 0 1.352e-36 0 6.38051e-36 0 2.56487e-35 0 8.89425e-35 0 2.75885e-34 0 7.7119e-34 0 2.00335e-33 0 4.74297e-33 0 1.07759e-32 0 2.30105e-32 0 4.73699e-32 0 9.21161e-32 0
9.5847 4.43842e-08 3.96724e-08 4.71184e-09 0.10616 0.0786211 0 0 0 0 2.8026e-45 0 3.44719e-42 0 4.34792e-40 0 1.55107e-38 0 2.56841e-37 0 2.60711e-36 0 1.87952e-35 0 9.99423e-35 0 4.37248e-34 0 1.64224e-33 0 5.35938e-33 0 1.57301e-32 0 4.18184e-32 0 1.03686e-31 0 2.35364e-31 0 5.13738e-31 0 1.05713e-30 0 2.10085e-30 0 3.95481e-30 0
10.0767 4.69318e-08 4.12995e-08 5.63231e-09 0.120011 0.0718855 0 0 0 0 4.30199e-43 0 4.03318e-40 0 4.0171e-38 0 1.20357e-36 0 1.73774e-35 0 1.57521e-34 0 1.0312e-33 0 5.05373e-33 0 2.05729e-32 0 7.24345e-32 0 2.23122e-31 0 6.21338e-31 0 1.57483e-30 0 3.73536e-30 0 8.14645e-30 0 1.71167e-29 0 3.4002e-29 0 6.53444e-29 0 1.19269e-28 0
10.5939 4.31301e-08 3.77318e-08 5.39824e-09 0.125162 0.0678272 0 0 0 0 4.84527e-41 0 3.2488e-38 0 2.58479e-36 0 6.55981e-35 0 8.3137e-34 0 6.76715e-33 0 4.04173e-32 0 1.83289e-31 0 6.96712e-31 0 2.30682e-30 0 6.72598e-30 0 1.78166e-29 0 4.31527e-29 0 9.81283e-29 0 2.06014e-28 0 4.1745e-28 0 8.01929e-28 0 1.49275e-27 0 2.64574e-27 0
11.1377 3.78308e-08 3.30478e-08 4.783e-09 0.126431 0.0675405 0 0 3.36312e-44 0 4.08107e-39 0 1.99152e-36 0 1.27964e-34 0 2.7732e-33 0 3.10482e-32 0 2.28133e-31 0 1.24869e-30 0 5.25977e-30 0 1.87314e-29 0 5.84983e-29 0 1.61881e-28 0 4.08891e-28 0 9.48494e-28 0 2.07205e-27 0 4.19544e-27 0 8.21315e-27 0 1.52826e-26 0 2.75978e-26 0 4.75662e-26 0
11.7094 3.10337e-08 2.7174e-08 3.85978e-09 0.124374 0.0673043 0 0 3.71764e-42 0 2.55083e-37 0 9.20098e-35 0 4.82466e-33 0 8.99784e-32 0 8.95311e-31 0 5.96811e-30 0 3.00648e-29 0 1.18054e-28 0 3.9514e-28 0 1.16729e-27 0 3.07359e-27 0 7.42013e-27 0 1.65195e-26 0 3.47371e-26 0 6.79535e-26 0 1.28736e-25 0 2.32392e-25 0 4.07724e-25 0 6.84301e-25 0
12.3105 2.46476e-08 2.1741e-08 2.90665e-09 0.117928 0.0671615 1.4013e-45 0 3.1136e-40 0 1.24042e-35 0 3.35637e-33 0 1.45058e-31 0 2.34517e-30 0 2.08589e-29 0 1.26745e-28 0 5.9002e-28 0 2.16713e-27 0 6.83817e-27 0 1.91601e-26 0 4.81214e-26 0 1.1128e-25 0 2.38249e-25 0 4.83133e-25 0 9.14654e-25 0 1.67957e-24 0 2.94574e-24 0 5.02828e-24 0 8.22849e-24 0
12.9424 2.11897e-08 1.90992e-08 2.09052e-09 0.0986572 0.0647523 2.53635e-43 0 2.25407e-38 0 5.35386e-34 0 1.10208e-31 0 3.96302e-30 0 5.59304e-29 0 4.47122e-28 0 2.48773e-27 0 1.07431e-26 0 3.70306e-26 0 1.10471e-25 0 2.94348e-25 0 7.06764e-25 0 1.56883e-24 0 3.2363e-24 0 6.34008e-24 0 1.16346e-23 0 2.07398e-23 0 3.53907e-23 0 5.88539e-23 0 9.40227e-23 0
13.6067 1.96693e-08 1.80568e-08 1.61245e-09 0.0819781 0.059161 2.75089e-41 0 1.39865e-36 0 2.03128e-32 0 3.22373e-30 0 9.7322e-29 0 1.20699e-27 0 8.71774e-27 0 4.46056e-26 0 1.79347e-25 0 5.81953e-25 0 1.64589e-24 0 4.18054e-24 0 9.61772e-24 0 2.05336e-23 0 4.0887e-23 0 7.75125e-23 0 1.38088e-22 0 2.39305e-22 0 3.97836e-22 0 6.45367e-22 0 1.0077e-21 0
