# 0.000594021 0 93 : grain size, compostion index, size index
# Heating and cooling timescale: 7.93707e-06 1.71831e+14
# Ratio of heating to cooling to determine stochastic cutoff: 100
# Equilibrium emission is recorded even for those grains in the stochastic regime.
# Emission spectrum was computed for: 
# Type: ISRF
# Scales: 0.25 0.5 1 1.5 2 2.5 3 3.5 4 4.5 5 5.5 6 6.5 7 7.5 8 8.5 9 9.5 10
# StochasticallyHeated: 0 0 0 0 0 0 0 0 0 0 0 0 0 0 0 0 0 0 0 0 0
# Temperature: -1
# Wavelength  CExt  CAbs  CSca  Albedo G EqEm1 StEm1 EqEm2 StEm2 EqEm3 StEm3 EqEm4 StEm4 EqEm5 StEm5 EqEm6 StEm6 EqEm7 StEm7 EqEm8 StEm8 EqEm9 StEm9 EqEm10 StEm10 EqEm11 StEm11 EqEm12 StEm12 EqEm13 StEm13 EqEm14 StEm14 EqEm15 StEm15 EqEm16 StEm16 EqEm17 StEm17 EqEm18 StEm18 EqEm19 StEm19 EqEm20 StEm20 EqEm21 StEm21
0.05 2.23214e-06 1.05164e-06 1.1805e-06 0.528865 0.989893 0 0 0 0 0 0 0 0 0 0 0 0 0 0 0 0 0 0 0 0 0 0 0 0 0 0 0 0 0 0 0 0 0 0 0 0 0 0 0 0 0 0
0.0525665 2.23467e-06 1.03181e-06 1.20286e-06 0.538273 0.983264 0 0 0 0 0 0 0 0 0 0 0 0 0 0 0 0 0 0 0 0 0 0 0 0 0 0 0 0 0 0 0 0 0 0 0 0 0 0 0 0 0 0
0.0552647 2.23635e-06 1.02578e-06 1.21057e-06 0.541315 0.979672 0 0 0 0 0 0 0 0 0 0 0 0 0 0 0 0 0 0 0 0 0 0 0 0 0 0 0 0 0 0 0 0 0 0 0 0 0 0 0 0 0 0
0.0581015 2.23776e-06 1.02313e-06 1.21463e-06 0.542789 0.977184 0 0 0 0 0 0 0 0 0 0 0 0 0 0 0 0 0 0 0 0 0 0 0 0 0 0 0 0 0 0 0 0 0 0 0 0 0 0 0 0 0 0
0.0610839 2.23903e-06 1.02182e-06 1.21721e-06 0.543632 0.975328 0 0 0 0 0 0 0 0 0 0 0 0 0 0 0 0 0 0 0 0 0 0 0 0 0 0 0 0 0 0 0 0 0 0 0 0 0 0 0 0 0 0
0.0642193 2.24021e-06 1.02067e-06 1.21954e-06 0.544386 0.973702 0 0 0 0 0 0 0 0 0 0 0 0 0 0 0 0 0 0 0 0 0 0 0 0 0 0 0 0 0 0 0 0 0 0 0 0 0 0 0 0 0 0
0.0675157 2.24137e-06 1.01899e-06 1.22238e-06 0.545372 0.971992 0 0 0 0 0 0 0 0 0 0 0 0 0 0 0 0 0 0 0 0 0 0 0 0 0 0 0 0 0 0 0 0 0 0 0 0 0 0 0 0 0 0
0.0709813 2.24255e-06 1.01666e-06 1.2259e-06 0.546652 0.970031 0 0 0 0 0 0 0 0 0 0 0 0 0 0 0 0 0 0 0 0 0 0 0 0 0 0 0 0 0 0 0 0 0 0 0 0 0 0 0 0 0 0
0.0746248 2.2438e-06 1.01391e-06 1.22989e-06 0.548128 0.96781 0 0 0 0 0 0 0 0 0 0 0 0 0 0 0 0 0 0 0 0 0 0 0 0 0 0 0 0 0 0 0 0 0 0 0 0 0 0 0 0 0 0
0.0784553 2.24509e-06 1.01117e-06 1.23392e-06 0.549609 0.965492 0 0 0 0 0 0 0 0 0 0 0 0 0 0 0 0 0 0 0 0 0 0 0 0 0 0 0 0 0 0 0 0 0 0 0 0 0 0 0 0 0 0
0.0824824 2.24644e-06 1.00853e-06 1.2379e-06 0.551051 0.963137 0 0 0 0 0 0 0 0 0 0 0 0 0 0 0 0 0 0 0 0 0 0 0 0 0 0 0 0 0 0 0 0 0 0 0 0 0 0 0 0 0 0
0.0867162 2.24783e-06 1.00595e-06 1.24187e-06 0.552477 0.960732 0 0 0 0 0 0 0 0 0 0 0 0 0 0 0 0 0 0 0 0 0 0 0 0 0 0 0 0 0 0 0 0 0 0 0 0 0 0 0 0 0 0
0.0911674 2.24928e-06 1.00342e-06 1.24586e-06 0.553894 0.958268 0 0 0 0 0 0 0 0 0 0 0 0 0 0 0 0 0 0 0 0 0 0 0 0 0 0 0 0 0 0 0 0 0 0 0 0 0 0 0 0 0 0
0.095847 2.25079e-06 1.00096e-06 1.24983e-06 0.555286 0.955752 0 0 0 0 0 0 0 0 0 0 0 0 0 0 0 0 0 0 0 0 0 0 0 0 0 0 0 0 0 0 0 0 0 0 0 0 0 0 0 0 0 0
0.100767 2.25237e-06 9.98712e-07 1.25365e-06 0.556594 0.953241 0 0 0 0 0 0 0 0 0 0 0 0 0 0 0 0 0 0 0 0 0 0 0 0 0 0 0 0 0 0 0 0 0 0 0 0 0 0 0 0 0 0
0.105939 2.25402e-06 9.97165e-07 1.25686e-06 0.557607 0.950941 0 0 0 0 0 0 0 0 0 0 0 0 0 0 0 0 0 0 0 0 0 0 0 0 0 0 0 0 0 0 0 0 0 0 0 0 0 0 0 0 0 0
0.111377 2.2557e-06 9.96709e-07 1.25899e-06 0.558137 0.949223 0 0 0 0 0 0 0 0 0 0 0 0 0 0 0 0 0 0 0 0 0 0 0 0 0 0 0 0 0 0 0 0 0 0 0 0 0 0 0 0 0 0
0.117094 2.25733e-06 9.96981e-07 1.26035e-06 0.558336 0.948056 0 0 0 0 0 0 0 0 0 0 0 0 0 0 0 0 0 0 0 0 0 0 0 0 0 0 0 0 0 0 0 0 0 0 0 0 0 0 0 0 0 0
0.123105 2.25902e-06 9.96786e-07 1.26223e-06 0.558753 0.946678 0 0 0 0 0 0 0 0 0 0 0 0 0 0 0 0 0 0 0 0 0 0 0 0 0 0 0 0 0 0 0 0 0 0 0 0 0 0 0 0 0 0
0.129424 2.26079e-06 9.97332e-07 1.26346e-06 0.558857 0.945599 0 0 0 0 0 0 0 0 0 0 0 0 0 0 0 0 0 0 0 0 0 0 0 0 0 0 0 0 0 0 0 0 0 0 0 0 0 0 0 0 0 0
0.136067 2.26247e-06 9.99678e-07 1.2628e-06 0.558148 0.945717 0 0 0 0 0 0 0 0 0 0 0 0 0 0 0 0 0 0 0 0 0 0 0 0 0 0 0 0 0 0 0 0 0 0 0 0 0 0 0 0 0 0
0.143051 2.26415e-06 1.00098e-06 1.26317e-06 0.557901 0.945432 0 0 0 0 0 0 0 0 0 0 0 0 0 0 0 0 0 0 0 0 0 0 0 0 0 0 0 0 0 0 0 0 0 0 0 0 0 0 0 0 0 0
0.150394 2.26596e-06 1.00446e-06 1.2615e-06 0.556718 0.946105 0 0 0 0 0 0 0 0 0 0 0 0 0 0 0 0 0 0 0 0 0 0 0 0 0 0 0 0 0 0 0 0 0 0 0 0 0 0 0 0 0 0
0.158114 2.26705e-06 1.01322e-06 1.25382e-06 0.553065 0.950705 0 0 0 0 0 0 0 0 0 0 0 0 0 0 0 0 0 0 0 0 0 0 0 0 0 0 0 0 0 0 0 0 0 0 0 0 0 0 0 0 0 0
0.16623 2.26766e-06 1.01433e-06 1.25334e-06 0.552699 0.952162 0 0 0 0 0 0 0 0 0 0 0 0 0 0 0 0 0 0 0 0 0 0 0 0 0 0 0 0 0 0 0 0 0 0 0 0 0 0 0 0 0 0
0.174762 2.26886e-06 1.00711e-06 1.26176e-06 0.556119 0.948785 0 0 0 0 0 0 0 0 0 0 0 0 0 0 0 0 0 0 0 0 0 0 0 0 0 0 0 0 0 0 0 0 0 0 0 0 0 0 0 0 0 0
0.183733 2.27062e-06 9.95831e-07 1.27479e-06 0.561428 0.942724 0 0 0 0 0 0 0 0 0 0 0 0 0 0 0 0 0 0 0 0 0 0 0 0 0 0 0 0 0 0 0 0 0 0 0 0 0 0 0 0 0 0
0.193164 2.27302e-06 9.79347e-07 1.29367e-06 0.569142 0.93314 0 0 0 0 0 0 0 0 0 0 0 0 0 0 0 0 0 0 0 0 0 0 0 0 0 0 0 0 0 0 0 0 0 0 0 0 0 0 0 0 0 0
0.203079 2.27626e-06 9.62508e-07 1.31375e-06 0.577154 0.921762 0 0 0 0 0 0 0 0 0 0 0 0 0 0 0 0 0 0 0 0 0 0 0 0 0 0 0 0 0 0 0 0 0 0 0 0 0 0 0 0 0 0
0.213503 2.27957e-06 9.49905e-07 1.32967e-06 0.583297 0.912274 0 0 0 0 0 0 0 0 0 0 0 0 0 0 0 0 0 0 0 0 0 0 0 0 0 0 0 0 0 0 0 0 0 0 0 0 0 0 0 0 0 0
0.224463 2.28294e-06 9.39292e-07 1.34365e-06 0.588561 0.90375 0 0 0 0 0 0 0 0 0 0 0 0 0 0 0 0 0 0 0 0 0 0 0 0 0 0 0 0 0 0 0 0 0 0 0 0 0 0 0 0 0 0
0.235984 2.2864e-06 9.28586e-07 1.35782e-06 0.593866 0.895186 0 0 0 0 0 0 0 0 0 0 0 0 0 0 0 0 0 0 0 0 0 0 0 0 0 0 0 0 0 0 0 0 0 0 0 0 0 0 0 0 0 0
0.248097 2.29029e-06 9.15954e-07 1.37434e-06 0.600071 0.885055 0 0 0 0 0 0 0 0 0 0 0 0 0 0 0 0 0 0 0 0 0 0 0 0 0 0 0 0 0 0 0 0 0 0 0 0 0 0 0 0 0 0
0.260832 2.29441e-06 9.06665e-07 1.38774e-06 0.604837 0.876455 0 0 0 0 0 0 0 0 0 0 0 0 0 0 0 0 0 0 0 0 0 0 0 0 0 0 0 0 0 0 0 0 0 0 0 0 0 0 0 0 0 0
0.274221 2.29861e-06 8.99864e-07 1.39875e-06 0.608519 0.869232 0 0 0 0 0 0 0 0 0 0 0 0 0 0 0 0 0 0 0 0 0 0 0 0 0 0 0 0 0 0 0 0 0 0 0 0 0 0 0 0 0 0
0.288297 2.30281e-06 8.9492e-07 1.40789e-06 0.611379 0.863266 0 0 0 0 0 0 0 0 0 0 0 0 0 0 0 0 0 0 0 0 0 0 0 0 0 0 0 0 0 0 0 0 0 0 0 0 0 0 0 0 0 0
0.303095 2.30714e-06 8.91236e-07 1.4159e-06 0.613705 0.85798 0 0 0 0 0 0 0 0 0 0 0 0 0 0 0 0 0 0 0 0 0 0 0 0 0 0 0 0 0 0 0 0 0 0 0 0 0 0 0 0 0 0
0.318653 2.3115e-06 8.88566e-07 1.42294e-06 0.61559 0.853414 0 0 0 0 0 0 0 0 0 0 0 0 0 0 0 0 0 0 0 0 0 0 0 0 0 0 0 0 0 0 0 0 0 0 0 0 0 0 0 0 0 0
0.335009 2.31595e-06 8.86515e-07 1.42944e-06 0.617214 0.849253 0 0 0 0 0 0 0 0 0 0 0 0 0 0 0 0 0 0 0 0 0 0 0 0 0 0 0 0 0 0 0 0 0 0 0 0 0 0 0 0 0 0
0.352205 2.32049e-06 8.85055e-07 1.43543e-06 0.618591 0.845465 0 0 0 0 0 0 0 0 0 0 0 0 0 0 0 0 0 0 0 0 0 0 0 0 0 0 0 0 0 0 0 0 0 0 0 0 0 0 0 0 0 0
0.370284 2.32515e-06 8.83686e-07 1.44146e-06 0.619945 0.841757 0 0 0 0 0 0 0 0 0 0 0 0 0 0 0 0 0 0 0 0 0 0 0 0 0 0 0 0 0 0 0 0 0 0 0 0 0 0 0 0 0 0
0.389291 2.32992e-06 8.82548e-07 1.44737e-06 0.621211 0.83819 0 0 0 0 0 0 0 0 0 0 0 0 0 0 0 0 0 0 0 0 0 0 0 0 0 0 0 0 0 0 0 0 0 0 0 0 0 0 0 0 0 0
0.409273 2.33485e-06 8.81336e-07 1.45351e-06 0.622529 0.834574 0 0 0 0 0 0 0 0 0 0 0 0 0 0 0 0 0 0 0 0 0 0 0 0 0 0 0 0 0 0 0 0 0 0 0 0 0 0 0 0 0 0
0.430281 2.33991e-06 8.80158e-07 1.45975e-06 0.62385 0.830937 0 0 0 0 0 0 0 0 0 0 0 0 0 0 0 0 0 0 0 0 0 0 0 0 0 0 0 0 0 0 0 0 0 0 0 0 0 0 0 0 0 0
0.452368 2.3451e-06 8.79313e-07 1.46579e-06 0.625042 0.827435 0 0 0 0 0 0 0 0 0 0 0 0 0 0 0 0 0 0 0 0 0 0 0 0 0 0 0 0 0 0 0 0 0 0 0 0 0 0 0 0 0 0
0.475588 2.3504e-06 8.78618e-07 1.47178e-06 0.626183 0.823981 0 0 0 0 0 0 0 0 0 0 0 0 0 0 0 0 0 0 0 0 0 0 0 0 0 0 0 0 0 0 0 0 0 0 0 0 0 0 0 0 0 0
0.5 2.35571e-06 8.78615e-07 1.4771e-06 0.627028 0.8209 0 0 0 0 0 0 0 0 0 0 0 0 0 0 0 0 0 0 0 0 0 0 0 0 0 0 0 0 0 0 0 0 0 0 0 0 0 0 0 0 0 0
0.525665 2.361e-06 8.79226e-07 1.48178e-06 0.627605 0.818199 0 0 0 0 0 0 0 0 0 0 0 0 0 0 0 0 0 0 0 0 0 0 0 0 0 0 0 0 0 0 0 0 0 0 0 0 0 0 0 0 0 0
0.552648 2.36627e-06 8.80369e-07 1.4859e-06 0.62795 0.815852 0 0 0 0 0 0 0 0 0 0 0 0 0 0 0 0 0 0 0 0 0 0 0 0 0 0 0 0 0 0 0 0 0 0 0 0 0 0 0 0 0 0
0.581015 2.37152e-06 8.81841e-07 1.48968e-06 0.628154 0.813739 0 0 0 0 0 0 0 0 0 0 0 0 0 0 0 0 0 0 0 0 0 0 0 0 0 0 0 0 0 0 0 0 0 0 0 0 0 0 0 0 0 0
0.610839 2.37681e-06 8.83407e-07 1.4934e-06 0.628322 0.811704 0 0 0 0 0 0 0 0 0 0 0 0 0 0 0 0 0 0 0 0 0 0 0 0 0 0 0 0 0 0 0 0 0 0 0 0 0 0 0 0 0 0
0.642193 2.38211e-06 8.85087e-07 1.49703e-06 0.628445 0.809762 0 0 0 0 0 0 0 0 0 0 0 0 0 0 0 0 0 0 0 0 0 0 0 0 0 0 0 0 0 0 0 0 0 0 0 0 0 0 0 0 0 0
0.675157 2.38747e-06 8.86763e-07 1.50071e-06 0.628577 0.807831 0 0 0 0 0 0 0 0 0 0 0 0 0 0 0 0 0 0 0 0 0 0 0 0 0 0 0 0 0 0 0 0 0 0 0 0 0 0 0 0 0 0
0.709813 2.39287e-06 8.88437e-07 1.50444e-06 0.628715 0.805893 0 0 0 0 0 0 0 0 0 0 0 0 0 0 0 0 0 0 0 0 0 0 0 0 0 0 0 0 0 0 0 0 0 0 0 0 0 0 0 0 0 0
0.746248 2.39828e-06 8.90227e-07 1.50805e-06 0.628806 0.804021 0 0 0 0 0 0 0 0 0 0 0 0 0 0 0 0 0 0 0 0 0 0 0 0 0 0 0 0 0 0 0 0 0 0 0 0 0 0 0 0 0 0
0.784553 2.40364e-06 8.92213e-07 1.51143e-06 0.628808 0.802248 0 0 0 0 0 0 0 0 0 0 0 0 0 0 0 0 0 0 0 0 0 0 0 0 0 0 0 0 0 0 0 0 0 0 0 0 0 0 0 0 0 0
0.824824 2.40887e-06 8.94936e-07 1.51394e-06 0.628484 0.80093 0 0 0 0 0 0 0 0 0 0 0 0 0 0 0 0 0 0 0 0 0 0 0 0 0 0 0 0 0 0 0 0 0 0 0 0 0 0 0 0 0 0
0.867162 2.41411e-06 8.98415e-07 1.51569e-06 0.627848 0.800106 0 0 0 0 0 0 0 0 0 0 0 0 0 0 0 0 0 0 0 0 0 0 0 0 0 0 0 0 0 0 0 0 0 0 0 0 0 0 0 0 0 0
0.911674 2.41951e-06 9.02031e-07 1.51748e-06 0.627185 0.799369 0 0 0 0 0 0 0 0 0 0 0 0 0 0 0 0 0 0 0 0 0 0 0 0 0 0 0 0 0 0 0 0 0 0 0 0 0 0 0 0 0 0
0.95847 2.42524e-06 9.05062e-07 1.52018e-06 0.626815 0.798242 0 0 0 0 0 0 0 0 0 0 0 0 0 0 0 0 0 0 0 0 0 0 0 0 0 0 0 0 0 0 0 0 0 0 0 0 0 0 0 0 0 0
1.00767 2.4311e-06 9.07728e-07 1.52337e-06 0.626619 0.796836 0 0 0 0 0 0 0 0 0 0 0 0 0 0 0 0 0 0 0 0 0 0 0 0 0 0 0 0 0 0 0 0 0 0 0 0 0 0 0 0 0 0
1.05939 2.43705e-06 9.10541e-07 1.52651e-06 0.626375 0.795469 0 0 0 0 0 0 0 0 0 0 0 0 0 0 0 0 0 0 0 0 0 0 0 0 0 0 0 0 0 0 0 0 0 0 0 0 0 0 0 0 0 0
1.11377 2.4431e-06 9.13449e-07 1.52965e-06 0.62611 0.794106 0 0 0 0 0 0 0 0 0 0 0 0 0 0 0 0 0 0 0 0 0 0 0 0 0 0 0 0 0 0 0 0 0 0 0 0 0 0 0 0 0 0
1.17094 2.44929e-06 9.1623e-07 1.53306e-06 0.62592 0.792606 0 0 0 0 0 0 0 0 0 0 0 0 0 0 0 0 0 0 0 0 0 0 0 0 0 0 0 0 0 0 0 0 0 0 0 0 0 0 0 0 0 0
1.23105 2.45562e-06 9.19067e-07 1.53655e-06 0.625729 0.791079 0 0 0 0 0 0 0 0 0 0 0 0 0 0 0 0 0 0 0 0 0 0 0 0 0 0 0 0 0 0 0 0 0 0 0 0 0 0 0 0 0 0
1.29424 2.462e-06 9.22101e-07 1.5399e-06 0.625467 0.789603 0 0 0 0 0 0 0 0 0 0 0 0 0 0 0 0 0 0 0 0 0 0 0 0 0 0 0 0 0 0 0 0 0 0 0 0 0 0 0 0 0 0
1.36067 2.46845e-06 9.25781e-07 1.54267e-06 0.624955 0.788435 0 0 0 0 0 0 0 0 0 0 0 0 0 0 0 0 0 0 0 0 0 0 0 0 0 0 0 0 0 0 0 0 0 0 0 0 0 0 0 0 0 0
1.43051 2.47529e-06 9.29673e-07 1.54562e-06 0.624419 0.787289 0 0 0 0 0 0 0 0 0 0 0 0 0 0 0 0 0 0 0 0 0 0 0 0 0 0 0 0 0 0 0 0 0 0 0 0 0 0 0 0 0 0
1.50394 2.48241e-06 9.32962e-07 1.54945e-06 0.624171 0.785698 0 0 0 0 0 0 0 0 0 0 0 0 0 0 0 0 0 0 0 0 0 0 0 0 0 0 0 0 0 0 0 0 0 0 0 0 0 0 0 0 0 0
1.58114 2.48963e-06 9.36146e-07 1.55349e-06 0.623982 0.783963 0 0 0 0 0 0 0 0 0 0 0 0 0 0 0 0 0 0 0 0 0 0 0 0 0 0 0 0 0 0 0 0 0 0 0 0 0 0 0 0 0 0
1.6623 2.49692e-06 9.39562e-07 1.55735e-06 0.623711 0.782275 0 0 0 0 0 0 0 0 0 0 0 0 0 0 0 0 0 0 0 0 0 0 0 0 0 0 0 0 0 0 0 0 0 0 0 0 0 0 0 0 0 0
1.74763 2.50435e-06 9.43385e-07 1.56097e-06 0.623302 0.780713 0 0 0 0 0 0 0 0 0 0 0 0 0 0 0 0 0 0 0 0 0 0 0 0 0 0 0 0 0 0 0 0 0 0 0 0 0 0 0 0 0 0
1.83733 2.51222e-06 9.47383e-07 1.56484e-06 0.62289 0.779114 0 0 0 0 0 0 0 0 0 0 0 0 0 0 0 0 0 0 0 0 0 0 0 0 0 0 0 0 0 0 0 0 0 0 0 0 0 0 0 0 0 0
1.93164 2.5202e-06 9.50798e-07 1.5694e-06 0.622729 0.777101 0 0 0 0 0 0 0 0 0 0 0 0 0 0 0 0 0 0 0 0 0 0 0 0 0 0 0 0 0 0 0 0 0 0 0 0 0 0 0 0 0 0
2.03079 2.52819e-06 9.54669e-07 1.57352e-06 0.62239 0.77524 0 0 0 0 0 0 0 0 0 0 0 0 0 0 0 0 0 0 0 0 0 0 0 0 0 0 0 0 0 0 0 0 0 0 0 0 0 0 0 0 0 0
2.13503 2.53649e-06 9.58985e-07 1.5775e-06 0.621924 0.77348 0 0 0 0 0 0 0 0 0 0 0 0 0 0 0 0 0 0 0 0 0 0 0 0 0 0 0 0 0 0 0 0 0 0 0 0 0 0 0 0 0 0
2.24463 2.54503e-06 9.63453e-07 1.58158e-06 0.621437 0.771667 0 0 0 0 0 0 0 0 0 0 0 0 0 0 0 0 0 0 0 0 0 0 0 0 0 0 0 0 0 0 0 0 0 0 0 0 0 0 0 0 0 0
2.35984 2.5539e-06 9.68085e-07 1.58582e-06 0.620939 0.76979 0 0 0 0 0 0 0 0 0 0 0 0 0 0 0 0 0 0 0 0 0 0 0 0 0 0 0 0 0 0 0 0 0 0 0 0 0 0 0 0 0 0
2.48097 2.56289e-06 9.72482e-07 1.59041e-06 0.620553 0.767674 0 0 0 0 0 0 0 0 0 0 0 0 0 0 0 0 0 0 0 0 0 0 0 0 0 0 0 0 0 0 0 0 0 0 0 0 0 0 0 0 0 0
2.60832 2.57215e-06 9.78201e-07 1.59395e-06 0.619695 0.766058 0 0 0 0 0 0 0 0 0 0 0 0 0 0 0 0 0 0 0 0 0 0 0 0 0 0 0 0 0 0 0 0 0 0 0 0 0 0 0 0 0 0
2.74221 2.58221e-06 9.83129e-07 1.59908e-06 0.619269 0.763828 0 0 0 0 0 0 0 0 0 0 0 0 0 0 0 0 0 0 0 0 0 0 0 0 0 0 0 0 0 0 0 0 0 0 0 0 0 0 0 0 0 0
2.88297 2.592e-06 9.87652e-07 1.60435e-06 0.618962 0.761318 0 0 0 0 0 0 0 0 0 0 0 0 0 0 0 0 0 0 0 0 0 0 0 0 0 0 0 0 0 0 0 0 0 0 0 0 0 0 0 0 0 0
3.03095 2.60234e-06 9.93237e-07 1.6091e-06 0.618329 0.75912 0 0 0 0 0 0 0 0 0 0 0 0 0 0 0 0 0 0 0 0 0 0 0 0 0 0 0 0 0 0 0 0 0 0 0 0 0 0 0 0 0 0
3.18653 2.61303e-06 9.97756e-07 1.61528e-06 0.618162 0.756244 0 0 0 0 0 0 0 0 0 0 0 0 0 0 0 0 0 0 0 0 0 0 0 0 0 0 0 0 0 0 0 0 0 0 0 0 0 0 0 0 0 0
3.35009 2.6231e-06 1.002e-06 1.62109e-06 0.618007 0.753193 0 0 0 0 0 0 0 0 0 0 0 0 0 0 0 0 0 0 0 0 0 0 0 0 0 0 0 0 0 0 0 0 0 0 0 0 0 0 0 0 0 0
3.52205 2.63434e-06 1.00823e-06 1.62611e-06 0.617273 0.750758 0 0 0 0 0 0 0 0 0 0 0 0 0 0 0 0 0 0 0 0 0 0 0 0 0 0 0 0 0 0 0 0 0 0 0 0 0 0 0 0 0 0
3.70284 2.6456e-06 1.01348e-06 1.63213e-06 0.616921 0.74771 0 0 0 0 0 0 0 0 0 0 0 0 0 0 0 0 0 0 0 0 0 0 0 0 0 0 0 0 0 0 0 0 0 0 0 0 0 0 0 0 0 0
3.89291 2.65674e-06 1.01816e-06 1.63858e-06 0.616764 0.744309 0 0 0 0 0 0 0 0 0 0 0 0 0 0 0 0 0 0 0 0 0 0 0 0 0 0 0 0 0 0 0 0 0 0 0 0 0 0 0 0 0 0
4.09273 2.6685e-06 1.02374e-06 1.64476e-06 0.616361 0.741027 0 0 0 0 0 0 0 0 0 0 0 0 0 0 0 0 0 0 0 0 0 0 0 0 0 0 0 0 0 0 0 0 0 0 0 0 0 0 0 0 0 0
4.30281 2.6805e-06 1.03055e-06 1.64995e-06 0.61554 0.738088 0 0 0 0 0 0 0 0 0 0 0 0 0 0 0 0 0 0 0 0 0 0 0 0 0 0 0 0 0 0 0 0 0 0 0 0 0 0 0 0 0 0
4.52368 2.69258e-06 1.03746e-06 1.65512e-06 0.614696 0.734939 0 0 0 0 0 0 0 0 0 0 0 0 0 0 0 0 0 0 0 0 0 0 0 0 0 0 0 0 0 0 0 0 0 0 0 0 0 0 0 0 0 0
4.75588 2.70491e-06 1.04395e-06 1.66097e-06 0.614056 0.731418 0 0 0 0 0 0 0 0 0 0 0 0 0 0 0 0 0 0 0 0 0 0 0 0 0 0 0 0 0 0 0 0 0 0 0 0 0 0 0 0 0 0
5 2.71739e-06 1.05095e-06 1.66644e-06 0.613252 0.727859 0 0 0 0 0 0 0 0 0 0 0 0 0 0 0 0 0 0 0 0 0 0 0 0 0 0 0 0 0 0 0 0 0 0 0 0 0 0 0 0 0 0
5.25665 2.73057e-06 1.06028e-06 1.67029e-06 0.611699 0.72484 0 0 0 0 0 0 0 0 0 0 0 0 0 0 0 0 0 0 0 0 0 0 0 0 0 0 0 0 0 0 0 0 0 0 0 0 0 0 0 0 0 0
5.52648 2.74497e-06 1.0707e-06 1.67427e-06 0.609943 0.721939 0 0 0 0 0 0 0 0 0 0 0 0 0 0 0 0 0 0 0 0 0 0 0 0 0 0 0 0 0 0 0 0 0 0 0 0 0 0 0 0 0 0
5.81015 2.76199e-06 1.08516e-06 1.67683e-06 0.607108 0.7199 0 0 0 0 0 0 0 0 0 0 0 0 0 0 0 0 0 0 0 0 0 0 0 0 0 0 0 0 0 0 0 0 0 0 0 0 0 0 0 0 0 0
6.10839 2.78015e-06 1.09549e-06 1.68467e-06 0.605962 0.715904 0 0 0 0 0 0 0 0 0 0 0 0 0 0 0 0 0 0 0 0 0 0 0 0 0 0 0 0 0 0 0 0 0 0 0 0 0 0 0 0 0 0
6.42193 2.79569e-06 1.09426e-06 1.70143e-06 0.608589 0.70791 0 0 0 0 0 0 0 0 0 0 0 0 0 0 0 0 0 0 0 0 0 0 0 0 0 0 0 0 0 0 0 0 0 0 0 0 0 0 0 0 0 0
6.75157 2.81121e-06 1.10102e-06 1.71019e-06 0.608346 0.702353 0 0 0 0 0 0 0 0 0 0 0 0 0 0 0 0 0 0 0 0 0 0 0 0 0 0 0 0 0 0 0 0 0 0 0 0 0 0 0 0 0 0
7.09813 2.82812e-06 1.10818e-06 1.71994e-06 0.608158 0.696397 0 0 0 0 0 0 0 0 0 0 0 0 0 0 0 0 0 0 0 0 0 0 0 0 0 0 0 0 0 0 0 0 0 0 0 0 0 0 0 0 0 0
7.46248 2.8437e-06 1.10756e-06 1.73614e-06 0.610522 0.687937 0 0 0 0 0 0 0 0 0 0 0 0 0 0 0 0 0 0 0 0 0 0 0 0 0 0 0 0 0 0 0 0 0 0 0 0 0 0 0 0 0 0
7.84553 2.85937e-06 1.10975e-06 1.74962e-06 0.61189 0.680227 0 0 0 0 0 0 0 0 0 0 0 0 0 0 0 0 0 0 0 0 0 0 0 0 0 0 0 0 0 0 0 0 0 0 0 0 0 0 0 0 0 0
8.24824 2.87266e-06 1.1093e-06 1.76336e-06 0.613842 0.671194 0 0 0 0 0 0 0 0 0 0 0 0 0 0 0 0 0 0 0 0 0 0 0 0 0 0 0 0 0 0 0 0 0 0 0 0 0 0 0 0 0 0
8.67162 2.88324e-06 1.10906e-06 1.77418e-06 0.615343 0.661826 0 0 0 0 0 0 0 0 0 0 0 0 0 0 0 0 0 0 0 0 0 0 0 0 0 0 0 0 0 0 0 0 0 0 0 0 0 0 0 0 0 0
9.11674 2.89573e-06 1.11134e-06 1.78439e-06 0.616213 0.6531 0 0 0 0 0 0 0 0 0 0 0 0 0 0 0 0 0 0 0 0 0 0 0 0 0 0 0 0 0 0 0 0 0 0 0 0 0 0 0 0 0 0
9.5847 2.9113e-06 1.11848e-06 1.79282e-06 0.615814 0.645567 0 0 0 0 0 0 0 0 0 0 0 0 0 0 0 0 0 0 0 0 0 0 0 0 0 0 0 0 0 0 0 0 0 0 0 0 0 0 0 0 0 0
10.0767 2.92651e-06 1.13027e-06 1.79625e-06 0.613784 0.638496 0 0 0 0 0 0 0 0 0 0 0 0 0 0 0 0 0 0 0 0 0 0 0 0 0 0 0 0 0 0 0 0 0 0 0 0 0 0 0 0 0 0
10.5939 2.94031e-06 1.14404e-06 1.79626e-06 0.61091 0.630622 0 0 0 0 0 0 0 0 0 0 0 0 0 0 0 0 0 0 0 0 0 0 0 0 0 0 0 0 0 0 0 0 0 0 0 0 0 0 0 0 0 0
11.1377 2.95581e-06 1.15153e-06 1.80428e-06 0.610419 0.620044 0 0 0 0 0 0 0 0 0 0 0 0 0 0 0 0 0 0 0 0 0 0 0 0 0 0 0 0 0 0 0 0 0 0 0 0 0 0 1.4013e-45 0 4.2039e-45 0
11.7094 2.97238e-06 1.1543e-06 1.81807e-06 0.611657 0.60818 0 0 0 0 0 0 0 0 0 0 0 0 0 0 0 0 0 0 0 0 0 0 0 0 0 0 0 0 1.4013e-45 0 5.60519e-45 0 1.82169e-44 0 5.04467e-44 0 1.28919e-43 0 3.11088e-43 0 7.21669e-43 0
12.3105 2.99421e-06 1.16416e-06 1.83004e-06 0.611195 0.59837 0 0 0 0 0 0 0 0 0 0 0 0 0 0 0 0 0 0 0 0 1.4013e-45 0 7.00649e-45 0 2.66247e-44 0 1.05097e-43 0 3.48923e-43 0 1.06919e-42 0 2.95814e-42 0 7.82205e-42 0 1.93029e-41 0 4.45935e-41 0 9.91433e-41 0
12.9424 3.01997e-06 1.18152e-06 1.83845e-06 0.608764 0.589999 0 0 0 0 0 0 0 0 0 0 0 0 0 0 0 0 5.60519e-45 0 4.2039e-44 0 2.36819e-43 0 1.11403e-42 0 4.37626e-42 0 1.57254e-41 0 4.93117e-41 0 1.4322e-40 0 3.77165e-40 0 9.51137e-40 0 2.24592e-39 0 4.98065e-39 0 1.06495e-38 0
13.6067 3.02739e-06 1.18083e-06 1.84656e-06 0.609951 0.575996 0 0 0 0 0 0 0 0 0 0 0 0 8.40779e-45 0 1.13505e-43 0 9.75304e-43 0 6.48241e-42 0 3.31912e-41 0 1.45022e-40 0 5.32847e-40 0 1.79895e-39 0 5.33519e-39 0 1.47093e-38 0 3.69478e-38 0 8.90609e-38 0 2.0166e-37 0 4.30153e-37 0 8.86239e-37 0
14.3051 3.03515e-06 1.18939e-06 1.84575e-06 0.608127 0.5615 0 0 0 0 0 0 0 0 1.4013e-45 0 7.56701e-44 0 1.43633e-42 0 1.64583e-41 0 1.27244e-40 0 7.70989e-40 0 3.64495e-39 0 1.48193e-38 0 5.10981e-38 0 1.62563e-37 0 4.57195e-37 0 1.19961e-36 0 2.88076e-36 0 6.65197e-36 0 1.44728e-35 0 2.97505e-35 0 5.9169e-35 0
15.0394 3.04304e-06 1.19607e-06 1.84697e-06 0.60695 0.544077 0 0 0 0 0 0 2.8026e-45 0 3.1249e-43 0 1.09918e-41 0 1.81477e-40 0 1.8453e-39 0 1.29105e-38 0 7.16398e-38 0 3.13949e-37 0 1.19194e-36 0 3.86888e-36 0 1.16322e-35 0 3.1104e-35 0 7.78575e-35 0 1.7914e-34 0 3.97091e-34 0 8.31784e-34 0 1.65071e-33 0 3.17463e-33 0
15.8114 3.05766e-06 1.20131e-06 1.85635e-06 0.607115 0.525141 0 0 0 0 0 0 4.47014e-43 0 4.19072e-41 0 1.24052e-39 0 1.786e-38 0 1.62163e-37 0 1.03175e-36 0 5.26565e-36 0 2.14697e-35 0 7.63721e-35 0 2.34045e-34 0 6.66861e-34 0 1.69955e-33 0 4.06782e-33 0 8.98637e-33 0 1.91604e-32 0 3.8712e-32 0 7.42974e-32 0 1.38398e-31 0
16.623 3.08348e-06 1.20794e-06 1.87554e-06 0.608255 0.506902 0 0 0 0 9.24857e-44 0 5.83739e-41 0 4.38228e-39 0 1.09948e-37 0 1.38967e-36 0 1.13293e-35 0 6.58554e-35 0 3.1039e-34 0 1.18163e-33 0 3.95077e-33 0 1.1463e-32 0 3.10337e-32 0 7.55605e-32 0 1.73308e-31 0 3.68327e-31 0 7.56831e-31 0 1.4775e-30 0 2.74684e-30 0 4.96361e-30 0
17.4762 3.11543e-06 1.22277e-06 1.89267e-06 0.607513 0.491741 0 0 0 0 1.29522e-41 0 5.97476e-39 0 3.63277e-37 0 7.78746e-36 0 8.69621e-35 0 6.39925e-34 0 3.41347e-33 0 1.49155e-32 0 5.31944e-32 0 1.67677e-31 0 4.61854e-31 0 1.19102e-30 0 2.7766e-30 0 6.11552e-30 0 1.25275e-29 0 2.48519e-29 0 4.69573e-29 0 8.46953e-29 0 1.48689e-28 0
18.3733 3.14246e-06 1.23836e-06 1.9041e-06 0.605926 0.477727 0 0 2.52234e-44 0 1.41102e-39 0 4.82453e-37 0 2.40035e-35 0 4.43036e-34 0 4.39753e-33 0 2.93553e-32 0 1.44297e-31 0 5.86717e-31 0 1.9665e-30 0 5.8608e-30 0 1.5364e-29 0 3.78297e-29 0 8.4621e-29 0 1.79331e-28 0 3.54716e-28 0 6.80535e-28 0 1.24653e-27 0 2.1845e-27 0 3.7311e-27 0
