# 0.00022387 1 152 : grain size, compostion index, size index
# Heating and cooling timescale: 4.08762e-05 1.88237e+12
# Ratio of heating to cooling to determine stochastic cutoff: 100
# Equilibrium emission is recorded even for those grains in the stochastic regime.
# Emission spectrum was computed for: 
# Type: IRSF
# Scales: 0.25 0.5 1 1.5 2 2.5 3 3.5 4 4.5 5 5.5 6 6.5 7 7.5 8 8.5 9 9.5 10
# StochasticallyHeated: 0 0 0 0 0 0 0 0 0 0 0 0 0 0 0 0 0 0 0 0 0
# Temperature: -1
# Wavelength  CExt  CAbs  CSca  Albedo G EqEm1 StEm1 EqEm2 StEm2 EqEm3 StEm3 EqEm4 StEm4 EqEm5 StEm5 EqEm6 StEm6 EqEm7 StEm7 EqEm8 StEm8 EqEm9 StEm9 EqEm10 StEm10 EqEm11 StEm11 EqEm12 StEm12 EqEm13 StEm13 EqEm14 StEm14 EqEm15 StEm15 EqEm16 StEm16 EqEm17 StEm17 EqEm18 StEm18 EqEm19 StEm19 EqEm20 StEm20 EqEm21 StEm21
0.05 8.11699e-08 3.612e-08 4.50499e-08 0.555007 0.214768 0 0 0 0 0 0 0 0 0 0 0 0 0 0 0 0 0 0 0 0 0 0 0 0 0 0 0 0 0 0 0 0 0 0 0 0 0 0 0 0 0 0
0.0525665 8.97167e-08 3.99233e-08 4.97934e-08 0.555007 0.237382 0 0 0 0 0 0 0 0 0 0 0 0 0 0 0 0 0 0 0 0 0 0 0 0 0 0 0 0 0 0 0 0 0 0 0 0 0 0 0 0 0 0
0.0552647 9.91634e-08 4.4127e-08 5.50364e-08 0.555007 0.262377 0 0 0 0 0 0 0 0 0 0 0 0 0 0 0 0 0 0 0 0 0 0 0 0 0 0 0 0 0 0 0 0 0 0 0 0 0 0 0 0 0 0
0.0581015 1.09605e-07 4.87733e-08 6.08315e-08 0.555007 0.290004 0 0 0 0 0 0 0 0 0 0 0 0 0 0 0 0 0 0 0 0 0 0 0 0 0 0 0 0 0 0 0 0 0 0 0 0 0 0 0 0 0 0
0.0610839 1.21146e-07 5.39089e-08 6.72367e-08 0.555007 0.320541 0 0 0 0 0 0 0 0 0 0 0 0 0 0 0 0 0 0 0 0 0 0 0 0 0 0 0 0 0 0 0 0 0 0 0 0 0 0 0 0 0 0
0.0642193 1.33902e-07 5.95853e-08 7.43164e-08 0.555007 0.354292 0 0 0 0 0 0 0 0 0 0 0 0 0 0 0 0 0 0 0 0 0 0 0 0 0 0 0 0 0 0 0 0 0 0 0 0 0 0 0 0 0 0
0.0675157 1.48001e-07 6.58593e-08 8.21416e-08 0.555007 0.391597 0 0 0 0 0 0 0 0 0 0 0 0 0 0 0 0 0 0 0 0 0 0 0 0 0 0 0 0 0 0 0 0 0 0 0 0 0 0 0 0 0 0
0.0709813 1.63585e-07 7.2794e-08 9.07907e-08 0.555007 0.43283 0 0 0 0 0 0 0 0 0 0 0 0 0 0 0 0 0 0 0 0 0 0 0 0 0 0 0 0 0 0 0 0 0 0 0 0 0 0 0 0 0 0
0.0746248 1.80809e-07 8.04588e-08 1.00351e-07 0.555007 0.478405 0 0 0 0 0 0 0 0 0 0 0 0 0 0 0 0 0 0 0 0 0 0 0 0 0 0 0 0 0 0 0 0 0 0 0 0 0 0 0 0 0 0
0.0784553 1.99848e-07 8.89308e-08 1.10917e-07 0.555007 0.528779 0 0 0 0 0 0 0 0 0 0 0 0 0 0 0 0 0 0 0 0 0 0 0 0 0 0 0 0 0 0 0 0 0 0 0 0 0 0 0 0 0 0
0.0824824 2.20891e-07 9.82947e-08 1.22596e-07 0.555007 0.584457 0 0 0 0 0 0 0 0 0 0 0 0 0 0 0 0 0 0 0 0 0 0 0 0 0 0 0 0 0 0 0 0 0 0 0 0 0 0 0 0 0 0
0.0867162 2.4415e-07 1.08645e-07 1.35505e-07 0.555007 0.645998 0 0 0 0 0 0 0 0 0 0 0 0 0 0 0 0 0 0 0 0 0 0 0 0 0 0 0 0 0 0 0 0 0 0 0 0 0 0 0 0 0 0
0.0911674 2.69857e-07 1.20085e-07 1.49773e-07 0.555007 0.714018 0 0 0 0 0 0 0 0 0 0 0 0 0 0 0 0 0 0 0 0 0 0 0 0 0 0 0 0 0 0 0 0 0 0 0 0 0 0 0 0 0 0
0.095847 2.98272e-07 1.32729e-07 1.65543e-07 0.555007 0.789201 0 0 0 0 0 0 0 0 0 0 0 0 0 0 0 0 0 0 0 0 0 0 0 0 0 0 0 0 0 0 0 0 0 0 0 0 0 0 0 0 0 0
0.100767 3.24728e-07 1.44522e-07 1.80206e-07 0.554944 0.859106 0 0 0 0 0 0 0 0 0 0 0 0 0 0 0 0 0 0 0 0 0 0 0 0 0 0 0 0 0 0 0 0 0 0 0 0 0 0 0 0 0 0
0.105939 3.25086e-07 1.44831e-07 1.80255e-07 0.554484 0.862874 0 0 0 0 0 0 0 0 0 0 0 0 0 0 0 0 0 0 0 0 0 0 0 0 0 0 0 0 0 0 0 0 0 0 0 0 0 0 0 0 0 0
0.111377 3.25432e-07 1.45219e-07 1.80213e-07 0.553767 0.867727 0 0 0 0 0 0 0 0 0 0 0 0 0 0 0 0 0 0 0 0 0 0 0 0 0 0 0 0 0 0 0 0 0 0 0 0 0 0 0 0 0 0
0.117094 3.25795e-07 1.4559e-07 1.80205e-07 0.553124 0.870801 0 0 0 0 0 0 0 0 0 0 0 0 0 0 0 0 0 0 0 0 0 0 0 0 0 0 0 0 0 0 0 0 0 0 0 0 0 0 0 0 0 0
0.123105 3.26157e-07 1.46125e-07 1.80032e-07 0.551979 0.872702 0 0 0 0 0 0 0 0 0 0 0 0 0 0 0 0 0 0 0 0 0 0 0 0 0 0 0 0 0 0 0 0 0 0 0 0 0 0 0 0 0 0
0.129424 3.26499e-07 1.46744e-07 1.79754e-07 0.550551 0.873586 0 0 0 0 0 0 0 0 0 0 0 0 0 0 0 0 0 0 0 0 0 0 0 0 0 0 0 0 0 0 0 0 0 0 0 0 0 0 0 0 0 0
0.136067 3.26876e-07 1.47153e-07 1.79722e-07 0.549819 0.873272 0 0 0 0 0 0 0 0 0 0 0 0 0 0 0 0 0 0 0 0 0 0 0 0 0 0 0 0 0 0 0 0 0 0 0 0 0 0 0 0 0 0
0.143051 3.27236e-07 1.47863e-07 1.79373e-07 0.548146 0.87096 0 0 0 0 0 0 0 0 0 0 0 0 0 0 0 0 0 0 0 0 0 0 0 0 0 0 0 0 0 0 0 0 0 0 0 0 0 0 0 0 0 0
0.150394 3.27639e-07 1.4901e-07 1.78629e-07 0.545201 0.872048 0 0 0 0 0 0 0 0 0 0 0 0 0 0 0 0 0 0 0 0 0 0 0 0 0 0 0 0 0 0 0 0 0 0 0 0 0 0 0 0 0 0
0.158114 3.28111e-07 1.50499e-07 1.77612e-07 0.541316 0.878205 0 0 0 0 0 0 0 0 0 0 0 0 0 0 0 0 0 0 0 0 0 0 0 0 0 0 0 0 0 0 0 0 0 0 0 0 0 0 0 0 0 0
0.16623 3.28669e-07 1.52062e-07 1.76606e-07 0.537339 0.885783 0 0 0 0 0 0 0 0 0 0 0 0 0 0 0 0 0 0 0 0 0 0 0 0 0 0 0 0 0 0 0 0 0 0 0 0 0 0 0 0 0 0
0.174762 3.29235e-07 1.53478e-07 1.75757e-07 0.533833 0.892661 0 0 0 0 0 0 0 0 0 0 0 0 0 0 0 0 0 0 0 0 0 0 0 0 0 0 0 0 0 0 0 0 0 0 0 0 0 0 0 0 0 0
0.183733 3.29799e-07 1.53896e-07 1.75903e-07 0.533365 0.898796 0 0 0 0 0 0 0 0 0 0 0 0 0 0 0 0 0 0 0 0 0 0 0 0 0 0 0 0 0 0 0 0 0 0 0 0 0 0 0 0 0 0
0.193164 3.31523e-07 1.50172e-07 1.81352e-07 0.547025 0.903986 0 0 0 0 0 0 0 0 0 0 0 0 0 0 0 0 0 0 0 0 0 0 0 0 0 0 0 0 0 0 0 0 0 0 0 0 0 0 0 0 0 0
0.203079 3.31838e-07 1.50759e-07 1.81079e-07 0.545685 0.908369 0 0 0 0 0 0 0 0 0 0 0 0 0 0 0 0 0 0 0 0 0 0 0 0 0 0 0 0 0 0 0 0 0 0 0 0 0 0 0 0 0 0
0.213503 3.31524e-07 1.52721e-07 1.78803e-07 0.539335 0.912069 0 0 0 0 0 0 0 0 0 0 0 0 0 0 0 0 0 0 0 0 0 0 0 0 0 0 0 0 0 0 0 0 0 0 0 0 0 0 0 0 0 0
0.224463 3.31299e-07 1.54146e-07 1.77153e-07 0.534721 0.914947 0 0 0 0 0 0 0 0 0 0 0 0 0 0 0 0 0 0 0 0 0 0 0 0 0 0 0 0 0 0 0 0 0 0 0 0 0 0 0 0 0 0
0.235984 3.31169e-07 1.55584e-07 1.75585e-07 0.530198 0.917079 0 0 0 0 0 0 0 0 0 0 0 0 0 0 0 0 0 0 0 0 0 0 0 0 0 0 0 0 0 0 0 0 0 0 0 0 0 0 0 0 0 0
0.248097 3.3118e-07 1.56823e-07 1.74357e-07 0.526471 0.918725 0 0 0 0 0 0 0 0 0 0 0 0 0 0 0 0 0 0 0 0 0 0 0 0 0 0 0 0 0 0 0 0 0 0 0 0 0 0 0 0 0 0
0.260832 3.31396e-07 1.57865e-07 1.73531e-07 0.523636 0.919865 0 0 0 0 0 0 0 0 0 0 0 0 0 0 0 0 0 0 0 0 0 0 0 0 0 0 0 0 0 0 0 0 0 0 0 0 0 0 0 0 0 0
0.274221 3.31761e-07 1.58732e-07 1.73029e-07 0.521548 0.920809 0 0 0 0 0 0 0 0 0 0 0 0 0 0 0 0 0 0 0 0 0 0 0 0 0 0 0 0 0 0 0 0 0 0 0 0 0 0 0 0 0 0
0.288297 3.32242e-07 1.59448e-07 1.72794e-07 0.520085 0.921646 0 0 0 0 0 0 0 0 0 0 0 0 0 0 0 0 0 0 0 0 0 0 0 0 0 0 0 0 0 0 0 0 0 0 0 0 0 0 0 0 0 0
0.303095 3.32796e-07 1.60066e-07 1.7273e-07 0.519028 0.921503 0 0 0 0 0 0 0 0 0 0 0 0 0 0 0 0 0 0 0 0 0 0 0 0 0 0 0 0 0 0 0 0 0 0 0 0 0 0 0 0 0 0
0.318653 3.33437e-07 1.60623e-07 1.72814e-07 0.518281 0.921735 0 0 0 0 0 0 0 0 0 0 0 0 0 0 0 0 0 0 0 0 0 0 0 0 0 0 0 0 0 0 0 0 0 0 0 0 0 0 0 0 0 0
0.335009 3.34138e-07 1.61132e-07 1.73006e-07 0.517767 0.921887 0 0 0 0 0 0 0 0 0 0 0 0 0 0 0 0 0 0 0 0 0 0 0 0 0 0 0 0 0 0 0 0 0 0 0 0 0 0 0 0 0 0
0.352205 3.34906e-07 1.61628e-07 1.73279e-07 0.517394 0.920963 0 0 0 0 0 0 0 0 0 0 0 0 0 0 0 0 0 0 0 0 0 0 0 0 0 0 0 0 0 0 0 0 0 0 0 0 0 0 0 0 0 0
0.370284 3.35717e-07 1.62104e-07 1.73613e-07 0.517141 0.921134 0 0 0 0 0 0 0 0 0 0 0 0 0 0 0 0 0 0 0 0 0 0 0 0 0 0 0 0 0 0 0 0 0 0 0 0 0 0 0 0 0 0
0.389291 3.36576e-07 1.6258e-07 1.73997e-07 0.51696 0.919788 0 0 0 0 0 0 0 0 0 0 0 0 0 0 0 0 0 0 0 0 0 0 0 0 0 0 0 0 0 0 0 0 0 0 0 0 0 0 0 0 0 0
0.409273 3.37485e-07 1.63065e-07 1.74419e-07 0.516822 0.918819 0 0 0 0 0 0 0 0 0 0 0 0 0 0 0 0 0 0 0 0 0 0 0 0 0 0 0 0 0 0 0 0 0 0 0 0 0 0 0 0 0 0
0.430281 3.38445e-07 1.63557e-07 1.74887e-07 0.516738 0.918492 0 0 0 0 0 0 0 0 0 0 0 0 0 0 0 0 0 0 0 0 0 0 0 0 0 0 0 0 0 0 0 0 0 0 0 0 0 0 0 0 0 0
0.452368 3.39445e-07 1.64063e-07 1.75383e-07 0.516674 0.915467 0 0 0 0 0 0 0 0 0 0 0 0 0 0 0 0 0 0 0 0 0 0 0 0 0 0 0 0 0 0 0 0 0 0 0 0 0 0 0 0 0 0
0.475588 3.40501e-07 1.64588e-07 1.75913e-07 0.51663 0.915239 0 0 0 0 0 0 0 0 0 0 0 0 0 0 0 0 0 0 0 0 0 0 0 0 0 0 0 0 0 0 0 0 0 0 0 0 0 0 0 0 0 0
0.5 3.41606e-07 1.65128e-07 1.76478e-07 0.516612 0.912917 0 0 0 0 0 0 0 0 0 0 0 0 0 0 0 0 0 0 0 0 0 0 0 0 0 0 0 0 0 0 0 0 0 0 0 0 0 0 0 0 0 0
0.525665 3.42771e-07 1.65693e-07 1.77078e-07 0.516607 0.909669 0 0 0 0 0 0 0 0 0 0 0 0 0 0 0 0 0 0 0 0 0 0 0 0 0 0 0 0 0 0 0 0 0 0 0 0 0 0 0 0 0 0
0.552648 3.43985e-07 1.66278e-07 1.77706e-07 0.516612 0.908602 0 0 0 0 0 0 0 0 0 0 0 0 0 0 0 0 0 0 0 0 0 0 0 0 0 0 0 0 0 0 0 0 0 0 0 0 0 0 0 0 0 0
0.581015 3.45272e-07 1.66897e-07 1.78375e-07 0.516622 0.906122 0 0 0 0 0 0 0 0 0 0 0 0 0 0 0 0 0 0 0 0 0 0 0 0 0 0 0 0 0 0 0 0 0 0 0 0 0 0 0 0 0 0
0.610839 3.46606e-07 1.6754e-07 1.79066e-07 0.516627 0.902164 0 0 0 0 0 0 0 0 0 0 0 0 0 0 0 0 0 0 0 0 0 0 0 0 0 0 0 0 0 0 0 0 0 0 0 0 0 0 0 0 0 0
0.642193 3.48022e-07 1.68213e-07 1.7981e-07 0.516662 0.899468 0 0 0 0 0 0 0 0 0 0 0 0 0 0 0 0 0 0 0 0 0 0 0 0 0 0 0 0 0 0 0 0 0 0 0 0 0 0 0 0 0 0
0.675157 3.49486e-07 1.6891e-07 1.80576e-07 0.516691 0.895997 0 0 0 0 0 0 0 0 0 0 0 0 0 0 0 0 0 0 0 0 0 0 0 0 0 0 0 0 0 0 0 0 0 0 0 0 0 0 0 0 0 0
0.709813 3.51059e-07 1.69666e-07 1.81393e-07 0.516702 0.890379 0 0 0 0 0 0 0 0 0 0 0 0 0 0 0 0 0 0 0 0 0 0 0 0 0 0 0 0 0 0 0 0 0 0 0 0 0 0 0 0 0 0
0.746248 3.52707e-07 1.70451e-07 1.82256e-07 0.516735 0.885885 0 0 0 0 0 0 0 0 0 0 0 0 0 0 0 0 0 0 0 0 0 0 0 0 0 0 0 0 0 0 0 0 0 0 0 0 0 0 0 0 0 0
0.784553 3.5443e-07 1.71279e-07 1.83151e-07 0.516748 0.885177 0 0 0 0 0 0 0 0 0 0 0 0 0 0 0 0 0 0 0 0 0 0 0 0 0 0 0 0 0 0 0 0 0 0 0 0 0 0 0 0 0 0
0.824824 3.56254e-07 1.72161e-07 1.84093e-07 0.516747 0.884159 0 0 0 0 0 0 0 0 0 0 0 0 0 0 0 0 0 0 0 0 0 0 0 0 0 0 0 0 0 0 0 0 0 0 0 0 0 0 0 0 0 0
0.867162 3.58216e-07 1.73013e-07 1.85203e-07 0.517014 0.877485 0 0 0 0 0 0 0 0 0 0 0 0 0 0 0 0 0 0 0 0 0 0 0 0 0 0 0 0 0 0 0 0 0 0 0 0 0 0 0 0 0 0
0.911674 3.61041e-07 1.73689e-07 1.87353e-07 0.518923 0.867567 0 0 0 0 0 0 0 0 0 0 0 0 0 0 0 0 0 0 0 0 0 0 0 0 0 0 0 0 0 0 0 0 0 0 0 0 0 0 0 0 0 0
0.95847 3.68144e-07 1.74306e-07 1.93837e-07 0.526526 0.858825 0 0 0 0 0 0 0 0 0 0 0 0 0 0 0 0 0 0 0 0 0 0 0 0 0 0 0 0 0 0 0 0 0 0 0 0 0 0 0 0 0 0
1.00767 3.78263e-07 1.74789e-07 2.03474e-07 0.537917 0.854895 0 0 0 0 0 0 0 0 0 0 0 0 0 0 0 0 0 0 0 0 0 0 0 0 0 0 0 0 0 0 0 0 0 0 0 0 0 0 0 0 0 0
1.05939 3.85521e-07 1.76187e-07 2.09334e-07 0.54299 0.855091 0 0 0 0 0 0 0 0 0 0 0 0 0 0 0 0 0 0 0 0 0 0 0 0 0 0 0 0 0 0 0 0 0 0 0 0 0 0 0 0 0 0
1.11377 3.86798e-07 1.77385e-07 2.09414e-07 0.541403 0.852442 0 0 0 0 0 0 0 0 0 0 0 0 0 0 0 0 0 0 0 0 0 0 0 0 0 0 0 0 0 0 0 0 0 0 0 0 0 0 0 0 0 0
1.17094 3.83728e-07 1.79017e-07 2.04711e-07 0.533479 0.841161 0 0 0 0 0 0 0 0 0 0 0 0 0 0 0 0 0 0 0 0 0 0 0 0 0 0 0 0 0 0 0 0 0 0 0 0 0 0 0 0 0 0
1.23105 3.79846e-07 1.80499e-07 1.99347e-07 0.52481 0.826401 0 0 0 0 0 0 0 0 0 0 0 0 0 0 0 0 0 0 0 0 0 0 0 0 0 0 0 0 0 0 0 0 0 0 0 0 0 0 0 0 0 0
1.29424 3.78138e-07 1.82268e-07 1.9587e-07 0.517985 0.808402 0 0 0 0 0 0 0 0 0 0 0 0 0 0 0 0 0 0 0 0 0 0 0 0 0 0 0 0 0 0 0 0 0 0 0 0 0 0 0 0 0 0
1.36067 3.79505e-07 1.83371e-07 1.96134e-07 0.516816 0.796397 0 0 0 0 0 0 0 0 0 0 0 0 0 0 0 0 0 0 0 0 0 0 0 0 0 0 0 0 0 0 0 0 0 0 0 0 0 0 0 0 0 0
1.43051 3.84631e-07 1.84772e-07 1.99859e-07 0.519612 0.79973 0 0 0 0 0 0 0 0 0 0 0 0 0 0 0 0 0 0 0 0 0 0 0 0 0 0 0 0 0 0 0 0 0 0 0 0 0 0 0 0 0 0
1.50394 3.90987e-07 1.86269e-07 2.04717e-07 0.523592 0.809725 0 0 0 0 0 0 0 0 0 0 0 0 0 0 0 0 0 0 0 0 0 0 0 0 0 0 0 0 0 0 0 0 0 0 0 0 0 0 0 0 0 0
1.58114 3.95906e-07 1.86906e-07 2.09e-07 0.527904 0.825135 0 0 0 0 0 0 0 0 0 0 0 0 0 0 0 0 0 0 0 0 0 0 0 0 0 0 0 0 0 0 0 0 0 0 0 0 0 0 0 0 0 0
1.6623 3.98582e-07 1.88095e-07 2.10488e-07 0.528091 0.835973 0 0 0 0 0 0 0 0 0 0 0 0 0 0 0 0 0 0 0 0 0 0 0 0 0 0 0 0 0 0 0 0 0 0 0 0 0 0 0 0 0 0
1.74763 3.98413e-07 1.89297e-07 2.09116e-07 0.524873 0.834867 0 0 0 0 0 0 0 0 0 0 0 0 0 0 0 0 0 0 0 0 0 0 0 0 0 0 0 0 0 0 0 0 0 0 0 0 0 0 0 0 0 0
1.83733 3.9626e-07 1.89617e-07 2.06642e-07 0.521482 0.829092 0 0 0 0 0 0 0 0 0 0 0 0 0 0 0 0 0 0 0 0 0 0 0 0 0 0 0 0 0 0 0 0 0 0 0 0 0 0 0 0 0 0
1.93164 3.93947e-07 1.91472e-07 2.02474e-07 0.513964 0.800374 0 0 0 0 0 0 0 0 0 0 0 0 0 0 0 0 0 0 0 0 0 0 0 0 0 0 0 0 0 0 0 0 0 0 0 0 0 0 0 0 0 0
2.03079 3.93202e-07 1.92188e-07 2.01014e-07 0.511223 0.771587 0 0 0 0 0 0 0 0 0 0 0 0 0 0 0 0 0 0 0 0 0 0 0 0 0 0 0 0 0 0 0 0 0 0 0 0 0 0 0 0 0 0
2.13503 3.96406e-07 1.93858e-07 2.02548e-07 0.510961 0.713983 0 0 0 0 0 0 0 0 0 0 0 0 0 0 0 0 0 0 0 0 0 0 0 0 0 0 0 0 0 0 0 0 0 0 0 0 0 0 0 0 0 0
2.24463 4.01511e-07 1.94479e-07 2.07032e-07 0.515631 0.651582 0 0 0 0 0 0 0 0 0 0 0 0 0 0 0 0 0 0 0 0 0 0 0 0 0 0 0 0 0 0 0 0 0 0 0 0 0 0 0 0 0 0
2.35984 4.12454e-07 1.96598e-07 2.15856e-07 0.523345 0.607175 0 0 0 0 0 0 0 0 0 0 0 0 0 0 0 0 0 0 0 0 0 0 0 0 0 0 0 0 0 0 0 0 0 0 0 0 0 0 0 0 0 0
2.48097 4.23529e-07 1.97763e-07 2.25766e-07 0.533058 0.538275 0 0 0 0 0 0 0 0 0 0 0 0 0 0 0 0 0 0 0 0 0 0 0 0 0 0 0 0 0 0 0 0 0 0 0 0 0 0 0 0 0 0
2.60832 4.37725e-07 1.98301e-07 2.39424e-07 0.546973 0.5424 0 0 0 0 0 0 0 0 0 0 0 0 0 0 0 0 0 0 0 0 0 0 0 0 0 0 0 0 0 0 0 0 0 0 0 0 0 0 0 0 0 0
2.74221 4.52863e-07 2.00176e-07 2.52686e-07 0.557976 0.542999 0 0 0 0 0 0 0 0 0 0 0 0 0 0 0 0 0 0 0 0 0 0 0 0 0 0 0 0 0 0 0 0 0 0 0 0 0 0 0 0 0 0
2.88297 4.64921e-07 2.01605e-07 2.63315e-07 0.566366 0.55504 0 0 0 0 0 0 0 0 0 0 0 0 0 0 0 0 0 0 0 0 0 0 0 0 0 0 0 0 0 0 0 0 0 0 0 0 0 0 0 0 0 0
3.03095 4.76092e-07 2.03154e-07 2.72938e-07 0.573288 0.604858 0 0 0 0 0 0 0 0 0 0 0 0 0 0 0 0 0 0 0 0 0 0 0 0 0 0 0 0 0 0 0 0 0 0 0 0 0 0 0 0 0 0
3.18653 4.86227e-07 2.04637e-07 2.8159e-07 0.579133 0.626472 0 0 0 0 0 0 0 0 0 0 0 0 0 0 0 0 0 0 0 0 0 0 0 0 0 0 0 0 0 0 0 0 0 0 0 0 0 0 0 0 0 0
3.35009 4.92134e-07 2.06141e-07 2.85993e-07 0.581129 0.653807 0 0 0 0 0 0 0 0 0 0 0 0 0 0 0 0 0 0 0 0 0 0 0 0 0 0 0 0 0 0 0 0 0 0 0 0 0 0 0 0 0 0
3.52205 4.95534e-07 2.0872e-07 2.86813e-07 0.578797 0.67974 0 0 0 0 0 0 0 0 0 0 0 0 0 0 0 0 0 0 0 0 0 0 0 0 0 0 0 0 0 0 0 0 0 0 0 0 0 0 0 0 0 0
3.70284 5.0509e-07 2.05331e-07 2.99759e-07 0.593476 0.693857 0 0 0 0 0 0 0 0 0 0 0 0 0 0 0 0 0 0 0 0 0 0 0 0 0 0 0 0 0 0 0 0 0 0 0 0 0 0 0 0 0 0
3.89291 5.07847e-07 2.04436e-07 3.03411e-07 0.597445 0.703164 0 0 0 0 0 0 0 0 0 0 0 0 0 0 0 0 0 0 0 0 0 0 0 0 0 0 0 0 0 0 0 0 0 0 0 0 0 0 0 0 0 0
4.09273 5.07757e-07 2.04512e-07 3.03245e-07 0.597224 0.720255 0 0 0 0 0 0 0 0 0 0 0 0 0 0 0 0 0 0 0 0 0 0 0 0 0 0 0 0 0 0 0 0 0 0 0 0 0 0 0 0 0 0
4.30281 5.03846e-07 2.04751e-07 2.99096e-07 0.593625 0.722966 0 0 0 0 0 0 0 0 0 0 0 0 0 0 0 0 0 0 0 0 0 0 0 0 0 0 0 0 0 0 0 0 0 0 0 0 0 0 0 0 0 0
4.52368 4.95415e-07 2.03875e-07 2.91539e-07 0.588476 0.718009 0 0 0 0 0 0 0 0 0 0 0 0 0 0 0 0 0 0 0 0 0 0 0 0 0 0 0 0 0 0 0 0 0 0 0 0 0 0 0 0 0 0
4.75588 4.84095e-07 2.02146e-07 2.81949e-07 0.582426 0.713601 0 0 0 0 0 0 0 0 0 0 0 0 0 0 0 0 0 0 0 0 0 0 0 0 0 0 0 0 0 0 0 0 0 0 0 0 0 0 0 0 0 0
5 4.72184e-07 2.00912e-07 2.71272e-07 0.574505 0.719706 0 0 0 0 0 0 0 0 0 0 0 0 0 0 0 0 0 0 0 0 0 0 0 0 0 0 0 0 0 0 0 0 0 0 0 0 0 0 0 0 0 0
5.25665 4.60235e-07 2.0081e-07 2.59425e-07 0.56368 0.726076 0 0 0 0 0 0 0 0 0 0 0 0 0 0 0 0 0 0 0 0 0 0 0 0 0 0 0 0 0 0 0 0 0 0 0 0 0 0 0 0 0 0
5.52648 4.47152e-07 2.01207e-07 2.45945e-07 0.550025 0.720402 0 0 0 0 0 0 0 0 0 0 0 0 0 0 0 0 0 0 0 0 0 0 0 0 0 0 0 0 0 0 0 0 0 0 0 0 0 0 0 0 0 0
5.81015 4.31949e-07 2.00876e-07 2.31073e-07 0.534955 0.701578 0 0 0 0 0 0 0 0 0 0 0 0 0 0 0 0 0 0 0 0 0 0 0 0 0 0 0 0 0 0 0 0 0 0 0 0 0 0 0 0 0 0
6.10839 4.14498e-07 1.99116e-07 2.15382e-07 0.51962 0.677366 0 0 0 0 0 0 0 0 0 0 0 0 0 0 0 0 0 0 0 0 0 0 0 0 0 0 0 0 0 0 0 0 0 0 0 0 0 0 0 0 0 0
6.42193 3.95689e-07 1.96145e-07 1.99543e-07 0.504294 0.661121 0 0 0 0 0 0 0 0 0 0 0 0 0 0 0 0 0 0 0 0 0 0 0 0 0 0 0 0 0 0 0 0 0 0 0 0 0 0 0 0 0 0
6.75157 3.75559e-07 1.92726e-07 1.82833e-07 0.48683 0.659027 0 0 0 0 0 0 0 0 0 0 0 0 0 0 0 0 0 0 0 0 0 0 0 0 0 0 0 0 0 0 0 0 0 0 0 0 0 0 0 0 0 0
7.09813 3.5691e-07 1.89208e-07 1.67702e-07 0.469871 0.663082 0 0 0 0 0 0 0 0 0 0 0 0 0 0 0 0 0 0 0 0 0 0 0 0 0 0 0 0 0 0 0 0 0 0 0 0 0 0 0 0 1.4013e-45 0
7.46248 3.34121e-07 1.84968e-07 1.49153e-07 0.446405 0.650138 0 0 0 0 0 0 0 0 0 0 0 0 0 0 0 0 0 0 0 0 0 0 0 0 0 0 0 0 0 0 1.4013e-45 0 4.2039e-45 0 1.4013e-44 0 4.06377e-44 0 1.06499e-43 0 2.70451e-43 0
7.84553 3.0392e-07 1.78353e-07 1.25567e-07 0.413157 0.603057 0 0 0 0 0 0 0 0 0 0 0 0 0 0 0 0 0 0 0 0 0 0 1.4013e-45 0 4.2039e-45 0 1.96182e-44 0 7.56701e-44 0 2.56438e-43 0 8.21161e-43 0 2.31495e-42 0 6.18813e-42 0 1.57142e-41 0 3.7992e-41 0
8.24824 2.71533e-07 1.7724e-07 9.42937e-08 0.347264 0.553299 0 0 0 0 0 0 0 0 0 0 0 0 0 0 0 0 0 0 4.2039e-45 0 3.08286e-44 0 1.7236e-43 0 7.90332e-43 0 3.22579e-42 0 1.14318e-41 0 3.67196e-41 0 1.11152e-40 0 2.97992e-40 0 7.59116e-40 0 1.84179e-39 0 4.26512e-39 0
8.67162 2.65887e-07 1.87022e-07 7.8865e-08 0.296611 0.513381 0 0 0 0 0 0 0 0 0 0 0 0 0 0 8.40779e-45 0 9.94922e-44 0 8.18358e-43 0 5.16378e-42 0 2.64958e-41 0 1.12451e-40 0 4.28374e-40 0 1.42702e-39 0 4.32993e-39 0 1.24168e-38 0 3.17237e-38 0 7.72074e-38 0 1.79389e-37 0 3.98733e-37 0
9.11674 2.9315e-07 2.10799e-07 8.23512e-08 0.280918 0.476023 0 0 0 0 0 0 0 0 0 0 4.2039e-45 0 1.06499e-43 0 1.65774e-42 0 1.6583e-41 0 1.23012e-40 0 7.08952e-40 0 3.3584e-39 0 1.32825e-38 0 4.74e-38 0 1.48892e-37 0 4.27942e-37 0 1.16567e-36 0 2.84485e-36 0 6.62943e-36 0 1.47821e-35 0 3.16e-35 0
9.5847 3.44461e-07 2.36887e-07 1.07575e-07 0.312298 0.445377 0 0 0 0 0 0 0 0 1.4013e-44 0 7.553e-43 0 1.75681e-41 0 2.38348e-40 0 2.13065e-39 0 1.43315e-38 0 7.58268e-38 0 3.32934e-37 0 1.23126e-36 0 4.12927e-36 0 1.22658e-35 0 3.34829e-35 0 8.68491e-35 0 2.02923e-34 0 4.53742e-34 0 9.72895e-34 0 2.00404e-33 0
10.0767 3.82963e-07 2.50587e-07 1.32376e-07 0.345662 0.409169 0 0 0 0 0 0 1.26117e-44 0 2.29533e-42 0 1.05518e-40 0 2.10502e-39 0 2.51444e-38 0 2.01974e-37 0 1.23783e-36 0 6.03761e-36 0 2.4662e-35 0 8.55637e-35 0 2.70492e-34 0 7.61889e-34 0 1.98028e-33 0 4.90296e-33 0 1.09908e-32 0 2.36289e-32 0 4.88121e-32 0 9.7061e-32 0
10.5939 4.00518e-07 2.5403e-07 1.46488e-07 0.365746 0.370866 0 0 0 0 1.4013e-45 0 2.11036e-42 0 2.88419e-40 0 1.09957e-38 0 1.89534e-37 0 2.00577e-36 0 1.45531e-35 0 8.16353e-35 0 3.68538e-34 0 1.40542e-33 0 4.5887e-33 0 1.37135e-32 0 3.67222e-32 0 9.10979e-32 0 2.15783e-31 0 4.6502e-31 0 9.63066e-31 0 1.92025e-30 0 3.69232e-30 0
11.1377 4.10561e-07 2.548e-07 1.55761e-07 0.379386 0.342831 0 0 0 0 2.46629e-43 0 2.60415e-40 0 2.79881e-38 0 8.93245e-37 0 1.33988e-35 0 1.26367e-34 0 8.32314e-34 0 4.29185e-33 0 1.80007e-32 0 6.43028e-32 0 1.98163e-31 0 5.61396e-31 0 1.43272e-30 0 3.39999e-30 0 7.72149e-30 0 1.60279e-29 0 3.20348e-29 0 6.17576e-29 0 1.15019e-28 0
11.7094 4.07094e-07 2.49612e-07 1.57482e-07 0.386843 0.322609 0 0 0 0 3.25816e-41 0 2.4507e-38 0 2.09615e-36 0 5.64921e-35 0 7.4244e-34 0 6.27548e-33 0 3.76991e-32 0 1.79435e-31 0 7.017e-31 0 2.35557e-30 0 6.87108e-30 0 1.85008e-29 0 4.51042e-29 0 1.02614e-28 0 2.23892e-28 0 4.48464e-28 0 8.66546e-28 0 1.61786e-27 0 2.92304e-27 0
12.3105 3.80992e-07 2.33522e-07 1.4747e-07 0.387068 0.313889 0 0 2.10195e-44 0 3.19834e-39 0 1.74103e-36 0 1.19841e-34 0 2.74995e-33 0 3.18699e-32 0 2.42721e-31 0 1.33589e-30 0 5.89206e-30 0 2.15573e-29 0 6.82121e-29 0 1.88838e-28 0 4.84454e-28 0 1.13079e-27 0 2.47141e-27 0 5.19079e-27 0 1.00506e-26 0 1.88057e-26 0 3.40565e-26 0 5.97792e-26 0
12.9424 3.32258e-07 2.11734e-07 1.20524e-07 0.362743 0.311162 0 0 2.81801e-42 0 2.39498e-37 0 9.58534e-35 0 5.36632e-33 0 1.05672e-31 0 1.08659e-30 0 7.49448e-30 0 3.79529e-29 0 1.55694e-28 0 5.34684e-28 0 1.59933e-27 0 4.21284e-27 0 1.03219e-26 0 2.31163e-26 0 4.86296e-26 0 9.85039e-26 0 1.84672e-25 0 3.3513e-25 0 5.89566e-25 0 1.00682e-24 0
13.6067 2.9948e-07 1.9921e-07 1.0027e-07 0.334814 0.296983 1.4013e-45 0 3.03488e-40 0 1.48196e-35 0 4.42678e-33 0 2.03615e-31 0 3.46658e-30 0 3.18119e-29 0 1.99673e-28 0 9.34169e-28 0 3.57704e-27 0 1.15661e-26 0 3.27941e-26 0 8.23939e-26 0 1.93232e-25 0 4.16045e-25 0 8.44022e-25 0 1.65173e-24 0 3.00304e-24 0 5.29343e-24 0 9.05896e-24 0 1.50713e-23 0
14.3051 2.72404e-07 1.90073e-07 8.23311e-08 0.302239 0.254646 2.36819e-43 0 2.59787e-38 0 7.48845e-34 0 1.69352e-31 0 6.46147e-30 0 9.57892e-29 0 7.88866e-28 0 4.52673e-27 0 1.96414e-26 0 7.04372e-26 0 2.15071e-25 0 5.79551e-25 0 1.39206e-24 0 3.13161e-24 0 6.49483e-24 0 1.27286e-23 0 2.41063e-23 0 4.25673e-23 0 7.29849e-23 0 1.21669e-22 0 1.97451e-22 0
