# 0.000732202 2 95 : grain size, compostion index, size index
# This grain was stochastically heated: No
# Heating and cooling timescale: 6.23318e-05 4.87811e+14
# Ratio of heating to cooling to determine stochastic cutoff: 100
# Equilibrium emission is recorded even for those grains in the stochastic regime.
# Emission spectrum was computed for: 
# Type: IRSF
# Scale: 1
# Temperature: -1
# Wavelength  CExt  CAbs  CSca  Albedo G EqEmission StEmission
0.05 3.39983e-06 1.19678e-06 2.20305e-06 0.647988 0.855157 0 0
0.0525665 3.40144e-06 1.17787e-06 2.22357e-06 0.653714 0.842795 0 0
0.0552647 3.40313e-06 1.16375e-06 2.23937e-06 0.658034 0.832538 0 0
0.0581015 3.40476e-06 1.15768e-06 2.24708e-06 0.659981 0.826258 0 0
0.0610839 3.40641e-06 1.14173e-06 2.26469e-06 0.664831 0.817609 0 0
0.0642193 3.40843e-06 1.10132e-06 2.30711e-06 0.676884 0.799541 0 0
0.0675157 3.41094e-06 1.06154e-06 2.3494e-06 0.688783 0.779804 0 0
0.0709813 3.41363e-06 1.0587e-06 2.35493e-06 0.689861 0.772801 0 0
0.0746248 3.41622e-06 1.07611e-06 2.34011e-06 0.684999 0.774188 0 0
0.0784553 3.41869e-06 1.09985e-06 2.31884e-06 0.678283 0.779087 0 0
0.0824824 3.42114e-06 1.12689e-06 2.29425e-06 0.670611 0.784945 0 0
0.0867162 3.42363e-06 1.13426e-06 2.28938e-06 0.668698 0.783869 0 0
0.0911674 3.42643e-06 1.13067e-06 2.29577e-06 0.670016 0.778804 0 0
0.095847 3.42929e-06 1.13743e-06 2.29187e-06 0.66832 0.77708 0 0
0.100767 3.43127e-06 1.17894e-06 2.25233e-06 0.656413 0.78839 0 0
0.105939 3.43267e-06 1.22013e-06 2.21254e-06 0.644553 0.802857 0 0
0.111377 3.43267e-06 1.29363e-06 2.13903e-06 0.623141 0.830473 0 0
0.117094 3.43256e-06 1.36836e-06 2.0642e-06 0.601359 0.862456 0 0
0.123105 3.43359e-06 1.41705e-06 2.01654e-06 0.587299 0.88485 0 0
0.129424 3.43504e-06 1.45873e-06 1.97631e-06 0.575339 0.904602 0 0
0.136067 3.43653e-06 1.49238e-06 1.94415e-06 0.565731 0.920615 0 0
0.143051 3.43754e-06 1.51862e-06 1.91892e-06 0.558225 0.933103 0 0
0.150394 3.43762e-06 1.5332e-06 1.90442e-06 0.553995 0.94115 0 0
0.158114 3.43755e-06 1.52719e-06 1.91036e-06 0.555733 0.942025 0 0
0.16623 3.43912e-06 1.49007e-06 1.94905e-06 0.56673 0.931396 0 0
0.174762 3.44326e-06 1.41892e-06 2.02433e-06 0.587912 0.905362 0 0
0.183733 3.44852e-06 1.33041e-06 2.11811e-06 0.614209 0.870235 0 0
0.193164 3.45443e-06 1.23914e-06 2.21529e-06 0.641289 0.834102 0 0
0.203079 3.46078e-06 1.1605e-06 2.30028e-06 0.664671 0.804274 0 0
0.213503 3.46774e-06 1.09359e-06 2.37415e-06 0.684639 0.780056 0 0
0.224463 3.47593e-06 1.05079e-06 2.42514e-06 0.697694 0.763382 0 0
0.235984 3.48517e-06 1.02913e-06 2.45604e-06 0.704711 0.752217 0 0
0.248097 3.49474e-06 1.03979e-06 2.45495e-06 0.702469 0.748616 0 0
0.260832 3.50167e-06 1.06966e-06 2.432e-06 0.694528 0.750656 0 0
0.274221 3.5055e-06 1.1031e-06 2.4024e-06 0.685324 0.754609 0 0
0.288297 3.5064e-06 1.14401e-06 2.3624e-06 0.673738 0.76371 0 0
0.303095 3.50808e-06 1.17232e-06 2.33575e-06 0.665821 0.770687 0 0
0.318653 3.51013e-06 1.19563e-06 2.3145e-06 0.659377 0.776838 0 0
0.335009 3.51284e-06 1.2145e-06 2.29834e-06 0.654269 0.782146 0 0
0.352205 3.51627e-06 1.22815e-06 2.28812e-06 0.650723 0.785897 0 0
0.370284 3.52024e-06 1.23777e-06 2.28247e-06 0.648385 0.788212 0 0
0.389291 3.52454e-06 1.24385e-06 2.28069e-06 0.647089 0.789091 0 0
0.409273 3.52902e-06 1.24892e-06 2.2801e-06 0.646099 0.789608 0 0
0.430281 3.5336e-06 1.25355e-06 2.28006e-06 0.645249 0.789962 0 0
0.452368 3.53847e-06 1.25832e-06 2.28015e-06 0.64439 0.7905 0 0
0.475588 3.54353e-06 1.26289e-06 2.28065e-06 0.643608 0.790983 0 0
0.5 3.54893e-06 1.26681e-06 2.28213e-06 0.643045 0.791208 0 0
0.525665 3.55465e-06 1.27035e-06 2.2843e-06 0.642623 0.791274 0 0
0.552647 3.56056e-06 1.27369e-06 2.28687e-06 0.642279 0.791218 0 0
0.581015 3.56694e-06 1.27516e-06 2.29178e-06 0.642506 0.790379 0 0
0.610839 3.57351e-06 1.27662e-06 2.29688e-06 0.642753 0.789498 0 0
0.642193 3.58027e-06 1.27807e-06 2.3022e-06 0.643025 0.788571 0 0
0.675157 3.58729e-06 1.27882e-06 2.30847e-06 0.643514 0.787329 0 0
0.709813 3.59453e-06 1.27893e-06 2.3156e-06 0.644202 0.785792 0 0
0.746248 3.60196e-06 1.27874e-06 2.32322e-06 0.644987 0.784096 0 0
0.784553 3.60956e-06 1.27849e-06 2.33106e-06 0.645803 0.782354 0 0
0.824824 3.61729e-06 1.27819e-06 2.3391e-06 0.646644 0.780554 0 0
0.867162 3.62517e-06 1.27782e-06 2.34734e-06 0.647513 0.778701 0 0
0.911674 3.63315e-06 1.27747e-06 2.35568e-06 0.648384 0.776831 0 0
0.95847 3.64122e-06 1.27733e-06 2.36389e-06 0.649202 0.774997 0 0
1.00767 3.64941e-06 1.27718e-06 2.37223e-06 0.650031 0.773144 0 0
1.05939 3.65768e-06 1.2774e-06 2.38028e-06 0.650761 0.771379 0 0
1.11377 3.66592e-06 1.2775e-06 2.38842e-06 0.651521 0.769549 0 0
1.17094 3.67402e-06 1.27792e-06 2.3961e-06 0.652175 0.767773 0 0
1.23105 3.68299e-06 1.27825e-06 2.40474e-06 0.652931 0.766002 0 0
1.29424 3.69379e-06 1.27798e-06 2.41581e-06 0.65402 0.764132 0 0
1.36067 3.7018e-06 1.27752e-06 2.42428e-06 0.654893 0.762044 0 0
1.43051 3.70697e-06 1.27671e-06 2.43026e-06 0.655593 0.759673 0 0
1.50394 3.72446e-06 1.27542e-06 2.44904e-06 0.657556 0.757989 0 0
1.58114 3.72657e-06 1.27313e-06 2.45344e-06 0.658365 0.755012 0 0
1.6623 3.74054e-06 1.26963e-06 2.47091e-06 0.660576 0.752553 0 0
1.74762 3.75173e-06 1.26466e-06 2.48707e-06 0.662912 0.74962 0 0
1.83733 3.75678e-06 1.25881e-06 2.49796e-06 0.664922 0.745901 0 0
1.93164 3.77133e-06 1.25206e-06 2.51927e-06 0.668005 0.742569 0 0
2.03079 3.78527e-06 1.24476e-06 2.54051e-06 0.671157 0.73924 0 0
2.13503 3.77687e-06 1.23427e-06 2.54259e-06 0.673202 0.733928 0 0
2.24463 3.82846e-06 1.22464e-06 2.60382e-06 0.680121 0.732433 0 0
2.35984 3.78155e-06 1.21625e-06 2.5653e-06 0.678373 0.723867 0 0
2.48097 3.83666e-06 1.20587e-06 2.63078e-06 0.685697 0.723662 0 0
2.60832 3.86124e-06 1.19097e-06 2.67027e-06 0.691559 0.718517 0 0
2.74221 3.7995e-06 1.1814e-06 2.6181e-06 0.689065 0.707486 0 0
2.88297 3.8775e-06 1.162e-06 2.7155e-06 0.700321 0.71025 1.41516e-293 0
3.03095 3.91044e-06 1.16019e-06 2.75025e-06 0.70331 0.707038 4.71572e-279 0
3.18653 3.83749e-06 1.14276e-06 2.69472e-06 0.70221 0.694242 2.99218e-265 0
3.35009 3.86697e-06 1.1301e-06 2.73686e-06 0.707754 0.690358 3.98731e-252 0
3.52205 3.98012e-06 1.13053e-06 2.8496e-06 0.715957 0.693067 1.21342e-239 0
3.70284 3.96566e-06 1.12156e-06 2.8441e-06 0.717181 0.685531 8.8905e-228 0
3.89291 3.86173e-06 1.10547e-06 2.75626e-06 0.713737 0.668893 1.6837e-216 0
4.09273 3.86476e-06 1.09154e-06 2.77322e-06 0.717565 0.663071 8.87475e-206 0
4.30281 3.99187e-06 1.07655e-06 2.91532e-06 0.730315 0.672597 1.38189e-195 0
4.52368 4.06078e-06 1.06401e-06 2.99677e-06 0.737978 0.670714 6.76863e-186 0
4.75588 3.99616e-06 1.06307e-06 2.93309e-06 0.733977 0.652411 1.11316e-176 0
5 3.90913e-06 1.07028e-06 2.83885e-06 0.726211 0.640875 6.46628e-168 0
5.25665 3.92284e-06 1.04546e-06 2.87738e-06 0.733494 0.643451 1.34461e-159 0
5.52648 4.01252e-06 1.00261e-06 3.00991e-06 0.75013 0.648947 1.06304e-151 0
5.81015 4.18058e-06 1.0316e-06 3.14898e-06 0.75324 0.652467 3.65874e-144 0
6.10839 4.1984e-06 1.01339e-06 3.185e-06 0.758623 0.640489 5.09628e-137 0
6.42193 4.18047e-06 1.01407e-06 3.1664e-06 0.757428 0.637838 3.19739e-130 0
6.75157 4.00175e-06 9.73065e-07 3.02868e-06 0.75684 0.597287 8.84825e-124 0
7.09813 3.89645e-06 1.0131e-06 2.88335e-06 0.739993 0.573427 1.26979e-117 0
7.46248 3.97464e-06 9.44613e-07 3.03002e-06 0.76234 0.580042 8.08293e-112 0
7.84553 4.04451e-06 9.99162e-07 3.04535e-06 0.752958 0.59163 2.9929e-106 0
8.24824 4.32939e-06 9.55115e-07 3.37428e-06 0.779388 0.617473 5.3039e-101 0
8.67162 4.40601e-06 1.01305e-06 3.39295e-06 0.770074 0.618061 5.69898e-96 0
9.11674 4.49927e-06 9.80591e-07 3.51868e-06 0.782055 0.634816 3.14431e-91 0
9.5847 4.43109e-06 1.05419e-06 3.3769e-06 0.762093 0.604521 1.11526e-86 0
10.0767 4.21368e-06 9.99326e-07 3.21435e-06 0.762838 0.61114 2.07306e-82 0
10.5939 4.10781e-06 1.08288e-06 3.02493e-06 0.736384 0.563553 2.68602e-78 0
11.1377 3.92719e-06 1.03662e-06 2.89057e-06 0.736039 0.516974 1.92027e-74 0
11.7094 3.99656e-06 1.10897e-06 2.88758e-06 0.722518 0.515383 9.80471e-71 0
12.3105 4.06227e-06 1.11567e-06 2.94659e-06 0.725357 0.498619 3.07568e-67 0
12.9424 4.23778e-06 1.13314e-06 3.10463e-06 0.732609 0.5056 6.49608e-64 0
13.6067 4.41218e-06 1.17064e-06 3.24155e-06 0.734681 0.508078 9.49461e-61 0
14.3051 4.57898e-06 1.12978e-06 3.4492e-06 0.753268 0.531977 8.98612e-58 0
15.0394 4.84739e-06 1.18183e-06 3.66556e-06 0.756193 0.546936 6.506e-55 0
15.8114 4.91254e-06 1.21546e-06 3.69707e-06 0.752579 0.545265 3.32419e-52 0
16.623 4.80342e-06 1.1728e-06 3.63062e-06 0.755841 0.538232 1.1626e-49 0
17.4762 4.71635e-06 1.16205e-06 3.5543e-06 0.753612 0.532532 3.09321e-47 0
18.3733 4.60335e-06 1.17618e-06 3.42717e-06 0.744495 0.522588 6.32065e-45 0
19.3164 4.44636e-06 1.17477e-06 3.27159e-06 0.73579 0.50664 9.7156e-43 0
20.3079 4.29533e-06 1.16213e-06 3.1332e-06 0.729443 0.489596 1.14268e-40 0
21.3503 4.17831e-06 1.15794e-06 3.02037e-06 0.722869 0.475572 1.05893e-38 0
22.4463 4.09277e-06 1.16227e-06 2.93049e-06 0.716017 0.46254 7.82708e-37 0
23.5984 4.03219e-06 1.1698e-06 2.86239e-06 0.709885 0.445366 4.64543e-35 0
24.8097 3.99513e-06 1.1762e-06 2.81893e-06 0.705592 0.420173 2.22988e-33 0
26.0832 3.99271e-06 1.18793e-06 2.80478e-06 0.702476 0.386069 8.79397e-32 0
27.4221 4.01821e-06 1.20005e-06 2.81817e-06 0.701348 0.344072 2.86543e-30 0
28.8297 4.0932e-06 1.22033e-06 2.87287e-06 0.701864 0.297276 7.8358e-29 0
30.3095 4.203e-06 1.24166e-06 2.96135e-06 0.704579 0.24819 1.80357e-27 0
31.8653 4.33421e-06 1.26005e-06 3.07416e-06 0.709278 0.199243 3.51239e-26 0
33.5009 4.47322e-06 1.26823e-06 3.20499e-06 0.716484 0.151333 5.80138e-25 0
35.2206 4.59147e-06 1.26377e-06 3.3277e-06 0.724758 0.105678 8.17515e-24 0
37.0284 4.69224e-06 1.24912e-06 3.44312e-06 0.733791 0.062869 9.91836e-23 0
38.9291 4.76292e-06 1.23473e-06 3.52819e-06 0.740763 0.0246167 1.05183e-21 0
40.9273 4.80051e-06 1.22536e-06 3.57515e-06 0.744743 -0.00872696 9.85259e-21 0
43.0282 4.78918e-06 1.22446e-06 3.56472e-06 0.744328 -0.0372235 8.22698e-20 0
45.2368 4.71716e-06 1.22414e-06 3.49302e-06 0.740492 -0.0619071 6.12079e-19 0
47.5588 4.56937e-06 1.22516e-06 3.34421e-06 0.731876 -0.0830147 4.08312e-18 0
50 4.34298e-06 1.20987e-06 3.13311e-06 0.721419 -0.101922 2.42005e-17 0
52.5665 4.04534e-06 1.18176e-06 2.86358e-06 0.707871 -0.118505 1.28411e-16 0
55.2648 3.69069e-06 1.13523e-06 2.55546e-06 0.692407 -0.13341 6.09459e-16 0
58.1015 3.30283e-06 1.07275e-06 2.23007e-06 0.675202 -0.146867 2.59999e-15 0
61.0839 2.90827e-06 9.9991e-07 1.90836e-06 0.656184 -0.159086 1.00409e-14 0
64.2193 2.52939e-06 9.22861e-07 1.60652e-06 0.635144 -0.170201 3.53873e-14 0
67.5157 2.18263e-06 8.47275e-07 1.33536e-06 0.611811 -0.180241 1.14792e-13 0
70.9813 1.87649e-06 7.76662e-07 1.09983e-06 0.58611 -0.189319 3.45323e-13 0
74.6248 1.61288e-06 7.13249e-07 8.99627e-07 0.557778 -0.197486 9.70139e-13 0
78.4553 1.39018e-06 6.57833e-07 7.32343e-07 0.526799 -0.20479 2.56032e-12 0
82.4824 1.20575e-06 6.11042e-07 5.94709e-07 0.493227 -0.211196 6.38608e-12 0
86.7162 1.05411e-06 5.71967e-07 4.82144e-07 0.457394 -0.216607 1.51102e-11 0
91.1674 9.29347e-07 5.3892e-07 3.90427e-07 0.420109 -0.221104 3.39773e-11 0
95.847 8.27243e-07 5.11278e-07 3.15965e-07 0.381949 -0.224771 7.28338e-11 0
100.767 7.45506e-07 4.89621e-07 2.55885e-07 0.343237 -0.227554 1.49609e-10 0
105.939 6.81593e-07 4.74397e-07 2.07197e-07 0.303989 -0.228776 2.95917e-10 0
111.377 6.31867e-07 4.64151e-07 1.67716e-07 0.26543 -0.22839 5.6388e-10 0
117.094 5.9025e-07 4.54527e-07 1.35723e-07 0.229942 -0.225759 1.02835e-09 0
123.105 5.53244e-07 4.4343e-07 1.09814e-07 0.198491 -0.220381 1.79046e-09 0
129.424 5.08573e-07 4.19936e-07 8.86369e-08 0.174286 -0.21213 2.90598e-09 0
136.067 4.56651e-07 3.85172e-07 7.14796e-08 0.15653 -0.203166 4.3955e-09 0
143.051 3.9248e-07 3.34753e-07 5.77277e-08 0.147084 -0.19779 6.07302e-09 0
150.394 3.31731e-07 2.85052e-07 4.66794e-08 0.140715 -0.194613 7.93953e-09 0
158.114 2.83003e-07 2.4516e-07 3.78426e-08 0.133718 -0.196065 1.01418e-08 0
166.23 2.42249e-07 2.11542e-07 3.07072e-08 0.126759 -0.198042 1.2594e-08 0
174.763 2.08412e-07 1.83452e-07 2.49604e-08 0.119764 -0.20019 1.52533e-08 0
183.733 1.84571e-07 1.64263e-07 2.03077e-08 0.110026 -0.202347 1.85383e-08 0
193.164 1.64329e-07 1.478e-07 1.65289e-08 0.100584 -0.204292 2.20346e-08 0
203.079 1.47581e-07 1.34118e-07 1.34629e-08 0.0912241 -0.205857 2.57405e-08 0
213.503 1.34503e-07 1.23529e-07 1.0974e-08 0.0815888 -0.206865 2.97811e-08 0
224.463 1.22815e-07 1.13868e-07 8.94667e-09 0.0728466 -0.207757 3.36884e-08 0
235.984 1.12339e-07 1.05044e-07 7.29483e-09 0.064936 -0.208549 3.73008e-08 0
248.097 1.02945e-07 9.69923e-08 5.95316e-09 0.0578282 -0.209252 4.04758e-08 0
260.832 9.53609e-08 9.05021e-08 4.85885e-09 0.0509522 -0.209451 4.3503e-08 0
274.221 8.85868e-08 8.46212e-08 3.96563e-09 0.0447654 -0.20955 4.59693e-08 0
288.297 8.2383e-08 7.91461e-08 3.23695e-09 0.0392914 -0.209633 4.77183e-08 0
303.095 7.68053e-08 7.41609e-08 2.64441e-09 0.0344301 -0.209627 4.87789e-08 0
318.653 7.20404e-08 6.98805e-08 2.15989e-09 0.0299817 -0.209323 4.93317e-08 0
335.009 6.76298e-08 6.58658e-08 1.76403e-09 0.0260837 -0.209041 4.9138e-08 0
352.206 6.35453e-08 6.2104e-08 1.44127e-09 0.0226809 -0.208779 4.82489e-08 0
370.284 6.00042e-08 5.88263e-08 1.1779e-09 0.0196302 -0.208249 4.69356e-08 0
389.291 5.67351e-08 5.57726e-08 9.6253e-10 0.0169653 -0.207718 4.51011e-08 0
409.273 5.36831e-08 5.28967e-08 7.86454e-10 0.0146499 -0.207221 4.28161e-08 0
430.282 5.09941e-08 5.03512e-08 6.42889e-10 0.0126071 -0.206482 4.03155e-08 0
452.368 4.85137e-08 4.79882e-08 5.25551e-10 0.010833 -0.205716 3.75864e-08 0
475.588 4.61842e-08 4.57547e-08 4.29568e-10 0.00930117 -0.204994 3.46885e-08 0
500 4.39943e-08 4.36432e-08 3.51104e-10 0.00798067 -0.204307 3.171e-08 0
525.665 4.21058e-08 4.18187e-08 2.87075e-10 0.00681794 -0.203137 2.88471e-08 0
552.648 4.03282e-08 4.00935e-08 2.34681e-10 0.00581928 -0.202006 2.60262e-08 0
581.015 3.8649e-08 3.84572e-08 1.91817e-10 0.00496305 -0.200918 2.3297e-08 0
610.838 3.706e-08 3.69032e-08 1.56829e-10 0.00423177 -0.199872 2.06998e-08 0
642.193 3.55528e-08 3.54245e-08 1.28267e-10 0.00360779 -0.198868 1.82632e-08 0
675.157 3.41181e-08 3.40132e-08 1.04886e-10 0.00307421 -0.197902 1.60058e-08 0
709.813 3.27783e-08 3.26926e-08 8.57408e-11 0.00261578 -0.196783 1.3951e-08 0
746.247 3.15773e-08 3.15072e-08 7.01075e-11 0.00222018 -0.195194 1.2118e-08 0
784.553 3.04332e-08 3.03758e-08 5.73238e-11 0.0018836 -0.193632 1.04693e-08 0
824.824 2.93401e-08 2.92932e-08 4.68621e-11 0.0015972 -0.192101 8.99869e-09 0
867.162 2.82932e-08 2.82549e-08 3.83078e-11 0.00135396 -0.190597 7.69717e-09 0
911.674 2.72896e-08 2.72583e-08 3.13351e-11 0.00114824 -0.189124 6.55388e-09 0
958.471 2.63242e-08 2.62986e-08 2.56259e-11 0.000973475 -0.18768 5.55595e-09 0
1007.67 2.53988e-08 2.53779e-08 2.09512e-11 0.000824888 -0.186182 4.69133e-09 0
1059.39 2.45357e-08 2.45186e-08 1.71292e-11 0.000698136 -0.184243 3.95046e-09 0
1113.77 2.3704e-08 2.369e-08 1.40083e-11 0.000590968 -0.182319 3.31463e-09 0
1170.94 2.29004e-08 2.2889e-08 1.14531e-11 0.000500127 -0.180411 2.77151e-09 0
1231.05 2.21282e-08 2.21189e-08 9.36113e-12 0.00042304 -0.178318 2.31032e-09 0
1294.24 2.13847e-08 2.1377e-08 7.65488e-12 0.000357961 -0.176032 1.92026e-09 0
1360.67 2.06639e-08 2.06576e-08 6.25904e-12 0.000302897 -0.173746 1.59133e-09 0
1430.51 1.99645e-08 1.99594e-08 5.11663e-12 0.000256286 -0.171465 1.31504e-09 0
1503.94 1.92858e-08 1.92816e-08 4.18251e-12 0.00021687 -0.169157 1.08382e-09 0
1581.14 1.86306e-08 1.86272e-08 3.41997e-12 0.000183567 -0.16637 8.91181e-10 0
1662.3 1.79923e-08 1.79895e-08 2.79575e-12 0.000155386 -0.163561 7.30943e-10 0
1747.63 1.73696e-08 1.73673e-08 2.2849e-12 0.000131546 -0.160736 5.98059e-10 0
1837.33 1.67624e-08 1.67605e-08 1.86796e-12 0.000111437 -0.1579 4.88204e-10 0
1931.64 1.61696e-08 1.61681e-08 1.52748e-12 9.44659e-05 -0.155054 3.97631e-10 0
2030.79 1.55894e-08 1.55882e-08 1.24834e-12 8.00757e-05 -0.151602 3.23131e-10 0
2135.03 1.50127e-08 1.50117e-08 1.01917e-12 6.78873e-05 -0.146695 2.6186e-10 0
2244.63 1.44363e-08 1.44355e-08 8.32586e-13 5.76731e-05 -0.141661 2.11578e-10 0
2359.84 1.3859e-08 1.38584e-08 6.80073e-13 4.90707e-05 -0.136514 1.70424e-10 0
2480.97 1.32807e-08 1.32802e-08 5.55353e-13 4.18165e-05 -0.13127 1.3684e-10 0
2608.32 1.27019e-08 1.27015e-08 4.5349e-13 3.57025e-05 -0.125952 1.09523e-10 0
2742.21 1.21239e-08 1.21235e-08 3.70519e-13 3.05611e-05 -0.120585 8.73787e-11 0
2882.96 1.15477e-08 1.15474e-08 3.02656e-13 2.62093e-05 -0.115194 6.94857e-11 0
3030.95 1.0975e-08 1.09748e-08 2.47167e-13 2.25209e-05 -0.109805 5.50782e-11 0
3186.53 1.04084e-08 1.04082e-08 2.01917e-13 1.93994e-05 -0.10445 4.35212e-11 0
3350.09 9.85007e-09 9.84991e-09 1.64992e-13 1.67503e-05 -0.0991594 3.42838e-11 0
3522.05 9.30205e-09 9.30191e-09 1.34792e-13 1.44906e-05 -0.0939555 2.69261e-11 0
3702.84 8.76652e-09 8.76641e-09 1.10097e-13 1.25589e-05 -0.0888637 2.10863e-11 0
3892.91 8.24641e-09 8.24632e-09 8.9989e-14 1.09125e-05 -0.0839144 1.64693e-11 0
4092.73 7.743e-09 7.74293e-09 7.35478e-14 9.49862e-06 -0.0791214 1.28301e-11 0
4302.81 7.25785e-09 7.25779e-09 6.00989e-14 8.28053e-06 -0.0745006 9.97086e-12 0
4523.68 6.7925e-09 6.79245e-09 4.91109e-14 7.23017e-06 -0.0700671 7.73153e-12 0
4755.88 6.34848e-09 6.34844e-09 4.01558e-14 6.32526e-06 -0.0658355 5.98336e-12 0
5000 5.92582e-09 5.92579e-09 3.28271e-14 5.53967e-06 -0.0618059 4.62173e-12 0
