# 6e-05 2 15 : grain size, compostion index, size index
# Heating and cooling timescale: 0.00104938 9.5346e+07
# Ratio of heating to cooling to determine stochastic cutoff: 100
# Equilibrium emission is recorded even for those grains in the stochastic regime.
# Emission spectrum was computed for: 
# Type: ISRF
# Scales: 0.25 0.5 1 1.5 2 2.5 3 3.5 4 4.5 5 5.5 6 6.5 7 7.5 8 8.5 9 9.5 10
# StochasticallyHeated: 0 0 0 0 0 0 0 0 0 0 0 0 0 0 0 0 0 0 0 0 0
# Temperature: -1
# Wavelength  CExt  CAbs  CSca  Albedo G EqEm1 StEm1 EqEm2 StEm2 EqEm3 StEm3 EqEm4 StEm4 EqEm5 StEm5 EqEm6 StEm6 EqEm7 StEm7 EqEm8 StEm8 EqEm9 StEm9 EqEm10 StEm10 EqEm11 StEm11 EqEm12 StEm12 EqEm13 StEm13 EqEm14 StEm14 EqEm15 StEm15 EqEm16 StEm16 EqEm17 StEm17 EqEm18 StEm18 EqEm19 StEm19 EqEm20 StEm20 EqEm21 StEm21
0.05 2.35926e-08 9.14455e-09 1.44481e-08 0.612398 0.874389 0 0 0 0 0 0 0 0 0 0 0 0 0 0 0 0 0 0 0 0 0 0 0 0 0 0 0 0 0 0 0 0 0 0 0 0 0 0 0 0 0 0
0.0525665 2.36214e-08 9.18145e-09 1.44399e-08 0.611308 0.874704 0 0 0 0 0 0 0 0 0 0 0 0 0 0 0 0 0 0 0 0 0 0 0 0 0 0 0 0 0 0 0 0 0 0 0 0 0 0 0 0 0 0
0.0552647 2.36519e-08 9.22034e-09 1.44316e-08 0.610165 0.875032 0 0 0 0 0 0 0 0 0 0 0 0 0 0 0 0 0 0 0 0 0 0 0 0 0 0 0 0 0 0 0 0 0 0 0 0 0 0 0 0 0 0
0.0581015 2.36836e-08 9.26114e-09 1.44225e-08 0.608964 0.87537 0 0 0 0 0 0 0 0 0 0 0 0 0 0 0 0 0 0 0 0 0 0 0 0 0 0 0 0 0 0 0 0 0 0 0 0 0 0 0 0 0 0
0.0610839 2.37173e-08 9.30409e-09 1.44132e-08 0.607708 0.875738 0 0 0 0 0 0 0 0 0 0 0 0 0 0 0 0 0 0 0 0 0 0 0 0 0 0 0 0 0 0 0 0 0 0 0 0 0 0 0 0 0 0
0.0642193 2.3753e-08 9.34915e-09 1.44039e-08 0.606402 0.876117 0 0 0 0 0 0 0 0 0 0 0 0 0 0 0 0 0 0 0 0 0 0 0 0 0 0 0 0 0 0 0 0 0 0 0 0 0 0 0 0 0 0
0.0675157 2.37901e-08 9.39661e-09 1.43935e-08 0.60502 0.876517 0 0 0 0 0 0 0 0 0 0 0 0 0 0 0 0 0 0 0 0 0 0 0 0 0 0 0 0 0 0 0 0 0 0 0 0 0 0 0 0 0 0
0.0709813 2.38284e-08 9.44653e-09 1.43819e-08 0.603561 0.876938 0 0 0 0 0 0 0 0 0 0 0 0 0 0 0 0 0 0 0 0 0 0 0 0 0 0 0 0 0 0 0 0 0 0 0 0 0 0 0 0 0 0
0.0746248 2.38693e-08 9.49898e-09 1.43703e-08 0.602042 0.877381 0 0 0 0 0 0 0 0 0 0 0 0 0 0 0 0 0 0 0 0 0 0 0 0 0 0 0 0 0 0 0 0 0 0 0 0 0 0 0 0 0 0
0.0784553 2.39128e-08 9.55405e-09 1.43588e-08 0.600464 0.877845 0 0 0 0 0 0 0 0 0 0 0 0 0 0 0 0 0 0 0 0 0 0 0 0 0 0 0 0 0 0 0 0 0 0 0 0 0 0 0 0 0 0
0.0824824 2.39581e-08 9.61201e-09 1.43461e-08 0.598799 0.878331 0 0 0 0 0 0 0 0 0 0 0 0 0 0 0 0 0 0 0 0 0 0 0 0 0 0 0 0 0 0 0 0 0 0 0 0 0 0 0 0 0 0
0.0867162 2.40058e-08 9.67295e-09 1.43329e-08 0.597058 0.878843 0 0 0 0 0 0 0 0 0 0 0 0 0 0 0 0 0 0 0 0 0 0 0 0 0 0 0 0 0 0 0 0 0 0 0 0 0 0 0 0 0 0
0.0911674 2.4056e-08 9.73703e-09 1.4319e-08 0.595235 0.879391 0 0 0 0 0 0 0 0 0 0 0 0 0 0 0 0 0 0 0 0 0 0 0 0 0 0 0 0 0 0 0 0 0 0 0 0 0 0 0 0 0 0
0.095847 2.41083e-08 9.80437e-09 1.43039e-08 0.59332 0.879954 0 0 0 0 0 0 0 0 0 0 0 0 0 0 0 0 0 0 0 0 0 0 0 0 0 0 0 0 0 0 0 0 0 0 0 0 0 0 0 0 0 0
0.100767 2.41641e-08 9.87515e-09 1.42889e-08 0.591329 0.880551 0 0 0 0 0 0 0 0 0 0 0 0 0 0 0 0 0 0 0 0 0 0 0 0 0 0 0 0 0 0 0 0 0 0 0 0 0 0 0 0 0 0
0.105939 2.42214e-08 9.94957e-09 1.42719e-08 0.589225 0.881184 0 0 0 0 0 0 0 0 0 0 0 0 0 0 0 0 0 0 0 0 0 0 0 0 0 0 0 0 0 0 0 0 0 0 0 0 0 0 0 0 0 0
0.111377 2.42835e-08 1.00278e-08 1.42556e-08 0.58705 0.881838 0 0 0 0 0 0 0 0 0 0 0 0 0 0 0 0 0 0 0 0 0 0 0 0 0 0 0 0 0 0 0 0 0 0 0 0 0 0 0 0 0 0
0.117094 2.43472e-08 1.01101e-08 1.42371e-08 0.584754 0.882533 0 0 0 0 0 0 0 0 0 0 0 0 0 0 0 0 0 0 0 0 0 0 0 0 0 0 0 0 0 0 0 0 0 0 0 0 0 0 0 0 0 0
0.123105 2.44153e-08 1.01967e-08 1.42186e-08 0.582365 0.883269 0 0 0 0 0 0 0 0 0 0 0 0 0 0 0 0 0 0 0 0 0 0 0 0 0 0 0 0 0 0 0 0 0 0 0 0 0 0 0 0 0 0
0.129424 2.44865e-08 1.02876e-08 1.41989e-08 0.579866 0.884029 0 0 0 0 0 0 0 0 0 0 0 0 0 0 0 0 0 0 0 0 0 0 0 0 0 0 0 0 0 0 0 0 0 0 0 0 0 0 0 0 0 0
0.136067 2.45611e-08 1.03832e-08 1.41779e-08 0.577251 0.884838 0 0 0 0 0 0 0 0 0 0 0 0 0 0 0 0 0 0 0 0 0 0 0 0 0 0 0 0 0 0 0 0 0 0 0 0 0 0 0 0 0 0
0.143051 2.46395e-08 1.04837e-08 1.41558e-08 0.574518 0.88569 0 0 0 0 0 0 0 0 0 0 0 0 0 0 0 0 0 0 0 0 0 0 0 0 0 0 0 0 0 0 0 0 0 0 0 0 0 0 0 0 0 0
0.150394 2.4722e-08 1.05894e-08 1.41326e-08 0.571662 0.886576 0 0 0 0 0 0 0 0 0 0 0 0 0 0 0 0 0 0 0 0 0 0 0 0 0 0 0 0 0 0 0 0 0 0 0 0 0 0 0 0 0 0
0.158114 2.48088e-08 1.07005e-08 1.41083e-08 0.568683 0.887515 0 0 0 0 0 0 0 0 0 0 0 0 0 0 0 0 0 0 0 0 0 0 0 0 0 0 0 0 0 0 0 0 0 0 0 0 0 0 0 0 0 0
0.16623 2.49002e-08 1.08173e-08 1.40829e-08 0.565573 0.888502 0 0 0 0 0 0 0 0 0 0 0 0 0 0 0 0 0 0 0 0 0 0 0 0 0 0 0 0 0 0 0 0 0 0 0 0 0 0 0 0 0 0
0.174762 2.49958e-08 1.09401e-08 1.40557e-08 0.562323 0.889536 0 0 0 0 0 0 0 0 0 0 0 0 0 0 0 0 0 0 0 0 0 0 0 0 0 0 0 0 0 0 0 0 0 0 0 0 0 0 0 0 0 0
0.183733 2.50971e-08 1.10692e-08 1.40279e-08 0.558946 0.890627 0 0 0 0 0 0 0 0 0 0 0 0 0 0 0 0 0 0 0 0 0 0 0 0 0 0 0 0 0 0 0 0 0 0 0 0 0 0 0 0 0 0
0.193164 2.52032e-08 1.12049e-08 1.39982e-08 0.555417 0.891773 0 0 0 0 0 0 0 0 0 0 0 0 0 0 0 0 0 0 0 0 0 0 0 0 0 0 0 0 0 0 0 0 0 0 0 0 0 0 0 0 0 0
0.203079 2.5316e-08 1.134e-08 1.39759e-08 0.55206 0.892863 0 0 0 0 0 0 0 0 0 0 0 0 0 0 0 0 0 0 0 0 0 0 0 0 0 0 0 0 0 0 0 0 0 0 0 0 0 0 0 0 0 0
0.213503 2.54428e-08 1.14472e-08 1.39955e-08 0.550079 0.893499 0 0 0 0 0 0 0 0 0 0 0 0 0 0 0 0 0 0 0 0 0 0 0 0 0 0 0 0 0 0 0 0 0 0 0 0 0 0 0 0 0 0
0.224463 2.55746e-08 1.15582e-08 1.40164e-08 0.548058 0.894161 0 0 0 0 0 0 0 0 0 0 0 0 0 0 0 0 0 0 0 0 0 0 0 0 0 0 0 0 0 0 0 0 0 0 0 0 0 0 0 0 0 0
0.235984 2.57155e-08 1.16761e-08 1.40394e-08 0.545952 0.894846 0 0 0 0 0 0 0 0 0 0 0 0 0 0 0 0 0 0 0 0 0 0 0 0 0 0 0 0 0 0 0 0 0 0 0 0 0 0 0 0 0 0
0.248097 2.58625e-08 1.17999e-08 1.40626e-08 0.543745 0.895573 0 0 0 0 0 0 0 0 0 0 0 0 0 0 0 0 0 0 0 0 0 0 0 0 0 0 0 0 0 0 0 0 0 0 0 0 0 0 0 0 0 0
0.260832 2.60158e-08 1.19287e-08 1.4087e-08 0.541481 0.896341 0 0 0 0 0 0 0 0 0 0 0 0 0 0 0 0 0 0 0 0 0 0 0 0 0 0 0 0 0 0 0 0 0 0 0 0 0 0 0 0 0 0
0.274221 2.61792e-08 1.20657e-08 1.41135e-08 0.539112 0.897142 0 0 0 0 0 0 0 0 0 0 0 0 0 0 0 0 0 0 0 0 0 0 0 0 0 0 0 0 0 0 0 0 0 0 0 0 0 0 0 0 0 0
0.288297 2.6349e-08 1.22086e-08 1.41404e-08 0.536656 0.897984 0 0 0 0 0 0 0 0 0 0 0 0 0 0 0 0 0 0 0 0 0 0 0 0 0 0 0 0 0 0 0 0 0 0 0 0 0 0 0 0 0 0
0.303095 2.65203e-08 1.23534e-08 1.41669e-08 0.534191 0.89863 0 0 0 0 0 0 0 0 0 0 0 0 0 0 0 0 0 0 0 0 0 0 0 0 0 0 0 0 0 0 0 0 0 0 0 0 0 0 0 0 0 0
0.318653 2.65931e-08 1.24292e-08 1.41639e-08 0.532616 0.896351 0 0 0 0 0 0 0 0 0 0 0 0 0 0 0 0 0 0 0 0 0 0 0 0 0 0 0 0 0 0 0 0 0 0 0 0 0 0 0 0 0 0
0.335009 2.66619e-08 1.25027e-08 1.41593e-08 0.531067 0.893739 0 0 0 0 0 0 0 0 0 0 0 0 0 0 0 0 0 0 0 0 0 0 0 0 0 0 0 0 0 0 0 0 0 0 0 0 0 0 0 0 0 0
0.352205 2.67338e-08 1.25797e-08 1.41541e-08 0.529446 0.890995 0 0 0 0 0 0 0 0 0 0 0 0 0 0 0 0 0 0 0 0 0 0 0 0 0 0 0 0 0 0 0 0 0 0 0 0 0 0 0 0 0 0
0.370284 2.68097e-08 1.26614e-08 1.41483e-08 0.52773 0.888105 0 0 0 0 0 0 0 0 0 0 0 0 0 0 0 0 0 0 0 0 0 0 0 0 0 0 0 0 0 0 0 0 0 0 0 0 0 0 0 0 0 0
0.389291 2.68891e-08 1.27467e-08 1.41425e-08 0.525954 0.885072 0 0 0 0 0 0 0 0 0 0 0 0 0 0 0 0 0 0 0 0 0 0 0 0 0 0 0 0 0 0 0 0 0 0 0 0 0 0 0 0 0 0
0.409273 2.70679e-08 1.2835e-08 1.42329e-08 0.525823 0.882242 0 0 0 0 0 0 0 0 0 0 0 0 0 0 0 0 0 0 0 0 0 0 0 0 0 0 0 0 0 0 0 0 0 0 0 0 0 0 0 0 0 0
0.430281 2.75597e-08 1.29204e-08 1.46393e-08 0.531184 0.880454 0 0 0 0 0 0 0 0 0 0 0 0 0 0 0 0 0 0 0 0 0 0 0 0 0 0 0 0 0 0 0 0 0 0 0 0 0 0 0 0 0 0
0.452368 2.80784e-08 1.30106e-08 1.50679e-08 0.536635 0.878566 0 0 0 0 0 0 0 0 0 0 0 0 0 0 0 0 0 0 0 0 0 0 0 0 0 0 0 0 0 0 0 0 0 0 0 0 0 0 0 0 0 0
0.475588 2.8623e-08 1.31053e-08 1.55177e-08 0.54214 0.876582 0 0 0 0 0 0 0 0 0 0 0 0 0 0 0 0 0 0 0 0 0 0 0 0 0 0 0 0 0 0 0 0 0 0 0 0 0 0 0 0 0 0
0.5 2.91942e-08 1.32047e-08 1.59894e-08 0.547693 0.874482 0 0 0 0 0 0 0 0 0 0 0 0 0 0 0 0 0 0 0 0 0 0 0 0 0 0 0 0 0 0 0 0 0 0 0 0 0 0 0 0 0 0
0.525665 2.90046e-08 1.32279e-08 1.57767e-08 0.543939 0.864373 0 0 0 0 0 0 0 0 0 0 0 0 0 0 0 0 0 0 0 0 0 0 0 0 0 0 0 0 0 0 0 0 0 0 0 0 0 0 0 0 0 0
0.552648 2.85543e-08 1.32267e-08 1.53276e-08 0.536787 0.851236 0 0 0 0 0 0 0 0 0 0 0 0 0 0 0 0 0 0 0 0 0 0 0 0 0 0 0 0 0 0 0 0 0 0 0 0 0 0 0 0 0 0
0.581015 2.80825e-08 1.32256e-08 1.48569e-08 0.529044 0.837427 0 0 0 0 0 0 0 0 0 0 0 0 0 0 0 0 0 0 0 0 0 0 0 0 0 0 0 0 0 0 0 0 0 0 0 0 0 0 0 0 0 0
0.610839 2.76713e-08 1.32273e-08 1.4444e-08 0.521985 0.822606 0 0 0 0 0 0 0 0 0 0 0 0 0 0 0 0 0 0 0 0 0 0 0 0 0 0 0 0 0 0 0 0 0 0 0 0 0 0 0 0 0 0
0.642193 2.79285e-08 1.32562e-08 1.46723e-08 0.525352 0.804589 0 0 0 0 0 0 0 0 0 0 0 0 0 0 0 0 0 0 0 0 0 0 0 0 0 0 0 0 0 0 0 0 0 0 0 0 0 0 0 0 0 0
0.675157 2.81981e-08 1.32857e-08 1.49124e-08 0.528844 0.785647 0 0 0 0 0 0 0 0 0 0 0 0 0 0 0 0 0 0 0 0 0 0 0 0 0 0 0 0 0 0 0 0 0 0 0 0 0 0 0 0 0 0
0.709813 2.84986e-08 1.32996e-08 1.51991e-08 0.533326 0.766178 0 0 0 0 0 0 0 0 0 0 0 0 0 0 0 0 0 0 0 0 0 0 0 0 0 0 0 0 0 0 0 0 0 0 0 0 0 0 0 0 0 0
0.746248 2.89686e-08 1.3157e-08 1.58116e-08 0.54582 0.749675 0 0 0 0 0 0 0 0 0 0 0 0 0 0 0 0 0 0 0 0 0 0 0 0 0 0 0 0 0 0 0 0 0 0 0 0 0 0 0 0 0 0
0.784553 2.9476e-08 1.29945e-08 1.64815e-08 0.559151 0.732662 0 0 0 0 0 0 0 0 0 0 0 0 0 0 0 0 0 0 0 0 0 0 0 0 0 0 0 0 0 0 0 0 0 0 0 0 0 0 0 0 0 0
0.824824 3.00473e-08 1.28045e-08 1.72428e-08 0.573854 0.716907 0 0 0 0 0 0 0 0 0 0 0 0 0 0 0 0 0 0 0 0 0 0 0 0 0 0 0 0 0 0 0 0 0 0 0 0 0 0 0 0 0 0
0.867162 3.07155e-08 1.25679e-08 1.81476e-08 0.590829 0.704314 0 0 0 0 0 0 0 0 0 0 0 0 0 0 0 0 0 0 0 0 0 0 0 0 0 0 0 0 0 0 0 0 0 0 0 0 0 0 0 0 0 0
0.911674 3.14222e-08 1.23133e-08 1.91089e-08 0.608133 0.691448 0 0 0 0 0 0 0 0 0 0 0 0 0 0 0 0 0 0 0 0 0 0 0 0 0 0 0 0 0 0 0 0 0 0 0 0 0 0 0 0 0 0
0.95847 3.22838e-08 1.18456e-08 2.04382e-08 0.633079 0.689963 0 0 0 0 0 0 0 0 0 0 0 0 0 0 0 0 0 0 0 0 0 0 0 0 0 0 0 0 0 0 0 0 0 0 0 0 0 0 0 0 0 0
1.00767 3.32003e-08 1.13492e-08 2.18511e-08 0.658161 0.688802 0 0 0 0 0 0 0 0 0 0 0 0 0 0 0 0 0 0 0 0 0 0 0 0 0 0 0 0 0 0 0 0 0 0 0 0 0 0 0 0 0 0
1.05939 3.48465e-08 1.10568e-08 2.37897e-08 0.6827 0.686229 0 0 0 0 0 0 0 0 0 0 0 0 0 0 0 0 0 0 0 0 0 0 0 0 0 0 0 0 0 0 0 0 0 0 0 0 0 0 0 0 0 0
1.11377 3.66619e-08 1.07777e-08 2.58842e-08 0.706026 0.683224 0 0 0 0 0 0 0 0 0 0 0 0 0 0 0 0 0 0 0 0 0 0 0 0 0 0 0 0 0 0 0 0 0 0 0 0 0 0 0 0 0 0
1.17094 3.83453e-08 1.04005e-08 2.79448e-08 0.728767 0.677776 0 0 0 0 0 0 0 0 0 0 0 0 0 0 0 0 0 0 0 0 0 0 0 0 0 0 0 0 0 0 0 0 0 0 0 0 0 0 0 0 0 0
1.23105 4.01913e-08 1.00328e-08 3.01585e-08 0.750373 0.675877 0 0 0 0 0 0 0 0 0 0 0 0 0 0 0 0 0 0 0 0 0 0 0 0 0 0 0 0 0 0 0 0 0 0 0 0 0 0 0 0 0 0
1.29424 4.24233e-08 9.75735e-09 3.2666e-08 0.77 0.686647 0 0 0 0 0 0 0 0 0 0 0 0 0 0 0 0 0 0 0 0 0 0 0 0 0 0 0 0 0 0 0 0 0 0 0 0 0 0 0 0 0 0
1.36067 4.48364e-08 9.45906e-09 3.53773e-08 0.789032 0.686713 0 0 0 0 0 0 0 0 0 0 0 0 0 0 0 0 0 0 0 0 0 0 0 0 0 0 0 0 0 0 0 0 0 0 0 0 0 0 0 0 0 0
1.43051 4.70869e-08 9.12451e-09 3.79623e-08 0.80622 0.680202 0 0 0 0 0 0 0 0 0 0 0 0 0 0 0 0 0 0 0 0 0 0 0 0 0 0 0 0 0 0 0 0 0 0 0 0 0 0 0 0 0 0
1.50394 4.78275e-08 8.69251e-09 3.9135e-08 0.818253 0.672653 0 0 0 0 0 0 0 0 0 0 0 0 0 0 0 0 0 0 0 0 0 0 0 0 0 0 0 0 0 0 0 0 0 0 0 0 0 0 0 0 0 0
1.58114 4.84486e-08 8.07599e-09 4.03726e-08 0.833308 0.658587 0 0 0 0 0 0 0 0 0 0 0 0 0 0 0 0 0 0 0 0 0 0 0 0 0 0 0 0 0 0 0 0 0 0 0 0 0 0 0 0 0 0
1.6623 4.86912e-08 7.3218e-09 4.13694e-08 0.849628 0.639788 0 0 0 0 0 0 0 0 0 0 0 0 0 0 0 0 0 0 0 0 0 0 0 0 0 0 0 0 0 0 0 0 0 0 0 0 0 0 0 0 0 0
1.74763 4.84483e-08 6.54801e-09 4.19003e-08 0.864845 0.621359 0 0 0 0 0 0 0 0 0 0 0 0 0 0 0 0 0 0 0 0 0 0 0 0 0 0 0 0 0 0 0 0 0 0 0 0 0 0 0 0 0 0
1.83733 4.78584e-08 5.97858e-09 4.18798e-08 0.875078 0.613593 0 0 0 0 0 0 0 0 0 0 0 0 0 0 0 0 0 0 0 0 0 0 0 0 0 0 0 0 0 0 0 0 0 0 0 0 0 0 0 0 0 0
1.93164 4.68317e-08 5.51461e-09 4.13171e-08 0.882246 0.614565 0 0 0 0 0 0 0 0 0 0 0 0 0 0 0 0 0 0 0 0 0 0 0 0 0 0 0 0 0 0 0 0 0 0 0 0 0 0 0 0 0 0
2.03079 4.46093e-08 4.98242e-09 3.96269e-08 0.88831 0.612275 0 0 0 0 0 0 0 0 0 0 0 0 0 0 0 0 0 0 0 0 0 0 0 0 0 0 0 0 0 0 0 0 0 0 0 0 0 0 0 0 0 0
2.13503 4.16109e-08 4.38446e-09 3.72264e-08 0.894632 0.60334 0 0 0 0 0 0 0 0 0 0 0 0 0 0 0 0 0 0 0 0 0 0 0 0 0 0 0 0 0 0 0 0 0 0 0 0 0 0 0 0 0 0
2.24463 3.81738e-08 4.01007e-09 3.41638e-08 0.894952 0.594364 0 0 0 0 0 0 0 0 0 0 0 0 0 0 0 0 0 0 0 0 0 0 0 0 0 0 0 0 0 0 0 0 0 0 0 0 0 0 0 0 0 0
2.35984 3.43055e-08 3.72646e-09 3.05791e-08 0.891374 0.585685 0 0 0 0 0 0 0 0 0 0 0 0 0 0 0 0 0 0 0 0 0 0 0 0 0 0 0 0 0 0 0 0 0 0 0 0 0 0 0 0 0 0
2.48097 2.99037e-08 3.36001e-09 2.65437e-08 0.887639 0.573764 0 0 0 0 0 0 0 0 0 0 0 0 0 0 0 0 0 0 0 0 0 0 0 0 0 0 0 0 0 0 0 0 0 0 0 0 0 0 0 0 0 0
2.60832 2.52887e-08 2.94216e-09 2.23466e-08 0.883657 0.554431 0 0 0 0 0 0 0 0 0 0 0 0 0 0 0 0 0 0 0 0 0 0 0 0 0 0 0 0 0 0 0 0 0 0 0 0 0 0 0 0 0 0
2.74221 2.10762e-08 2.5283e-09 1.85479e-08 0.88004 0.524149 0 0 0 0 0 0 0 0 0 0 0 0 0 0 0 0 0 0 0 0 0 0 0 0 0 0 0 0 0 0 0 0 0 0 0 0 0 0 0 0 0 0
2.88297 1.757e-08 2.14979e-09 1.54202e-08 0.877644 0.484372 0 0 0 0 0 0 0 0 0 0 0 0 0 0 0 0 0 0 0 0 0 0 0 0 0 0 0 0 0 0 0 0 0 0 0 0 0 0 0 0 0 0
3.03095 1.47336e-08 1.83301e-09 1.29006e-08 0.875589 0.439678 0 0 0 0 0 0 0 0 0 0 0 0 0 0 0 0 0 0 0 0 0 0 0 0 0 0 0 0 0 0 0 0 0 0 0 0 0 0 0 0 0 0
3.18653 1.24727e-08 1.58111e-09 1.08916e-08 0.873234 0.394906 0 0 0 0 0 0 0 0 0 0 0 0 0 0 0 0 0 0 0 0 0 0 0 0 0 0 0 0 0 0 0 0 0 0 0 0 0 0 0 0 0 0
3.35009 1.05642e-08 1.37264e-09 9.19157e-09 0.870067 0.352831 0 0 0 0 0 0 0 0 0 0 0 0 0 0 0 0 0 0 0 0 0 0 0 0 0 0 0 0 0 0 0 0 0 0 0 0 0 0 0 0 0 0
3.52205 8.94979e-09 1.20038e-09 7.74942e-09 0.865876 0.315593 0 0 0 0 0 0 0 0 0 0 0 0 0 0 0 0 0 0 0 0 0 0 0 0 0 0 0 0 0 0 0 0 0 0 0 0 0 0 0 0 0 0
3.70284 7.54446e-09 1.05528e-09 6.48918e-09 0.860125 0.282778 0 0 0 0 0 0 0 0 0 0 0 0 0 0 0 0 0 0 0 0 0 0 0 0 0 0 0 0 0 0 0 0 0 0 0 0 0 0 0 0 0 0
3.89291 6.32636e-09 9.32758e-10 5.3936e-09 0.85256 0.254096 0 0 0 0 0 0 0 0 0 0 0 0 0 0 0 0 0 0 0 0 0 0 0 0 0 0 0 0 0 0 0 0 0 0 0 0 0 0 0 0 0 0
4.09273 5.27976e-09 8.28743e-10 4.45101e-09 0.843034 0.22903 0 0 0 0 0 0 0 0 0 0 0 0 0 0 0 0 0 0 0 0 0 0 0 0 0 0 0 0 0 0 0 0 0 0 0 0 0 0 0 0 0 0
4.30281 4.38942e-09 7.40263e-10 3.64916e-09 0.831353 0.206993 0 0 0 0 0 0 0 0 0 0 0 0 0 0 0 0 0 0 0 0 0 0 0 0 0 0 0 0 0 0 0 0 0 0 0 0 0 0 0 0 0 0
4.52368 3.64052e-09 6.66373e-10 2.97415e-09 0.816957 0.18755 0 0 0 0 0 0 0 0 0 0 0 0 0 0 0 0 0 0 0 0 0 0 0 0 0 0 0 0 0 0 0 0 0 0 0 0 0 0 0 0 0 0
4.75588 3.01376e-09 6.05016e-10 2.40874e-09 0.799249 0.17006 0 0 0 0 0 0 0 0 0 0 0 0 0 0 0 0 0 0 0 0 0 0 0 0 0 0 0 0 0 0 0 0 0 0 0 0 0 0 0 0 0 0
5 2.49329e-09 5.55616e-10 1.93767e-09 0.777155 0.154345 0 0 0 0 0 0 0 0 0 0 0 0 0 0 0 0 0 0 0 0 0 0 0 0 0 0 0 0 0 0 0 0 0 0 0 0 0 0 0 0 0 0
5.25665 2.07171e-09 5.31808e-10 1.53991e-09 0.743301 0.140059 0 0 0 0 0 0 0 0 0 0 0 0 0 0 0 0 0 0 0 0 0 0 0 0 0 0 0 0 0 0 0 0 0 0 0 0 0 0 0 0 0 0
5.52648 1.75133e-09 5.18944e-10 1.23238e-09 0.703686 0.127231 0 0 0 0 0 0 0 0 0 0 0 0 0 0 0 0 0 0 0 0 0 0 0 0 0 0 0 0 0 0 0 0 0 0 0 0 0 0 0 0 0 0
5.81015 1.50405e-09 5.2466e-10 9.79389e-10 0.651168 0.115608 0 0 0 0 0 0 0 0 0 0 0 0 0 0 0 0 0 0 0 0 0 0 0 0 0 0 0 0 0 0 0 0 0 0 0 0 0 0 0 0 0 0
6.10839 1.36546e-09 5.86479e-10 7.78982e-10 0.57049 0.105016 0 0 0 0 0 0 0 0 0 0 0 0 0 0 0 0 0 0 0 0 0 0 0 0 0 0 0 0 0 0 0 0 0 0 0 0 0 0 0 0 0 0
6.42193 1.25424e-09 6.38915e-10 6.15321e-10 0.490594 0.0952945 0 0 0 0 0 0 0 0 0 0 0 0 0 0 0 0 0 0 0 0 0 0 0 0 0 0 0 0 0 0 0 0 0 0 0 0 0 0 0 0 0 0
6.75157 1.21722e-09 7.26899e-10 4.90323e-10 0.402822 0.0865163 0 0 0 0 0 0 0 0 0 0 0 0 0 0 0 0 0 0 0 0 0 0 0 0 0 0 0 0 0 0 0 0 0 0 0 0 0 0 0 0 1.4013e-45 0
7.09813 1.14733e-09 7.67478e-10 3.79847e-10 0.331072 0.0782486 0 0 0 0 0 0 0 0 0 0 0 0 0 0 0 0 0 0 0 0 0 0 0 0 0 0 0 0 0 0 1.4013e-45 0 4.2039e-45 0 1.12104e-44 0 2.8026e-44 0 7.28675e-44 0 1.7236e-43 0
7.46248 1.11286e-09 8.22291e-10 2.90567e-10 0.2611 0.0707404 0 0 0 0 0 0 0 0 0 0 0 0 0 0 0 0 0 0 0 0 0 0 1.4013e-45 0 4.2039e-45 0 1.54143e-44 0 5.74532e-44 0 1.84971e-43 0 5.54914e-43 0 1.49519e-42 0 3.83115e-42 0 9.38029e-42 0 2.13614e-41 0
7.84553 1.2462e-09 1.0257e-09 2.20505e-10 0.176942 0.0638883 0 0 0 0 0 0 0 0 0 0 0 0 0 0 0 0 0 0 5.60519e-45 0 3.36312e-44 0 1.62551e-43 0 6.92241e-43 0 2.57559e-42 0 8.72168e-42 0 2.62477e-41 0 7.48966e-41 0 1.92012e-40 0 4.70138e-40 0 1.10168e-39 0 2.41006e-39 0
8.24824 1.56824e-09 1.40036e-09 1.67875e-10 0.107047 0.0576357 0 0 0 0 0 0 0 0 0 0 0 0 1.4013e-45 0 1.54143e-44 0 1.41531e-43 0 1.00333e-42 0 5.62621e-42 0 2.5512e-41 0 1.0098e-40 0 3.5224e-40 0 1.12362e-39 0 3.20435e-39 0 8.68702e-39 0 2.12704e-38 0 4.98525e-38 0 1.12062e-37 0 2.35957e-37 0
8.67162 2.06115e-09 1.92567e-09 1.3548e-10 0.0657306 0.0520779 0 0 0 0 0 0 0 0 0 0 9.80909e-45 0 2.11596e-43 0 2.64845e-42 0 2.25287e-41 0 1.45037e-40 0 7.48066e-40 0 3.15069e-39 0 1.16607e-38 0 3.82681e-38 0 1.15351e-37 0 3.12551e-37 0 8.07057e-37 0 1.89156e-36 0 4.25277e-36 0 9.18903e-36 0 1.86575e-35 0
9.11674 2.7131e-09 2.59265e-09 1.20451e-10 0.0443962 0.0470304 0 0 0 0 0 0 0 0 4.34403e-44 0 1.75022e-42 0 3.25339e-41 0 3.58845e-40 0 2.74979e-39 0 1.61644e-38 0 7.69547e-38 0 3.02142e-37 0 1.04902e-36 0 3.24861e-36 0 9.27863e-36 0 2.39469e-35 0 5.90361e-35 0 1.32731e-34 0 2.86844e-34 0 5.96908e-34 0 1.17078e-33 0
9.5847 3.24606e-09 3.12623e-09 1.19833e-10 0.0369164 0.0426877 0 0 0 0 0 0 6.16571e-44 0 6.51884e-42 0 2.1717e-40 0 3.50126e-39 0 3.43474e-38 0 2.3829e-37 0 1.28472e-36 0 5.66758e-36 0 2.08149e-35 0 6.80068e-35 0 1.99296e-34 0 5.40793e-34 0 1.33258e-33 0 3.14361e-33 0 6.79368e-33 0 1.41396e-32 0 2.83896e-32 0 5.38819e-32 0
10.0767 3.41659e-09 3.29418e-09 1.22409e-10 0.0358278 0.0390929 0 0 0 0 1.12104e-44 0 7.84447e-42 0 6.61056e-40 0 1.85586e-38 0 2.61227e-37 0 2.2923e-36 0 1.44681e-35 0 7.18438e-35 0 2.94786e-34 0 1.01601e-33 0 3.13309e-33 0 8.71204e-33 0 2.25158e-32 0 5.30915e-32 0 1.20105e-31 0 2.49976e-31 0 5.01983e-31 0 9.74163e-31 0 1.79196e-30 0
10.5939 3.1846e-09 3.0681e-09 1.16508e-10 0.0365847 0.036047 0 0 0 0 1.31442e-42 0 6.90142e-40 0 4.68356e-38 0 1.1173e-36 0 1.3822e-35 0 1.09086e-34 0 6.29282e-34 0 2.88963e-33 0 1.10669e-32 0 3.5907e-32 0 1.04803e-31 0 2.77228e-31 0 6.84023e-31 0 1.54675e-30 0 3.36239e-30 0 6.75215e-30 0 1.31053e-29 0 2.46225e-29 0 4.39648e-29 0
11.1377 2.79272e-09 2.68785e-09 1.04873e-10 0.0375522 0.0333197 0 0 1.4013e-45 0 1.16779e-40 0 4.51817e-38 0 2.49559e-36 0 5.09927e-35 0 5.57922e-34 0 3.98078e-33 0 2.10806e-32 0 8.98586e-32 0 3.22306e-31 0 9.87339e-31 0 2.73495e-30 0 6.89898e-30 0 1.6288e-29 0 3.5393e-29 0 7.40764e-29 0 1.43777e-28 0 2.70169e-28 0 4.92206e-28 0 8.54333e-28 0
11.7094 2.32e-09 2.22807e-09 9.1923e-11 0.039622 0.0308759 0 0 2.14399e-43 0 7.74351e-39 0 2.23975e-36 0 1.01706e-34 0 1.79352e-33 0 1.74599e-32 0 1.1318e-31 0 5.5251e-31 0 2.19418e-30 0 7.39433e-30 0 2.14466e-29 0 5.65246e-29 0 1.36287e-28 0 3.08547e-28 0 6.45527e-28 0 1.30322e-27 0 2.44887e-27 0 4.46205e-27 0 7.89455e-27 0 1.33387e-26 0
12.3105 1.61183e-09 1.5362e-09 7.56301e-11 0.0469218 0.0286048 0 0 1.5724e-41 0 3.40631e-37 0 7.47097e-35 0 2.81589e-33 0 4.31642e-32 0 3.76013e-31 0 2.22484e-30 0 1.0052e-29 0 3.732e-29 0 1.18524e-28 0 3.26353e-28 0 8.20385e-28 0 1.89484e-27 0 4.12206e-27 0 8.31869e-27 0 1.62278e-26 0 2.95688e-26 0 5.23216e-26 0 9.00277e-26 0 1.48266e-25 0
12.9424 9.63877e-10 9.08809e-10 5.50682e-11 0.0571319 0.0258284 2.10195e-44 0 7.79275e-40 0 1.03684e-35 0 1.74785e-33 0 5.51803e-32 0 7.40304e-31 0 5.80218e-30 0 3.14768e-29 0 1.32119e-28 0 4.60088e-28 0 1.38103e-27 0 3.61915e-27 0 8.69744e-27 0 1.9284e-26 0 4.03885e-26 0 7.87607e-26 0 1.48712e-25 0 2.63146e-25 0 4.52839e-25 0 7.58806e-25 0 1.2196e-24 0
13.6067 8.20185e-10 7.8248e-10 3.77045e-11 0.0459707 0.0228701 2.03328e-42 0 4.4728e-38 0 3.74326e-34 0 4.91269e-32 0 1.31039e-30 0 1.54871e-29 0 1.09773e-28 0 5.48323e-28 0 2.14583e-27 0 7.03097e-27 0 2.00019e-26 0 5.00087e-26 0 1.15143e-25 0 2.45562e-25 0 4.96074e-25 0 9.36346e-25 0 1.71394e-24 0 2.94948e-24 0 4.9429e-24 0 8.07651e-24 0 1.26838e-23 0
14.3051 9.65413e-10 9.38669e-10 2.67447e-11 0.0277029 0.0203063 2.13201e-40 0 2.87839e-36 0 1.54988e-32 0 1.60308e-30 0 3.64259e-29 0 3.81604e-28 0 2.45816e-27 0 1.13514e-26 0 4.156e-26 0 1.28508e-25 0 3.4739e-25 0 8.30542e-25 0 1.83599e-24 0 3.7734e-24 0 7.36561e-24 0 1.34781e-23 0 2.39535e-23 0 4.01429e-23 0 6.5599e-23 0 1.04647e-22 0 1.60761e-22 0
