# 0.000169365 0 81 : grain size, compostion index, size index
# Heating and cooling timescale: 7.76454e-05 8.56165e+07
# Ratio of heating to cooling to determine stochastic cutoff: 100
# Equilibrium emission is recorded even for those grains in the stochastic regime.
# Emission spectrum was computed for: 
# Type: ISRF
# Scales: 0.25 0.5 1 1.5 2 2.5 3 3.5 4 4.5 5 5.5 6 6.5 7 7.5 8 8.5 9 9.5 10
# StochasticallyHeated: 0 0 0 0 0 0 0 0 0 0 0 0 0 0 0 0 0 0 0 0 0
# Temperature: -1
# Wavelength  CExt  CAbs  CSca  Albedo G EqEm1 StEm1 EqEm2 StEm2 EqEm3 StEm3 EqEm4 StEm4 EqEm5 StEm5 EqEm6 StEm6 EqEm7 StEm7 EqEm8 StEm8 EqEm9 StEm9 EqEm10 StEm10 EqEm11 StEm11 EqEm12 StEm12 EqEm13 StEm13 EqEm14 StEm14 EqEm15 StEm15 EqEm16 StEm16 EqEm17 StEm17 EqEm18 StEm18 EqEm19 StEm19 EqEm20 StEm20 EqEm21 StEm21
0.05 1.81808e-07 8.57986e-08 9.60094e-08 0.528081 0.989532 0 0 0 0 0 0 0 0 0 0 0 0 0 0 0 0 0 0 0 0 0 0 0 0 0 0 0 0 0 0 0 0 0 0 0 0 0 0 0 0 0 0
0.0525665 1.82461e-07 8.42834e-08 9.81776e-08 0.538074 0.982912 0 0 0 0 0 0 0 0 0 0 0 0 0 0 0 0 0 0 0 0 0 0 0 0 0 0 0 0 0 0 0 0 0 0 0 0 0 0 0 0 0 0
0.0552647 1.82853e-07 8.39415e-08 9.8911e-08 0.540933 0.979317 0 0 0 0 0 0 0 0 0 0 0 0 0 0 0 0 0 0 0 0 0 0 0 0 0 0 0 0 0 0 0 0 0 0 0 0 0 0 0 0 0 0
0.0581015 1.8316e-07 8.38612e-08 9.92983e-08 0.542141 0.976817 0 0 0 0 0 0 0 0 0 0 0 0 0 0 0 0 0 0 0 0 0 0 0 0 0 0 0 0 0 0 0 0 0 0 0 0 0 0 0 0 0 0
0.0610839 1.8342e-07 8.38764e-08 9.95439e-08 0.542709 0.974942 0 0 0 0 0 0 0 0 0 0 0 0 0 0 0 0 0 0 0 0 0 0 0 0 0 0 0 0 0 0 0 0 0 0 0 0 0 0 0 0 0 0
0.0642193 1.83654e-07 8.38903e-08 9.97637e-08 0.543215 0.973296 0 0 0 0 0 0 0 0 0 0 0 0 0 0 0 0 0 0 0 0 0 0 0 0 0 0 0 0 0 0 0 0 0 0 0 0 0 0 0 0 0 0
0.0675157 1.83877e-07 8.3849e-08 1.00028e-07 0.543995 0.971566 0 0 0 0 0 0 0 0 0 0 0 0 0 0 0 0 0 0 0 0 0 0 0 0 0 0 0 0 0 0 0 0 0 0 0 0 0 0 0 0 0 0
0.0709813 1.84105e-07 8.37507e-08 1.00354e-07 0.545092 0.969585 0 0 0 0 0 0 0 0 0 0 0 0 0 0 0 0 0 0 0 0 0 0 0 0 0 0 0 0 0 0 0 0 0 0 0 0 0 0 0 0 0 0
0.0746248 1.84345e-07 8.36215e-08 1.00724e-07 0.546387 0.967349 0 0 0 0 0 0 0 0 0 0 0 0 0 0 0 0 0 0 0 0 0 0 0 0 0 0 0 0 0 0 0 0 0 0 0 0 0 0 0 0 0 0
0.0784553 1.84598e-07 8.34982e-08 1.01099e-07 0.547674 0.965014 0 0 0 0 0 0 0 0 0 0 0 0 0 0 0 0 0 0 0 0 0 0 0 0 0 0 0 0 0 0 0 0 0 0 0 0 0 0 0 0 0 0
0.0824824 1.84859e-07 8.33892e-08 1.0147e-07 0.548904 0.962641 0 0 0 0 0 0 0 0 0 0 0 0 0 0 0 0 0 0 0 0 0 0 0 0 0 0 0 0 0 0 0 0 0 0 0 0 0 0 0 0 0 0
0.0867162 1.85129e-07 8.32894e-08 1.0184e-07 0.550101 0.96022 0 0 0 0 0 0 0 0 0 0 0 0 0 0 0 0 0 0 0 0 0 0 0 0 0 0 0 0 0 0 0 0 0 0 0 0 0 0 0 0 0 0
0.0911674 1.85411e-07 8.31988e-08 1.02212e-07 0.551274 0.957736 0 0 0 0 0 0 0 0 0 0 0 0 0 0 0 0 0 0 0 0 0 0 0 0 0 0 0 0 0 0 0 0 0 0 0 0 0 0 0 0 0 0
0.095847 1.85706e-07 8.31222e-08 1.02584e-07 0.5524 0.955201 0 0 0 0 0 0 0 0 0 0 0 0 0 0 0 0 0 0 0 0 0 0 0 0 0 0 0 0 0 0 0 0 0 0 0 0 0 0 0 0 0 0
0.100767 1.86016e-07 8.30718e-08 1.02944e-07 0.553415 0.952671 0 0 0 0 0 0 0 0 0 0 0 0 0 0 0 0 0 0 0 0 0 0 0 0 0 0 0 0 0 0 0 0 0 0 0 0 0 0 0 0 0 0
0.105939 1.86344e-07 8.30935e-08 1.03251e-07 0.554086 0.950345 0 0 0 0 0 0 0 0 0 0 0 0 0 0 0 0 0 0 0 0 0 0 0 0 0 0 0 0 0 0 0 0 0 0 0 0 0 0 0 0 0 0
0.111377 1.86671e-07 8.32127e-08 1.03458e-07 0.554228 0.948589 0 0 0 0 0 0 0 0 0 0 0 0 0 0 0 0 0 0 0 0 0 0 0 0 0 0 0 0 0 0 0 0 0 0 0 0 0 0 0 0 0 0
0.117094 1.86981e-07 8.33894e-08 1.03592e-07 0.554022 0.94737 0 0 0 0 0 0 0 0 0 0 0 0 0 0 0 0 0 0 0 0 0 0 0 0 0 0 0 0 0 0 0 0 0 0 0 0 0 0 0 0 0 0
0.123105 1.873e-07 8.35287e-08 1.03771e-07 0.554038 0.945942 0 0 0 0 0 0 0 0 0 0 0 0 0 0 0 0 0 0 0 0 0 0 0 0 0 0 0 0 0 0 0 0 0 0 0 0 0 0 0 0 0 0
0.129424 1.87638e-07 8.37443e-08 1.03894e-07 0.553692 0.944804 0 0 0 0 0 0 0 0 0 0 0 0 0 0 0 0 0 0 0 0 0 0 0 0 0 0 0 0 0 0 0 0 0 0 0 0 0 0 0 0 0 0
0.136067 1.87943e-07 8.41075e-08 1.03835e-07 0.552484 0.944836 0 0 0 0 0 0 0 0 0 0 0 0 0 0 0 0 0 0 0 0 0 0 0 0 0 0 0 0 0 0 0 0 0 0 0 0 0 0 0 0 0 0
0.143051 1.88241e-07 8.43744e-08 1.03867e-07 0.551776 0.944467 0 0 0 0 0 0 0 0 0 0 0 0 0 0 0 0 0 0 0 0 0 0 0 0 0 0 0 0 0 0 0 0 0 0 0 0 0 0 0 0 0 0
0.150394 1.8857e-07 8.48546e-08 1.03715e-07 0.550009 0.945034 0 0 0 0 0 0 0 0 0 0 0 0 0 0 0 0 0 0 0 0 0 0 0 0 0 0 0 0 0 0 0 0 0 0 0 0 0 0 0 0 0 0
0.158114 1.88685e-07 8.57236e-08 1.02962e-07 0.545679 0.949452 0 0 0 0 0 0 0 0 0 0 0 0 0 0 0 0 0 0 0 0 0 0 0 0 0 0 0 0 0 0 0 0 0 0 0 0 0 0 0 0 0 0
0.16623 1.8865e-07 8.58356e-08 1.02815e-07 0.545001 0.950765 0 0 0 0 0 0 0 0 0 0 0 0 0 0 0 0 0 0 0 0 0 0 0 0 0 0 0 0 0 0 0 0 0 0 0 0 0 0 0 0 0 0
0.174762 1.88772e-07 8.52502e-08 1.03522e-07 0.548396 0.947318 0 0 0 0 0 0 0 0 0 0 0 0 0 0 0 0 0 0 0 0 0 0 0 0 0 0 0 0 0 0 0 0 0 0 0 0 0 0 0 0 0 0
0.183733 1.89052e-07 8.43607e-08 1.04691e-07 0.553769 0.941236 0 0 0 0 0 0 0 0 0 0 0 0 0 0 0 0 0 0 0 0 0 0 0 0 0 0 0 0 0 0 0 0 0 0 0 0 0 0 0 0 0 0
0.193164 1.89515e-07 8.30799e-08 1.06435e-07 0.561618 0.931714 0 0 0 0 0 0 0 0 0 0 0 0 0 0 0 0 0 0 0 0 0 0 0 0 0 0 0 0 0 0 0 0 0 0 0 0 0 0 0 0 0 0
0.203079 1.90215e-07 8.18891e-08 1.08326e-07 0.569491 0.920467 0 0 0 0 0 0 0 0 0 0 0 0 0 0 0 0 0 0 0 0 0 0 0 0 0 0 0 0 0 0 0 0 0 0 0 0 0 0 0 0 0 0
0.213503 1.90923e-07 8.10956e-08 1.09828e-07 0.575245 0.911082 0 0 0 0 0 0 0 0 0 0 0 0 0 0 0 0 0 0 0 0 0 0 0 0 0 0 0 0 0 0 0 0 0 0 0 0 0 0 0 0 0 0
0.224463 1.91639e-07 8.04889e-08 1.1115e-07 0.579996 0.902646 0 0 0 0 0 0 0 0 0 0 0 0 0 0 0 0 0 0 0 0 0 0 0 0 0 0 0 0 0 0 0 0 0 0 0 0 0 0 0 0 0 0
0.235984 1.92368e-07 7.98821e-08 1.12486e-07 0.584744 0.894179 0 0 0 0 0 0 0 0 0 0 0 0 0 0 0 0 0 0 0 0 0 0 0 0 0 0 0 0 0 0 0 0 0 0 0 0 0 0 0 0 0 0
0.248097 1.9321e-07 7.91578e-08 1.14052e-07 0.590301 0.884208 0 0 0 0 0 0 0 0 0 0 0 0 0 0 0 0 0 0 0 0 0 0 0 0 0 0 0 0 0 0 0 0 0 0 0 0 0 0 0 0 0 0
0.260832 1.94099e-07 7.87583e-08 1.1534e-07 0.594236 0.875731 0 0 0 0 0 0 0 0 0 0 0 0 0 0 0 0 0 0 0 0 0 0 0 0 0 0 0 0 0 0 0 0 0 0 0 0 0 0 0 0 0 0
0.274221 1.94997e-07 7.85857e-08 1.16412e-07 0.596991 0.868589 0 0 0 0 0 0 0 0 0 0 0 0 0 0 0 0 0 0 0 0 0 0 0 0 0 0 0 0 0 0 0 0 0 0 0 0 0 0 0 0 0 0
0.288297 1.95875e-07 7.85665e-08 1.17308e-07 0.598895 0.862658 0 0 0 0 0 0 0 0 0 0 0 0 0 0 0 0 0 0 0 0 0 0 0 0 0 0 0 0 0 0 0 0 0 0 0 0 0 0 0 0 0 0
0.303095 1.96767e-07 7.86641e-08 1.18103e-07 0.600217 0.857377 0 0 0 0 0 0 0 0 0 0 0 0 0 0 0 0 0 0 0 0 0 0 0 0 0 0 0 0 0 0 0 0 0 0 0 0 0 0 0 0 0 0
0.318653 1.97648e-07 7.88428e-08 1.18805e-07 0.601094 0.852779 0 0 0 0 0 0 0 0 0 0 0 0 0 0 0 0 0 0 0 0 0 0 0 0 0 0 0 0 0 0 0 0 0 0 0 0 0 0 0 0 0 0
0.335009 1.9853e-07 7.90732e-08 1.19457e-07 0.601707 0.84856 0 0 0 0 0 0 0 0 0 0 0 0 0 0 0 0 0 0 0 0 0 0 0 0 0 0 0 0 0 0 0 0 0 0 0 0 0 0 0 0 0 0
0.352205 1.99413e-07 7.93519e-08 1.20061e-07 0.602072 0.844683 0 0 0 0 0 0 0 0 0 0 0 0 0 0 0 0 0 0 0 0 0 0 0 0 0 0 0 0 0 0 0 0 0 0 0 0 0 0 0 0 0 0
0.370284 2.00304e-07 7.96372e-08 1.20667e-07 0.602418 0.840864 0 0 0 0 0 0 0 0 0 0 0 0 0 0 0 0 0 0 0 0 0 0 0 0 0 0 0 0 0 0 0 0 0 0 0 0 0 0 0 0 0 0
0.389291 2.01201e-07 7.99398e-08 1.21261e-07 0.602687 0.837163 0 0 0 0 0 0 0 0 0 0 0 0 0 0 0 0 0 0 0 0 0 0 0 0 0 0 0 0 0 0 0 0 0 0 0 0 0 0 0 0 0 0
0.409273 2.02111e-07 8.02347e-08 1.21876e-07 0.603016 0.833393 0 0 0 0 0 0 0 0 0 0 0 0 0 0 0 0 0 0 0 0 0 0 0 0 0 0 0 0 0 0 0 0 0 0 0 0 0 0 0 0 0 0
0.430281 2.03032e-07 8.05304e-08 1.22502e-07 0.603361 0.829578 0 0 0 0 0 0 0 0 0 0 0 0 0 0 0 0 0 0 0 0 0 0 0 0 0 0 0 0 0 0 0 0 0 0 0 0 0 0 0 0 0 0
0.452368 2.03952e-07 8.0848e-08 1.23104e-07 0.603594 0.825864 0 0 0 0 0 0 0 0 0 0 0 0 0 0 0 0 0 0 0 0 0 0 0 0 0 0 0 0 0 0 0 0 0 0 0 0 0 0 0 0 0 0
0.475588 2.04872e-07 8.11701e-08 1.23702e-07 0.603801 0.82216 0 0 0 0 0 0 0 0 0 0 0 0 0 0 0 0 0 0 0 0 0 0 0 0 0 0 0 0 0 0 0 0 0 0 0 0 0 0 0 0 0 0
0.5 2.05768e-07 8.15365e-08 1.24231e-07 0.603745 0.818772 0 0 0 0 0 0 0 0 0 0 0 0 0 0 0 0 0 0 0 0 0 0 0 0 0 0 0 0 0 0 0 0 0 0 0 0 0 0 0 0 0 0
0.525665 2.06636e-07 8.19401e-08 1.24696e-07 0.603456 0.815704 0 0 0 0 0 0 0 0 0 0 0 0 0 0 0 0 0 0 0 0 0 0 0 0 0 0 0 0 0 0 0 0 0 0 0 0 0 0 0 0 0 0
0.552648 2.07479e-07 8.2376e-08 1.25103e-07 0.602967 0.812929 0 0 0 0 0 0 0 0 0 0 0 0 0 0 0 0 0 0 0 0 0 0 0 0 0 0 0 0 0 0 0 0 0 0 0 0 0 0 0 0 0 0
0.581015 2.08305e-07 8.28309e-08 1.25474e-07 0.602358 0.810333 0 0 0 0 0 0 0 0 0 0 0 0 0 0 0 0 0 0 0 0 0 0 0 0 0 0 0 0 0 0 0 0 0 0 0 0 0 0 0 0 0 0
0.610839 2.09124e-07 8.32877e-08 1.25836e-07 0.601731 0.807765 0 0 0 0 0 0 0 0 0 0 0 0 0 0 0 0 0 0 0 0 0 0 0 0 0 0 0 0 0 0 0 0 0 0 0 0 0 0 0 0 0 0
0.642193 2.09938e-07 8.37502e-08 1.26188e-07 0.601072 0.805237 0 0 0 0 0 0 0 0 0 0 0 0 0 0 0 0 0 0 0 0 0 0 0 0 0 0 0 0 0 0 0 0 0 0 0 0 0 0 0 0 0 0
0.675157 2.10753e-07 8.42106e-08 1.26542e-07 0.60043 0.802671 0 0 0 0 0 0 0 0 0 0 0 0 0 0 0 0 0 0 0 0 0 0 0 0 0 0 0 0 0 0 0 0 0 0 0 0 0 0 0 0 0 0
0.709813 2.11566e-07 8.46682e-08 1.26898e-07 0.599802 0.80004 0 0 0 0 0 0 0 0 0 0 0 0 0 0 0 0 0 0 0 0 0 0 0 0 0 0 0 0 0 0 0 0 0 0 0 0 0 0 0 0 0 0
0.746248 2.12374e-07 8.51338e-08 1.2724e-07 0.599133 0.797413 0 0 0 0 0 0 0 0 0 0 0 0 0 0 0 0 0 0 0 0 0 0 0 0 0 0 0 0 0 0 0 0 0 0 0 0 0 0 0 0 0 0
0.784553 2.13168e-07 8.56126e-08 1.27556e-07 0.59838 0.794813 0 0 0 0 0 0 0 0 0 0 0 0 0 0 0 0 0 0 0 0 0 0 0 0 0 0 0 0 0 0 0 0 0 0 0 0 0 0 0 0 0 0
0.824824 2.13939e-07 8.61558e-08 1.27783e-07 0.597287 0.792577 0 0 0 0 0 0 0 0 0 0 0 0 0 0 0 0 0 0 0 0 0 0 0 0 0 0 0 0 0 0 0 0 0 0 0 0 0 0 0 0 0 0
0.867162 2.14718e-07 8.67804e-08 1.27938e-07 0.59584 0.790752 0 0 0 0 0 0 0 0 0 0 0 0 0 0 0 0 0 0 0 0 0 0 0 0 0 0 0 0 0 0 0 0 0 0 0 0 0 0 0 0 0 0
0.911674 2.15537e-07 8.74389e-08 1.28098e-07 0.594321 0.788951 0 0 0 0 0 0 0 0 0 0 0 0 0 0 0 0 0 0 0 0 0 0 0 0 0 0 0 0 0 0 0 0 0 0 0 0 0 0 0 0 0 0
0.95847 2.16412e-07 8.80623e-08 1.28349e-07 0.59308 0.786721 0 0 0 0 0 0 0 0 0 0 0 0 0 0 0 0 0 0 0 0 0 0 0 0 0 0 0 0 0 0 0 0 0 0 0 0 0 0 0 0 0 0
1.00767 2.17303e-07 8.86561e-08 1.28647e-07 0.592016 0.784131 0 0 0 0 0 0 0 0 0 0 0 0 0 0 0 0 0 0 0 0 0 0 0 0 0 0 0 0 0 0 0 0 0 0 0 0 0 0 0 0 0 0
1.05939 2.18214e-07 8.92776e-08 1.28936e-07 0.590872 0.781499 0 0 0 0 0 0 0 0 0 0 0 0 0 0 0 0 0 0 0 0 0 0 0 0 0 0 0 0 0 0 0 0 0 0 0 0 0 0 0 0 0 0
1.11377 2.19139e-07 8.9912e-08 1.29227e-07 0.589704 0.77877 0 0 0 0 0 0 0 0 0 0 0 0 0 0 0 0 0 0 0 0 0 0 0 0 0 0 0 0 0 0 0 0 0 0 0 0 0 0 0 0 0 0
1.17094 2.20096e-07 9.05535e-08 1.29542e-07 0.588572 0.775819 0 0 0 0 0 0 0 0 0 0 0 0 0 0 0 0 0 0 0 0 0 0 0 0 0 0 0 0 0 0 0 0 0 0 0 0 0 0 0 0 0 0
1.23105 2.21065e-07 9.12008e-08 1.29864e-07 0.587448 0.77272 0 0 0 0 0 0 0 0 0 0 0 0 0 0 0 0 0 0 0 0 0 0 0 0 0 0 0 0 0 0 0 0 0 0 0 0 0 0 0 0 0 0
1.29424 2.22063e-07 9.18925e-08 1.30171e-07 0.586187 0.769576 0 0 0 0 0 0 0 0 0 0 0 0 0 0 0 0 0 0 0 0 0 0 0 0 0 0 0 0 0 0 0 0 0 0 0 0 0 0 0 0 0 0
1.36067 2.23061e-07 9.26444e-08 1.30416e-07 0.584667 0.766559 0 0 0 0 0 0 0 0 0 0 0 0 0 0 0 0 0 0 0 0 0 0 0 0 0 0 0 0 0 0 0 0 0 0 0 0 0 0 0 0 0 0
1.43051 2.24151e-07 9.3462e-08 1.30689e-07 0.583039 0.763513 0 0 0 0 0 0 0 0 0 0 0 0 0 0 0 0 0 0 0 0 0 0 0 0 0 0 0 0 0 0 0 0 0 0 0 0 0 0 0 0 0 0
1.50394 2.25255e-07 9.42206e-08 1.31035e-07 0.581717 0.759816 0 0 0 0 0 0 0 0 0 0 0 0 0 0 0 0 0 0 0 0 0 0 0 0 0 0 0 0 0 0 0 0 0 0 0 0 0 0 0 0 0 0
1.58114 2.26383e-07 9.49675e-08 1.31416e-07 0.580501 0.755866 0 0 0 0 0 0 0 0 0 0 0 0 0 0 0 0 0 0 0 0 0 0 0 0 0 0 0 0 0 0 0 0 0 0 0 0 0 0 0 0 0 0
1.6623 2.2755e-07 9.57865e-08 1.31764e-07 0.579053 0.751832 0 0 0 0 0 0 0 0 0 0 0 0 0 0 0 0 0 0 0 0 0 0 0 0 0 0 0 0 0 0 0 0 0 0 0 0 0 0 0 0 0 0
1.74763 2.28695e-07 9.66177e-08 1.32077e-07 0.577525 0.747579 0 0 0 0 0 0 0 0 0 0 0 0 0 0 0 0 0 0 0 0 0 0 0 0 0 0 0 0 0 0 0 0 0 0 0 0 0 0 0 0 0 0
1.83733 2.29946e-07 9.74986e-08 1.32448e-07 0.575994 0.743249 0 0 0 0 0 0 0 0 0 0 0 0 0 0 0 0 0 0 0 0 0 0 0 0 0 0 0 0 0 0 0 0 0 0 0 0 0 0 0 0 0 0
1.93164 2.31242e-07 9.8382e-08 1.3286e-07 0.574549 0.738376 0 0 0 0 0 0 0 0 0 0 0 0 0 0 0 0 0 0 0 0 0 0 0 0 0 0 0 0 0 0 0 0 0 0 0 0 0 0 0 0 0 0
2.03079 2.32454e-07 9.92573e-08 1.33197e-07 0.573002 0.73311 0 0 0 0 0 0 0 0 0 0 0 0 0 0 0 0 0 0 0 0 0 0 0 0 0 0 0 0 0 0 0 0 0 0 0 0 0 0 0 0 0 0
2.13503 2.33743e-07 1.00172e-07 1.33571e-07 0.571444 0.727783 0 0 0 0 0 0 0 0 0 0 0 0 0 0 0 0 0 0 0 0 0 0 0 0 0 0 0 0 0 0 0 0 0 0 0 0 0 0 0 0 0 0
2.24463 2.35188e-07 1.01228e-07 1.3396e-07 0.569586 0.722524 0 0 0 0 0 0 0 0 0 0 0 0 0 0 0 0 0 0 0 0 0 0 0 0 0 0 0 0 0 0 0 0 0 0 0 0 0 0 0 0 0 0
2.35984 2.36603e-07 1.02318e-07 1.34284e-07 0.567552 0.716685 0 0 0 0 0 0 0 0 0 0 0 0 0 0 0 0 0 0 0 0 0 0 0 0 0 0 0 0 0 0 0 0 0 0 0 0 0 0 0 0 0 0
2.48097 2.37889e-07 1.03253e-07 1.34636e-07 0.565961 0.709759 0 0 0 0 0 0 0 0 0 0 0 0 0 0 0 0 0 0 0 0 0 0 0 0 0 0 0 0 0 0 0 0 0 0 0 0 0 0 0 0 0 0
2.60832 2.39331e-07 1.04357e-07 1.34974e-07 0.563963 0.703221 0 0 0 0 0 0 0 0 0 0 0 0 0 0 0 0 0 0 0 0 0 0 0 0 0 0 0 0 0 0 0 0 0 0 0 0 0 0 0 0 0 0
2.74221 2.41054e-07 1.05556e-07 1.35499e-07 0.562108 0.696453 0 0 0 0 0 0 0 0 0 0 0 0 0 0 0 0 0 0 0 0 0 0 0 0 0 0 0 0 0 0 0 0 0 0 0 0 0 0 0 0 0 0
2.88297 2.42678e-07 1.06782e-07 1.35895e-07 0.559983 0.689002 0 0 0 0 0 0 0 0 0 0 0 0 0 0 0 0 0 0 0 0 0 0 0 0 0 0 0 0 0 0 0 0 0 0 0 0 0 0 0 0 0 0
3.03095 2.44087e-07 1.0797e-07 1.36117e-07 0.557657 0.680399 0 0 0 0 0 0 0 0 0 0 0 0 0 0 0 0 0 0 0 0 0 0 0 0 0 0 0 0 0 0 0 0 0 0 0 0 0 0 0 0 0 0
3.18653 2.4539e-07 1.0883e-07 1.3656e-07 0.556502 0.669792 0 0 0 0 0 0 0 0 0 0 0 0 0 0 0 0 0 0 0 0 0 0 0 0 0 0 0 0 0 0 0 0 0 0 0 0 0 0 0 0 0 0
3.35009 2.46895e-07 1.09738e-07 1.37158e-07 0.555529 0.659014 0 0 0 0 0 0 0 0 0 0 0 0 0 0 0 0 0 0 0 0 0 0 0 0 0 0 0 0 0 0 0 0 0 0 0 0 0 0 0 0 0 0
3.52205 2.48989e-07 1.11203e-07 1.37786e-07 0.553381 0.649917 0 0 0 0 0 0 0 0 0 0 0 0 0 0 0 0 0 0 0 0 0 0 0 0 0 0 0 0 0 0 0 0 0 0 0 0 0 0 0 0 0 0
3.70284 2.51094e-07 1.12743e-07 1.38351e-07 0.550993 0.640574 0 0 0 0 0 0 0 0 0 0 0 0 0 0 0 0 0 0 0 0 0 0 0 0 0 0 0 0 0 0 0 0 0 0 0 0 0 0 0 0 0 0
3.89291 2.52716e-07 1.1407e-07 1.38646e-07 0.548623 0.62932 0 0 0 0 0 0 0 0 0 0 0 0 0 0 0 0 0 0 0 0 0 0 0 0 0 0 0 0 0 0 0 0 0 0 0 0 0 0 0 0 0 0
4.09273 2.53865e-07 1.15085e-07 1.3878e-07 0.546668 0.615156 0 0 0 0 0 0 0 0 0 0 0 0 0 0 0 0 0 0 0 0 0 0 0 0 0 0 0 0 0 0 0 0 0 0 0 0 0 0 0 0 0 0
4.30281 2.54995e-07 1.15979e-07 1.39015e-07 0.54517 0.598713 0 0 0 0 0 0 0 0 0 0 0 0 0 0 0 0 0 0 0 0 0 0 0 0 0 0 0 0 0 0 0 0 0 0 0 0 0 0 0 0 0 0
4.52368 2.56598e-07 1.16956e-07 1.39643e-07 0.544207 0.581476 0 0 0 0 0 0 0 0 0 0 0 0 0 0 0 0 0 0 0 0 0 0 0 0 0 0 0 0 0 0 0 0 0 0 0 0 0 0 0 0 0 0
4.75588 2.58859e-07 1.18311e-07 1.40548e-07 0.542953 0.565394 0 0 0 0 0 0 0 0 0 0 0 0 0 0 0 0 0 0 0 0 0 0 0 0 0 0 0 0 0 0 0 0 0 0 0 0 0 0 0 0 0 0
5 2.61401e-07 1.20149e-07 1.41252e-07 0.540365 0.551279 0 0 0 0 0 0 0 0 0 0 0 0 0 0 0 0 0 0 0 0 0 0 0 0 0 0 0 0 0 0 0 0 0 0 0 0 0 0 0 0 0 0
5.25665 2.63709e-07 1.22553e-07 1.41156e-07 0.535272 0.538764 0 0 0 0 0 0 0 0 0 0 0 0 0 0 0 0 0 0 0 0 0 0 0 0 0 0 0 0 0 0 0 0 0 0 0 0 0 0 0 0 0 0
5.52648 2.65309e-07 1.25063e-07 1.40245e-07 0.528612 0.524881 0 0 0 0 0 0 0 0 0 0 0 0 0 0 0 0 0 0 0 0 0 0 0 0 0 0 0 0 0 0 0 0 0 0 0 0 0 0 0 0 0 0
5.81015 2.66424e-07 1.27885e-07 1.3854e-07 0.519996 0.508447 0 0 0 0 0 0 0 0 0 0 0 0 0 0 0 0 0 0 0 0 0 0 0 0 0 0 0 0 0 0 0 0 0 0 0 0 0 0 0 0 0 0
6.10839 2.67257e-07 1.29813e-07 1.37444e-07 0.514275 0.485947 0 0 0 0 0 0 0 0 0 0 0 0 0 0 0 0 0 0 0 0 0 0 0 0 0 0 0 0 0 0 0 0 0 0 0 0 0 0 0 0 0 0
6.42193 2.66641e-07 1.29272e-07 1.37369e-07 0.515182 0.452811 0 0 0 0 0 0 0 0 0 0 0 0 0 0 0 0 0 0 0 0 0 0 0 0 0 0 0 0 0 0 0 0 0 0 0 0 0 0 0 0 0 0
6.75157 2.6577e-07 1.29297e-07 1.36473e-07 0.5135 0.415566 0 0 0 0 0 0 0 0 0 0 0 0 0 0 0 0 0 0 0 0 0 0 0 0 0 0 0 0 0 0 0 0 0 0 0 0 0 0 0 0 0 0
7.09813 2.65608e-07 1.29169e-07 1.36439e-07 0.513686 0.373053 0 0 0 0 0 0 0 0 0 0 0 0 0 0 0 0 0 0 0 0 0 0 0 0 0 0 0 0 0 0 0 0 1.4013e-45 0 2.8026e-45 0 8.40779e-45 0 2.38221e-44 0 6.44597e-44 0
7.46248 2.66258e-07 1.28313e-07 1.37945e-07 0.518087 0.324323 0 0 0 0 0 0 0 0 0 0 0 0 0 0 0 0 0 0 0 0 0 0 0 0 1.4013e-45 0 2.8026e-45 0 1.4013e-44 0 5.1848e-44 0 1.69557e-43 0 5.15678e-43 0 1.48818e-42 0 3.94185e-42 0 9.93941e-42 0
7.84553 2.6848e-07 1.2855e-07 1.39931e-07 0.521195 0.276622 0 0 0 0 0 0 0 0 0 0 0 0 0 0 0 0 0 0 0 0 4.2039e-45 0 2.66247e-44 0 1.38729e-43 0 6.12367e-43 0 2.34717e-42 0 8.13594e-42 0 2.48436e-41 0 7.17535e-41 0 1.96549e-40 0 4.96466e-40 0 1.19637e-39 0
8.24824 2.72267e-07 1.29451e-07 1.42817e-07 0.524546 0.23084 0 0 0 0 0 0 0 0 0 0 0 0 0 0 1.4013e-45 0 1.26117e-44 0 1.13505e-43 0 7.73517e-43 0 4.29918e-42 0 2.04281e-41 0 8.39224e-41 0 3.01058e-40 0 9.8198e-40 0 2.83963e-39 0 7.78775e-39 0 2.03083e-38 0 4.90278e-38 0 1.1318e-37 0
8.67162 2.77231e-07 1.31657e-07 1.45574e-07 0.525101 0.19016 0 0 0 0 0 0 0 0 0 0 0 0 9.80909e-45 0 1.80768e-43 0 2.08373e-42 0 1.67525e-41 0 1.04457e-40 0 5.34259e-40 0 2.35285e-39 0 9.02128e-39 0 3.04058e-38 0 9.36139e-38 0 2.5703e-37 0 6.7103e-37 0 1.66986e-36 0 3.86154e-36 0 8.55751e-36 0
9.11674 2.82755e-07 1.34916e-07 1.47839e-07 0.522852 0.15463 0 0 0 0 0 0 0 0 1.4013e-45 0 6.02558e-44 0 1.66895e-42 0 2.61174e-41 0 2.67174e-40 0 1.94071e-39 0 1.10668e-38 0 5.2267e-38 0 2.14109e-37 0 7.68797e-37 0 2.44194e-36 0 7.11664e-36 0 1.85995e-35 0 4.63353e-35 0 1.10285e-34 0 2.44807e-34 0 5.2184e-34 0
9.5847 2.883e-07 1.3888e-07 1.4942e-07 0.51828 0.123919 0 0 0 0 0 0 1.4013e-45 0 1.59748e-43 0 9.14347e-42 0 2.15032e-40 0 2.94147e-39 0 2.68617e-38 0 1.77114e-37 0 9.27688e-37 0 4.06153e-36 0 1.55309e-35 0 5.23923e-35 0 1.57284e-34 0 4.35055e-34 0 1.08493e-33 0 2.58497e-33 0 5.89759e-33 0 1.25913e-32 0 2.58664e-32 0
10.0767 2.93669e-07 1.43294e-07 1.50375e-07 0.512055 0.0983334 0 0 0 0 0 0 1.31722e-43 0 2.28482e-41 0 1.07483e-39 0 2.16653e-38 0 2.60831e-37 0 2.13811e-36 0 1.28575e-35 0 6.21146e-35 0 2.53029e-34 0 9.06227e-34 0 2.88088e-33 0 8.19661e-33 0 2.15734e-32 0 5.14517e-32 0 1.17502e-31 0 2.57499e-31 0 5.29773e-31 0 1.05073e-30 0
10.5939 2.98047e-07 1.47385e-07 1.50662e-07 0.505497 0.077774 0 0 0 0 1.12104e-44 0 1.88433e-41 0 2.5331e-39 0 9.87347e-38 0 1.71874e-36 0 1.8325e-35 0 1.35552e-34 0 7.4678e-34 0 3.34066e-33 0 1.27066e-32 0 4.27605e-32 0 1.28472e-31 0 3.47332e-31 0 8.71987e-31 0 1.99324e-30 0 4.37216e-30 0 9.22123e-30 0 1.8315e-29 0 3.51306e-29 0
11.1377 2.97241e-07 1.4883e-07 1.4841e-07 0.499293 0.0590885 0 0 0 0 1.80627e-42 0 2.048e-39 0 2.16725e-37 0 7.06409e-36 0 1.06959e-34 0 1.01595e-33 0 6.81554e-33 0 3.45465e-32 0 1.43641e-31 0 5.11853e-31 0 1.62341e-30 0 4.6224e-30 0 1.19046e-29 0 2.85735e-29 0 6.27311e-29 0 1.32423e-28 0 2.69298e-28 0 5.17249e-28 0 9.61098e-28 0
11.7094 2.8996e-07 1.47976e-07 1.41984e-07 0.489668 0.040216 0 0 1.4013e-45 0 2.14236e-40 0 1.72289e-37 0 1.45207e-35 0 3.99261e-34 0 5.29417e-33 0 4.50524e-32 0 2.75416e-31 0 1.28966e-30 0 5.00188e-30 0 1.67516e-29 0 5.02187e-29 0 1.35868e-28 0 3.34122e-28 0 7.68401e-28 0 1.62343e-27 0 3.30424e-27 0 6.49067e-27 0 1.20758e-26 0 2.17695e-26 0
12.3105 2.78051e-07 1.45727e-07 1.32324e-07 0.475897 0.0253174 0 0 1.23314e-43 0 1.96839e-38 0 1.14189e-35 0 7.75056e-34 0 1.81272e-32 0 2.11868e-31 0 1.62399e-30 0 9.08791e-30 0 3.94653e-29 0 1.43262e-28 0 4.52301e-28 0 1.28516e-27 0 3.3121e-27 0 7.79493e-27 0 1.72122e-26 0 3.50607e-26 0 6.8927e-26 0 1.31006e-25 0 2.36458e-25 0 4.14181e-25 0
12.9424 2.61096e-07 1.41861e-07 1.19235e-07 0.45667 0.0180246 0 0 1.59173e-41 0 1.41521e-36 0 6.01736e-34 0 3.32417e-32 0 6.66563e-31 0 6.90947e-30 0 4.79486e-29 0 2.46685e-28 0 9.97142e-28 0 3.39888e-27 0 1.0145e-26 0 2.7393e-26 0 6.74082e-26 0 1.5215e-25 0 3.23221e-25 0 6.35915e-25 0 1.20958e-24 0 2.22803e-24 0 3.90716e-24 0 6.65903e-24 0
13.6067 2.41382e-07 1.36138e-07 1.05244e-07 0.436006 0.00410668 7.00649e-45 0 1.57569e-39 0 8.03137e-35 0 2.54119e-32 0 1.15412e-30 0 1.99908e-29 0 1.84862e-28 0 1.16709e-27 0 5.54291e-27 0 2.09283e-26 0 6.7191e-26 0 1.90126e-25 0 4.89063e-25 0 1.15171e-24 0 2.49829e-24 0 5.11555e-24 0 9.73739e-24 0 1.79492e-23 0 3.20906e-23 0 5.47531e-23 0 9.09188e-23 0
14.3051 2.20969e-07 1.30684e-07 9.02855e-08 0.408589 0.00279116 1.06218e-42 0 1.22908e-37 0 3.69037e-33 0 8.81547e-31 0 3.32312e-29 0 5.00789e-28 0 4.15439e-27 0 2.39712e-26 0 1.05509e-25 0 3.73349e-25 0 1.13229e-24 0 3.04532e-24 0 7.48037e-24 0 1.68943e-23 0 3.52874e-23 0 6.97707e-23 0 1.28699e-22 0 2.30255e-22 0 4.0015e-22 0 6.65158e-22 0 1.0775e-21 0
