# 1.25e-05 1 11 : grain size, compostion index, size index
# Heating and cooling timescale: 0.038341 17738
# Ratio of heating to cooling to determine stochastic cutoff: 100
# Equilibrium emission is recorded even for those grains in the stochastic regime.
# Emission spectrum was computed for: 
# Type: ISRF
# Scales: 0.25 0.5 1 1.5 2 2.5 3 3.5 4 4.5 5 5.5 6 6.5 7 7.5 8 8.5 9 9.5 10
# StochasticallyHeated: 0 0 0 0 0 0 0 0 0 0 0 0 0 0 0 0 0 0 0 0 0
# Temperature: -1
# Wavelength  CExt  CAbs  CSca  Albedo G EqEm1 StEm1 EqEm2 StEm2 EqEm3 StEm3 EqEm4 StEm4 EqEm5 StEm5 EqEm6 StEm6 EqEm7 StEm7 EqEm8 StEm8 EqEm9 StEm9 EqEm10 StEm10 EqEm11 StEm11 EqEm12 StEm12 EqEm13 StEm13 EqEm14 StEm14 EqEm15 StEm15 EqEm16 StEm16 EqEm17 StEm17 EqEm18 StEm18 EqEm19 StEm19 EqEm20 StEm20 EqEm21 StEm21
0.05 1.09769e-09 4.65069e-10 6.32618e-10 0.576319 0.883581 0 0 0 0 0 0 0 0 0 0 0 0 0 0 0 0 0 0 0 0 0 0 0 0 0 0 0 0 0 0 0 0 0 0 0 0 0 0 0 0 0 0
0.0525665 1.1001e-09 4.6978e-10 6.30318e-10 0.572965 0.883701 0 0 0 0 0 0 0 0 0 0 0 0 0 0 0 0 0 0 0 0 0 0 0 0 0 0 0 0 0 0 0 0 0 0 0 0 0 0 0 0 0 0
0.0552647 1.10265e-09 4.74736e-10 6.27912e-10 0.569458 0.883814 0 0 0 0 0 0 0 0 0 0 0 0 0 0 0 0 0 0 0 0 0 0 0 0 0 0 0 0 0 0 0 0 0 0 0 0 0 0 0 0 0 0
0.0581015 1.10534e-09 4.79943e-10 6.25397e-10 0.565796 0.883946 0 0 0 0 0 0 0 0 0 0 0 0 0 0 0 0 0 0 0 0 0 0 0 0 0 0 0 0 0 0 0 0 0 0 0 0 0 0 0 0 0 0
0.0610839 1.10815e-09 4.85414e-10 6.22735e-10 0.56196 0.884079 0 0 0 0 0 0 0 0 0 0 0 0 0 0 0 0 0 0 0 0 0 0 0 0 0 0 0 0 0 0 0 0 0 0 0 0 0 0 0 0 0 0
0.0642193 1.11115e-09 4.9118e-10 6.19969e-10 0.557953 0.884213 0 0 0 0 0 0 0 0 0 0 0 0 0 0 0 0 0 0 0 0 0 0 0 0 0 0 0 0 0 0 0 0 0 0 0 0 0 0 0 0 0 0
0.0675157 1.11427e-09 4.97222e-10 6.17048e-10 0.553769 0.884367 0 0 0 0 0 0 0 0 0 0 0 0 0 0 0 0 0 0 0 0 0 0 0 0 0 0 0 0 0 0 0 0 0 0 0 0 0 0 0 0 0 0
0.0709813 1.11755e-09 5.03581e-10 6.13974e-10 0.54939 0.88452 0 0 0 0 0 0 0 0 0 0 0 0 0 0 0 0 0 0 0 0 0 0 0 0 0 0 0 0 0 0 0 0 0 0 0 0 0 0 0 0 0 0
0.0746248 1.12101e-09 5.10279e-10 6.10731e-10 0.544804 0.884676 0 0 0 0 0 0 0 0 0 0 0 0 0 0 0 0 0 0 0 0 0 0 0 0 0 0 0 0 0 0 0 0 0 0 0 0 0 0 0 0 0 0
0.0784553 1.12462e-09 5.17312e-10 6.07311e-10 0.540013 0.884851 0 0 0 0 0 0 0 0 0 0 0 0 0 0 0 0 0 0 0 0 0 0 0 0 0 0 0 0 0 0 0 0 0 0 0 0 0 0 0 0 0 0
0.0824824 1.12841e-09 5.2469e-10 6.03724e-10 0.53502 0.885025 0 0 0 0 0 0 0 0 0 0 0 0 0 0 0 0 0 0 0 0 0 0 0 0 0 0 0 0 0 0 0 0 0 0 0 0 0 0 0 0 0 0
0.0867162 1.13241e-09 5.32449e-10 5.99959e-10 0.529808 0.885219 0 0 0 0 0 0 0 0 0 0 0 0 0 0 0 0 0 0 0 0 0 0 0 0 0 0 0 0 0 0 0 0 0 0 0 0 0 0 0 0 0 0
0.0911674 1.13665e-09 5.40645e-10 5.9601e-10 0.524355 0.885419 0 0 0 0 0 0 0 0 0 0 0 0 0 0 0 0 0 0 0 0 0 0 0 0 0 0 0 0 0 0 0 0 0 0 0 0 0 0 0 0 0 0
0.095847 1.14109e-09 5.4923e-10 5.91858e-10 0.518679 0.885624 0 0 0 0 0 0 0 0 0 0 0 0 0 0 0 0 0 0 0 0 0 0 0 0 0 0 0 0 0 0 0 0 0 0 0 0 0 0 0 0 0 0
0.100767 1.14573e-09 5.58258e-10 5.8747e-10 0.512748 0.885846 0 0 0 0 0 0 0 0 0 0 0 0 0 0 0 0 0 0 0 0 0 0 0 0 0 0 0 0 0 0 0 0 0 0 0 0 0 0 0 0 0 0
0.105939 1.15064e-09 5.67736e-10 5.82906e-10 0.506592 0.886072 0 0 0 0 0 0 0 0 0 0 0 0 0 0 0 0 0 0 0 0 0 0 0 0 0 0 0 0 0 0 0 0 0 0 0 0 0 0 0 0 0 0
0.111377 1.15576e-09 5.7772e-10 5.78044e-10 0.50014 0.886318 0 0 0 0 0 0 0 0 0 0 0 0 0 0 0 0 0 0 0 0 0 0 0 0 0 0 0 0 0 0 0 0 0 0 0 0 0 0 0 0 0 0
0.117094 1.16118e-09 5.88213e-10 5.7297e-10 0.493437 0.886573 0 0 0 0 0 0 0 0 0 0 0 0 0 0 0 0 0 0 0 0 0 0 0 0 0 0 0 0 0 0 0 0 0 0 0 0 0 0 0 0 0 0
0.123105 1.1669e-09 5.99249e-10 5.67651e-10 0.486461 0.88684 0 0 0 0 0 0 0 0 0 0 0 0 0 0 0 0 0 0 0 0 0 0 0 0 0 0 0 0 0 0 0 0 0 0 0 0 0 0 0 0 0 0
0.129424 1.17289e-09 6.10878e-10 5.62011e-10 0.479168 0.887117 0 0 0 0 0 0 0 0 0 0 0 0 0 0 0 0 0 0 0 0 0 0 0 0 0 0 0 0 0 0 0 0 0 0 0 0 0 0 0 0 0 0
0.136067 1.17918e-09 6.23056e-10 5.56119e-10 0.471617 0.887414 0 0 0 0 0 0 0 0 0 0 0 0 0 0 0 0 0 0 0 0 0 0 0 0 0 0 0 0 0 0 0 0 0 0 0 0 0 0 0 0 0 0
0.143051 1.18579e-09 6.35871e-10 5.49916e-10 0.463756 0.887731 0 0 0 0 0 0 0 0 0 0 0 0 0 0 0 0 0 0 0 0 0 0 0 0 0 0 0 0 0 0 0 0 0 0 0 0 0 0 0 0 0 0
0.150394 1.19247e-09 6.47217e-10 5.45256e-10 0.457248 0.886524 0 0 0 0 0 0 0 0 0 0 0 0 0 0 0 0 0 0 0 0 0 0 0 0 0 0 0 0 0 0 0 0 0 0 0 0 0 0 0 0 0 0
0.158114 1.19834e-09 6.48224e-10 5.50113e-10 0.459064 0.877364 0 0 0 0 0 0 0 0 0 0 0 0 0 0 0 0 0 0 0 0 0 0 0 0 0 0 0 0 0 0 0 0 0 0 0 0 0 0 0 0 0 0
0.16623 1.20446e-09 6.49231e-10 5.55233e-10 0.460979 0.867734 0 0 0 0 0 0 0 0 0 0 0 0 0 0 0 0 0 0 0 0 0 0 0 0 0 0 0 0 0 0 0 0 0 0 0 0 0 0 0 0 0 0
0.174762 1.21094e-09 6.50335e-10 5.60607e-10 0.462951 0.857611 0 0 0 0 0 0 0 0 0 0 0 0 0 0 0 0 0 0 0 0 0 0 0 0 0 0 0 0 0 0 0 0 0 0 0 0 0 0 0 0 0 0
0.183733 1.21776e-09 6.51489e-10 5.66267e-10 0.465008 0.846964 0 0 0 0 0 0 0 0 0 0 0 0 0 0 0 0 0 0 0 0 0 0 0 0 0 0 0 0 0 0 0 0 0 0 0 0 0 0 0 0 0 0
0.193164 1.22488e-09 6.52675e-10 5.72207e-10 0.467153 0.83577 0 0 0 0 0 0 0 0 0 0 0 0 0 0 0 0 0 0 0 0 0 0 0 0 0 0 0 0 0 0 0 0 0 0 0 0 0 0 0 0 0 0
0.203079 1.24766e-09 6.59525e-10 5.88132e-10 0.47139 0.824832 0 0 0 0 0 0 0 0 0 0 0 0 0 0 0 0 0 0 0 0 0 0 0 0 0 0 0 0 0 0 0 0 0 0 0 0 0 0 0 0 0 0
0.213503 1.28876e-09 6.72946e-10 6.15815e-10 0.477835 0.814285 0 0 0 0 0 0 0 0 0 0 0 0 0 0 0 0 0 0 0 0 0 0 0 0 0 0 0 0 0 0 0 0 0 0 0 0 0 0 0 0 0 0
0.224463 1.33197e-09 6.87083e-10 6.44891e-10 0.484162 0.803184 0 0 0 0 0 0 0 0 0 0 0 0 0 0 0 0 0 0 0 0 0 0 0 0 0 0 0 0 0 0 0 0 0 0 0 0 0 0 0 0 0 0
0.235984 1.37744e-09 7.01941e-10 6.75503e-10 0.490403 0.791519 0 0 0 0 0 0 0 0 0 0 0 0 0 0 0 0 0 0 0 0 0 0 0 0 0 0 0 0 0 0 0 0 0 0 0 0 0 0 0 0 0 0
0.248097 1.42503e-09 7.17255e-10 7.07778e-10 0.496675 0.779468 0 0 0 0 0 0 0 0 0 0 0 0 0 0 0 0 0 0 0 0 0 0 0 0 0 0 0 0 0 0 0 0 0 0 0 0 0 0 0 0 0 0
0.260832 1.47159e-09 7.27672e-10 7.43915e-10 0.505519 0.770763 0 0 0 0 0 0 0 0 0 0 0 0 0 0 0 0 0 0 0 0 0 0 0 0 0 0 0 0 0 0 0 0 0 0 0 0 0 0 0 0 0 0
0.274221 1.52044e-09 7.38602e-10 7.81839e-10 0.514219 0.761612 0 0 0 0 0 0 0 0 0 0 0 0 0 0 0 0 0 0 0 0 0 0 0 0 0 0 0 0 0 0 0 0 0 0 0 0 0 0 0 0 0 0
0.288297 1.57192e-09 7.50143e-10 8.21774e-10 0.522785 0.752003 0 0 0 0 0 0 0 0 0 0 0 0 0 0 0 0 0 0 0 0 0 0 0 0 0 0 0 0 0 0 0 0 0 0 0 0 0 0 0 0 0 0
0.303095 1.61778e-09 7.58061e-10 8.59719e-10 0.531419 0.741869 0 0 0 0 0 0 0 0 0 0 0 0 0 0 0 0 0 0 0 0 0 0 0 0 0 0 0 0 0 0 0 0 0 0 0 0 0 0 0 0 0 0
0.318653 1.65498e-09 7.60741e-10 8.94242e-10 0.540333 0.731183 0 0 0 0 0 0 0 0 0 0 0 0 0 0 0 0 0 0 0 0 0 0 0 0 0 0 0 0 0 0 0 0 0 0 0 0 0 0 0 0 0 0
0.335009 1.69411e-09 7.63576e-10 9.30535e-10 0.549276 0.719955 0 0 0 0 0 0 0 0 0 0 0 0 0 0 0 0 0 0 0 0 0 0 0 0 0 0 0 0 0 0 0 0 0 0 0 0 0 0 0 0 0 0
0.352205 1.71933e-09 7.62131e-10 9.57196e-10 0.556727 0.706216 0 0 0 0 0 0 0 0 0 0 0 0 0 0 0 0 0 0 0 0 0 0 0 0 0 0 0 0 0 0 0 0 0 0 0 0 0 0 0 0 0 0
0.370284 1.71787e-09 7.52898e-10 9.6497e-10 0.561725 0.688383 0 0 0 0 0 0 0 0 0 0 0 0 0 0 0 0 0 0 0 0 0 0 0 0 0 0 0 0 0 0 0 0 0 0 0 0 0 0 0 0 0 0
0.389291 1.71638e-09 7.432e-10 9.73176e-10 0.566995 0.669629 0 0 0 0 0 0 0 0 0 0 0 0 0 0 0 0 0 0 0 0 0 0 0 0 0 0 0 0 0 0 0 0 0 0 0 0 0 0 0 0 0 0
0.409273 1.6868e-09 7.312e-10 9.55598e-10 0.566516 0.651891 0 0 0 0 0 0 0 0 0 0 0 0 0 0 0 0 0 0 0 0 0 0 0 0 0 0 0 0 0 0 0 0 0 0 0 0 0 0 0 0 0 0
0.430281 1.64413e-09 7.17786e-10 9.26343e-10 0.563425 0.634045 0 0 0 0 0 0 0 0 0 0 0 0 0 0 0 0 0 0 0 0 0 0 0 0 0 0 0 0 0 0 0 0 0 0 0 0 0 0 0 0 0 0
0.452368 1.59117e-09 7.02051e-10 8.89122e-10 0.558784 0.615262 0 0 0 0 0 0 0 0 0 0 0 0 0 0 0 0 0 0 0 0 0 0 0 0 0 0 0 0 0 0 0 0 0 0 0 0 0 0 0 0 0 0
0.475588 1.5214e-09 6.82628e-10 8.38777e-10 0.551318 0.595467 0 0 0 0 0 0 0 0 0 0 0 0 0 0 0 0 0 0 0 0 0 0 0 0 0 0 0 0 0 0 0 0 0 0 0 0 0 0 0 0 0 0
0.5 1.44589e-09 6.61357e-10 7.84533e-10 0.542595 0.574495 0 0 0 0 0 0 0 0 0 0 0 0 0 0 0 0 0 0 0 0 0 0 0 0 0 0 0 0 0 0 0 0 0 0 0 0 0 0 0 0 0 0
0.525665 1.36043e-09 6.36547e-10 7.23886e-10 0.5321 0.552009 0 0 0 0 0 0 0 0 0 0 0 0 0 0 0 0 0 0 0 0 0 0 0 0 0 0 0 0 0 0 0 0 0 0 0 0 0 0 0 0 0 0
0.552648 1.2714e-09 6.0986e-10 6.61536e-10 0.520323 0.528303 0 0 0 0 0 0 0 0 0 0 0 0 0 0 0 0 0 0 0 0 0 0 0 0 0 0 0 0 0 0 0 0 0 0 0 0 0 0 0 0 0 0
0.581015 1.17905e-09 5.80713e-10 5.98336e-10 0.507473 0.503284 0 0 0 0 0 0 0 0 0 0 0 0 0 0 0 0 0 0 0 0 0 0 0 0 0 0 0 0 0 0 0 0 0 0 0 0 0 0 0 0 0 0
0.610839 1.08664e-09 5.49248e-10 5.37387e-10 0.494542 0.476419 0 0 0 0 0 0 0 0 0 0 0 0 0 0 0 0 0 0 0 0 0 0 0 0 0 0 0 0 0 0 0 0 0 0 0 0 0 0 0 0 0 0
0.642193 9.93346e-10 5.15887e-10 4.77459e-10 0.480657 0.447822 0 0 0 0 0 0 0 0 0 0 0 0 0 0 0 0 0 0 0 0 0 0 0 0 0 0 0 0 0 0 0 0 0 0 0 0 0 0 0 0 0 0
0.675157 9.05131e-10 4.81788e-10 4.23343e-10 0.467715 0.417348 0 0 0 0 0 0 0 0 0 0 0 0 0 0 0 0 0 0 0 0 0 0 0 0 0 0 0 0 0 0 0 0 0 0 0 0 0 0 0 0 0 0
0.709813 8.20528e-10 4.479e-10 3.72628e-10 0.454132 0.386122 0 0 0 0 0 0 0 0 0 0 0 0 0 0 0 0 0 0 0 0 0 0 0 0 0 0 0 0 0 0 0 0 0 0 0 0 0 0 0 0 0 0
0.746248 7.39963e-10 4.14567e-10 3.25397e-10 0.439747 0.354509 0 0 0 0 0 0 0 0 0 0 0 0 0 0 0 0 0 0 0 0 0 0 0 0 0 0 0 0 0 0 0 0 0 0 0 0 0 0 0 0 0 0
0.784553 6.6608e-10 3.83075e-10 2.83005e-10 0.424882 0.323747 0 0 0 0 0 0 0 0 0 0 0 0 0 0 0 0 0 0 0 0 0 0 0 0 0 0 0 0 0 0 0 0 0 0 0 0 0 0 0 0 0 0
0.824824 5.99209e-10 3.53888e-10 2.45321e-10 0.409408 0.294976 0 0 0 0 0 0 0 0 0 0 0 0 0 0 0 0 0 0 0 0 0 0 0 0 0 0 0 0 0 0 0 0 0 0 0 0 0 0 0 0 0 0
0.867162 5.37698e-10 3.26491e-10 2.11207e-10 0.392799 0.26807 0 0 0 0 0 0 0 0 0 0 0 0 0 0 0 0 0 0 0 0 0 0 0 0 0 0 0 0 0 0 0 0 0 0 0 0 0 0 0 0 0 0
0.911674 4.81647e-10 3.00956e-10 1.80692e-10 0.375153 0.24333 0 0 0 0 0 0 0 0 0 0 0 0 0 0 0 0 0 0 0 0 0 0 0 0 0 0 0 0 0 0 0 0 0 0 0 0 0 0 0 0 0 0
0.95847 4.30988e-10 2.77269e-10 1.53718e-10 0.356665 0.2208 0 0 0 0 0 0 0 0 0 0 0 0 0 0 0 0 0 0 0 0 0 0 0 0 0 0 0 0 0 0 0 0 0 0 0 0 0 0 0 0 0 0
1.00767 3.85476e-10 2.55355e-10 1.30122e-10 0.33756 0.200365 0 0 0 0 0 0 0 0 0 0 0 0 0 0 0 0 0 0 0 0 0 0 0 0 0 0 0 0 0 0 0 0 0 0 0 0 0 0 0 0 0 0
1.05939 3.44772e-10 2.35111e-10 1.09661e-10 0.318067 0.181935 0 0 0 0 0 0 0 0 0 0 0 0 0 0 0 0 0 0 0 0 0 0 0 0 0 0 0 0 0 0 0 0 0 0 0 0 0 0 0 0 0 0
1.11377 3.08463e-10 2.16426e-10 9.20367e-11 0.298372 0.16529 0 0 0 0 0 0 0 0 0 0 0 0 0 0 0 0 0 0 0 0 0 0 0 0 0 0 0 0 0 0 0 0 0 0 0 0 0 0 0 0 0 0
1.17094 2.76196e-10 1.99221e-10 7.69751e-11 0.278698 0.150259 0 0 0 0 0 0 0 0 0 0 0 0 0 0 0 0 0 0 0 0 0 0 0 0 0 0 0 0 0 0 0 0 0 0 0 0 0 0 0 0 0 0
1.23105 2.47595e-10 1.83401e-10 6.41937e-11 0.259269 0.136751 0 0 0 0 0 0 0 0 0 0 0 0 0 0 0 0 0 0 0 0 0 0 0 0 0 0 0 0 0 0 0 0 0 0 0 0 0 0 0 0 0 0
1.29424 2.22382e-10 1.68931e-10 5.34518e-11 0.24036 0.124486 0 0 0 0 0 0 0 0 0 0 0 0 0 0 0 0 0 0 0 0 0 0 0 0 0 0 0 0 0 0 0 0 0 0 0 0 0 0 0 0 0 0
1.36067 2.0009e-10 1.55667e-10 4.44221e-11 0.222011 0.113365 0 0 0 0 0 0 0 0 0 0 0 0 0 0 0 0 0 0 0 0 0 0 0 0 0 0 0 0 0 0 0 0 0 0 0 0 0 0 0 0 0 0
1.43051 1.80368e-10 1.43518e-10 3.68497e-11 0.204303 0.103251 0 0 0 0 0 0 0 0 0 0 0 0 0 0 0 0 0 0 0 0 0 0 0 0 0 0 0 0 0 0 0 0 0 0 0 0 0 0 0 0 0 0
1.50394 1.62938e-10 1.32405e-10 3.05327e-11 0.187389 0.0940691 0 0 0 0 0 0 0 0 0 0 0 0 0 0 0 0 0 0 0 0 0 0 0 0 0 0 0 0 0 0 0 0 0 0 0 0 0 0 0 0 0 0
1.58114 1.47509e-10 1.22237e-10 2.52715e-11 0.171322 0.0857111 0 0 0 0 0 0 0 0 0 0 0 0 0 0 0 0 0 0 0 0 0 0 0 0 0 0 0 0 0 0 0 0 0 0 0 0 0 0 0 0 0 0
1.6623 1.33805e-10 1.12919e-10 2.08859e-11 0.156092 0.0780848 0 0 0 0 0 0 0 0 0 0 0 0 0 0 0 0 0 0 0 0 0 0 0 0 0 0 0 0 0 0 0 0 0 0 0 0 0 0 0 0 0 0
1.74763 1.21703e-10 1.04432e-10 1.72713e-11 0.141914 0.0711983 0 0 0 0 0 0 0 0 0 0 0 0 0 0 0 0 0 0 0 0 0 0 0 0 0 0 0 0 0 0 0 0 0 0 0 0 0 0 0 0 0 0
1.83733 1.10917e-10 9.66498e-11 1.42675e-11 0.128632 0.0649073 0 0 0 0 0 0 0 0 0 0 0 0 0 0 0 0 0 0 0 0 0 0 0 0 0 0 0 0 0 0 0 0 0 0 0 0 0 0 0 0 0 0
1.93164 1.01291e-10 8.95142e-11 1.17769e-11 0.116268 0.0591354 0 0 0 0 0 0 0 0 0 0 0 0 0 0 0 0 0 0 0 0 0 0 0 0 0 0 0 0 0 0 0 0 0 0 0 0 0 0 0 0 0 0
2.03079 9.27081e-11 8.29876e-11 9.72047e-12 0.10485 0.0538777 0 0 0 0 0 0 0 0 0 0 0 0 0 0 0 0 0 0 0 0 0 0 0 0 0 0 0 0 0 0 0 0 0 0 0 0 0 0 0 0 0 0
2.13503 8.50273e-11 7.70037e-11 8.02361e-12 0.0943651 0.049087 0 0 0 0 0 0 0 0 0 0 0 0 0 0 0 0 0 0 0 0 0 0 0 0 0 0 0 0 0 0 0 0 0 0 0 0 0 0 0 0 0 0
2.24463 7.81357e-11 7.15136e-11 6.62212e-12 0.0847515 0.0447183 0 0 0 0 0 0 0 0 0 0 0 0 0 0 0 0 0 0 0 0 0 0 0 0 0 0 0 0 0 0 0 0 0 0 0 0 0 0 0 0 0 0
2.35984 7.19199e-11 6.64578e-11 5.4621e-12 0.075947 0.0407294 0 0 0 0 0 0 0 0 0 0 0 0 0 0 0 0 0 0 0 0 0 0 0 0 0 0 0 0 0 0 0 0 0 0 0 0 0 0 0 0 0 0
2.48097 6.63126e-11 6.18088e-11 4.50378e-12 0.0679175 0.0370903 0 0 0 0 0 0 0 0 0 0 0 0 0 0 0 0 0 0 0 0 0 0 0 0 0 0 0 0 0 0 0 0 0 0 0 0 0 0 0 0 0 0
2.60832 6.12569e-11 5.75408e-11 3.71608e-12 0.0606638 0.0337806 0 0 0 0 0 0 0 0 0 0 0 0 0 0 0 0 0 0 0 0 0 0 0 0 0 0 0 0 0 0 0 0 0 0 0 0 0 0 0 0 0 0
2.74221 5.66654e-11 5.36018e-11 3.0636e-12 0.0540648 0.0307566 0 0 0 0 0 0 0 0 0 0 0 0 0 0 0 0 0 0 0 0 0 0 0 0 0 0 0 0 0 0 0 0 0 0 0 0 0 0 0 0 0 0
2.88297 5.24934e-11 4.99691e-11 2.52437e-12 0.0480893 0.0279997 0 0 0 0 0 0 0 0 0 0 0 0 0 0 0 0 0 0 0 0 0 0 0 0 0 0 0 0 0 0 0 0 0 0 0 0 0 0 0 0 0 0
3.03095 4.87176e-11 4.6638e-11 2.07961e-12 0.0426871 0.0254887 0 0 0 0 0 0 0 0 0 0 0 0 0 0 0 0 0 0 0 0 0 0 0 0 0 0 0 0 0 0 0 0 0 0 0 0 0 0 0 0 0 0
3.18653 4.53673e-11 4.36571e-11 1.71025e-12 0.0376977 0.0232025 0 0 0 0 0 0 0 0 0 0 0 0 0 0 0 0 0 0 0 0 0 0 0 0 0 0 0 0 0 0 0 0 0 0 0 0 0 0 0 0 0 0
3.35009 4.33772e-11 4.19691e-11 1.40815e-12 0.032463 0.0211577 0 0 0 0 0 0 0 0 0 0 0 0 0 0 0 0 0 0 0 0 0 0 0 0 0 0 0 0 0 0 0 0 0 0 0 0 0 0 0 0 0 0
3.52205 3.98618e-11 3.86756e-11 1.1862e-12 0.0297577 0.0192205 0 0 0 0 0 0 0 0 0 0 0 0 0 0 0 0 0 0 0 0 0 0 0 0 0 0 0 0 0 0 0 0 0 0 0 0 0 0 0 0 0 0
3.70284 3.62643e-11 3.52967e-11 9.67621e-13 0.0266825 0.0175155 0 0 0 0 0 0 0 0 0 0 0 0 0 0 0 0 0 0 0 0 0 0 0 0 0 0 0 0 0 0 0 0 0 0 0 0 0 0 0 0 0 0
3.89291 3.38151e-11 3.30189e-11 7.96223e-13 0.0235464 0.0159445 0 0 0 0 0 0 0 0 0 0 0 0 0 0 0 0 0 0 0 0 0 0 0 0 0 0 0 0 0 0 0 0 0 0 0 0 0 0 0 0 0 0
4.09273 3.15533e-11 3.08975e-11 6.55763e-13 0.0207827 0.0145126 0 0 0 0 0 0 0 0 0 0 0 0 0 0 0 0 0 0 0 0 0 0 0 0 0 0 0 0 0 0 0 0 0 0 0 0 0 0 0 0 0 0
4.30281 2.94619e-11 2.89216e-11 5.40259e-13 0.0183376 0.0132078 0 0 0 0 0 0 0 0 0 0 0 0 0 0 0 0 0 0 0 0 0 0 0 0 0 0 0 0 0 0 0 0 0 0 0 0 0 0 0 0 0 0
4.52368 2.75268e-11 2.70816e-11 4.45153e-13 0.0161716 0.0120201 0 0 0 0 0 0 0 0 0 0 0 0 0 0 0 0 0 0 0 0 0 0 0 0 0 0 0 0 0 0 0 0 0 0 0 0 0 0 0 0 0 0
4.75588 2.57355e-11 2.53688e-11 3.66722e-13 0.0142496 0.0109399 0 0 0 0 0 0 0 0 0 0 0 0 0 0 0 0 0 0 0 0 0 0 0 0 0 0 0 0 0 0 0 0 1.4013e-45 0 2.8026e-45 0 9.80909e-45 0 2.8026e-44 0 7.56701e-44 0
5 2.40774e-11 2.37753e-11 3.02104e-13 0.0125472 0.00995564 0 0 0 0 0 0 0 0 0 0 0 0 0 0 0 0 0 0 0 0 0 0 0 0 0 0 1.4013e-45 0 8.40779e-45 0 3.22299e-44 0 1.14906e-43 0 3.6714e-43 0 1.10142e-42 0 3.10668e-42 0 7.96078e-42 0
5.25665 2.25437e-11 2.22949e-11 2.488e-13 0.0110363 0.0090598 0 0 0 0 0 0 0 0 0 0 0 0 0 0 0 0 0 0 0 0 1.4013e-45 0 8.40779e-45 0 4.90454e-44 0 2.35418e-43 0 9.57087e-43 0 3.457e-42 0 1.16266e-41 0 3.5195e-41 0 1.00117e-40 0 2.68506e-40 0 6.57238e-40 0
5.52648 2.11318e-11 2.0927e-11 2.04835e-13 0.0096932 0.0082439 0 0 0 0 0 0 0 0 0 0 0 0 0 0 0 0 1.4013e-45 0 2.10195e-44 0 1.62551e-43 0 1.00053e-42 0 5.09933e-42 0 2.27487e-41 0 8.63564e-41 0 2.93028e-40 0 9.28816e-40 0 2.66351e-39 0 7.19963e-39 0 1.84009e-38 0 4.31148e-38 0
5.81015 1.98633e-11 1.96948e-11 1.68478e-13 0.00848188 0.00749856 0 0 0 0 0 0 0 0 0 0 0 0 1.4013e-45 0 1.82169e-44 0 2.49431e-43 0 2.2645e-42 0 1.58249e-41 0 8.90007e-41 0 4.18716e-40 0 1.73652e-39 0 6.17634e-39 0 1.97442e-38 0 5.91558e-38 0 1.61133e-37 0 4.1491e-37 0 1.01295e-36 0 2.27677e-36 0
6.10839 1.9066e-11 1.89276e-11 1.38408e-13 0.00725943 0.00681092 0 0 0 0 0 0 0 0 0 0 2.8026e-45 0 1.09301e-43 0 2.01367e-42 0 2.38249e-41 0 1.94538e-40 0 1.23667e-39 0 6.39285e-39 0 2.78858e-38 0 1.0789e-37 0 3.60685e-37 0 1.08942e-36 0 3.09375e-36 0 8.02461e-36 0 1.97306e-35 0 4.61153e-35 0 9.96333e-35 0
6.42193 1.76917e-11 1.75762e-11 1.15497e-13 0.00652829 0.00624187 0 0 0 0 0 0 0 0 4.2039e-45 0 3.47522e-43 0 1.03346e-41 0 1.65775e-40 0 1.73867e-39 0 1.28134e-38 0 7.4421e-38 0 3.55061e-37 0 1.44132e-36 0 5.21997e-36 0 1.64522e-35 0 4.70817e-35 0 1.27061e-34 0 3.14586e-34 0 7.40251e-34 0 1.6599e-33 0 3.45389e-33 0
6.75157 1.65188e-11 1.64243e-11 9.45534e-14 0.00572397 0.00567329 0 0 0 0 0 0 1.4013e-45 0 5.12875e-43 0 3.09351e-41 0 7.78074e-40 0 1.08999e-38 0 1.01926e-37 0 6.81365e-37 0 3.63168e-36 0 1.6054e-35 0 6.086e-35 0 2.06991e-34 0 6.16833e-34 0 1.67688e-33 0 4.3113e-33 0 1.02121e-32 0 2.30467e-32 0 4.96809e-32 0 9.97419e-32 0
7.09813 1.56876e-11 1.56097e-11 7.79195e-14 0.00496695 0.00515908 0 0 0 0 0 0 2.21405e-43 0 4.47575e-41 0 2.21085e-39 0 4.75049e-38 0 5.85017e-37 0 4.90489e-36 0 2.98841e-35 0 1.46787e-34 0 6.03457e-34 0 2.14358e-33 0 6.86758e-33 0 1.94029e-32 0 5.02335e-32 0 1.23333e-31 0 2.8009e-31 0 6.07482e-31 0 1.26133e-30 0 2.44758e-30 0
7.46248 1.47899e-11 1.47228e-11 6.70937e-14 0.00453645 0.00476773 0 0 0 0 9.80909e-45 0 1.97121e-41 0 3.07216e-39 0 1.25441e-37 0 2.32047e-36 0 2.52794e-35 0 1.91047e-34 0 1.0657e-33 0 4.84317e-33 0 1.85829e-32 0 6.20483e-32 0 1.87804e-31 0 5.04365e-31 0 1.24653e-30 0 2.92915e-30 0 6.39101e-30 0 1.33471e-29 0 2.67418e-29 0 5.02394e-29 0
7.84553 1.3838e-11 1.37821e-11 5.58677e-14 0.00403727 0.00436024 0 0 0 0 1.03556e-42 0 1.37677e-39 0 1.67698e-37 0 5.71306e-36 0 9.16514e-35 0 8.88567e-34 0 6.08384e-33 0 3.1205e-32 0 1.3171e-31 0 4.7325e-31 0 1.48985e-30 0 4.27203e-30 0 1.09327e-29 0 2.58522e-29 0 5.82667e-29 0 1.22379e-28 0 2.46553e-28 0 4.77505e-28 0 8.69881e-28 0
8.24824 1.28492e-11 1.28049e-11 4.43481e-14 0.00345142 0.00393864 0 0 0 0 8.16396e-41 0 7.63827e-38 0 7.3592e-36 0 2.11036e-34 0 2.95651e-33 0 2.56545e-32 0 1.59904e-31 0 7.57248e-31 0 2.9792e-30 0 1.00566e-29 0 2.99353e-29 0 8.15342e-29 0 1.993e-28 0 4.51887e-28 0 9.78863e-28 0 1.98277e-27 0 3.86032e-27 0 7.23895e-27 0 1.28068e-26 0
8.67162 1.20552e-11 1.20172e-11 3.79944e-14 0.00315171 0.003634 0 0 2.10195e-44 0 5.16943e-39 0 3.46315e-36 0 2.66961e-34 0 6.49848e-33 0 8.00318e-32 0 6.24928e-31 0 3.56226e-30 0 1.56362e-29 0 5.7537e-29 0 1.83022e-28 0 5.16543e-28 0 1.33973e-27 0 3.13496e-27 0 6.82961e-27 0 1.42462e-26 0 2.78793e-26 0 5.25419e-26 0 9.5549e-26 0 1.64397e-25 0
9.11674 1.12225e-11 1.11911e-11 3.13715e-14 0.00279541 0.00331512 0 0 1.9436e-42 0 2.61223e-37 0 1.27369e-34 0 7.94164e-33 0 1.65419e-31 0 1.80217e-30 0 1.27287e-29 0 6.66462e-29 0 2.72154e-28 0 9.39736e-28 0 2.82504e-27 0 7.57928e-27 0 1.87642e-26 0 4.21229e-26 0 8.83429e-26 0 1.77781e-25 0 3.36691e-25 0 6.15202e-25 0 1.08657e-24 0 1.82062e-24 0
9.5847 1.03759e-11 1.03512e-11 2.47126e-14 0.00238172 0.00298973 0 0 1.41146e-40 0 1.06571e-35 0 3.84104e-33 0 1.95733e-31 0 3.51525e-30 0 3.4082e-29 0 2.18808e-28 0 1.0567e-27 0 4.02861e-27 0 1.30939e-26 0 3.73035e-26 0 9.53734e-26 0 2.25895e-25 0 4.87471e-25 0 9.86048e-25 0 1.91771e-24 0 3.52037e-24 0 6.24587e-24 0 1.07293e-23 0 1.75303e-23 0
10.0767 9.81673e-12 9.79556e-12 2.11653e-14 0.00215604 0.00275984 4.2039e-44 0 8.37099e-39 0 3.65245e-34 0 9.87552e-32 0 4.15358e-30 0 6.4785e-29 0 5.62181e-28 0 3.296e-27 0 1.47395e-26 0 5.26395e-26 0 1.61522e-25 0 4.37233e-25 0 1.06779e-24 0 2.42483e-24 0 5.03982e-24 0 9.84977e-24 0 1.85441e-23 0 3.3047e-23 0 5.70137e-23 0 9.53861e-23 0 1.52157e-22 0
10.5939 9.22862e-12 9.21118e-12 1.7436e-14 0.00188934 0.00251807 3.58732e-42 0 3.98185e-37 0 1.03124e-32 0 2.12127e-30 0 7.43317e-29 0 1.01386e-27 0 7.91702e-27 0 4.25765e-26 0 1.76973e-25 0 5.93942e-25 0 1.72541e-24 0 4.44894e-24 0 1.04015e-23 0 2.26935e-23 0 4.55116e-23 0 8.60845e-23 0 1.57141e-22 0 2.72247e-22 0 4.57348e-22 0 7.46174e-22 0 1.16344e-21 0
11.1377 8.63157e-12 8.61779e-12 1.37794e-14 0.00159639 0.00227569 2.44164e-40 0 1.53703e-35 0 2.42372e-31 0 3.84395e-29 0 1.13226e-27 0 1.35938e-26 0 9.60168e-26 0 4.75647e-25 0 1.84421e-24 0 5.83412e-24 0 1.60883e-23 0 3.96087e-23 0 8.8843e-23 0 1.86589e-22 0 3.61702e-22 0 6.63191e-22 0 1.17555e-21 0 1.98273e-21 0 3.24749e-21 0 5.17323e-21 0 7.89311e-21 0
