# 0.00037584 1 161 : grain size, compostion index, size index
# Heating and cooling timescale: 1.45971e-05 1.43995e+16
# Ratio of heating to cooling to determine stochastic cutoff: 100
# Equilibrium emission is recorded even for those grains in the stochastic regime.
# Emission spectrum was computed for: 
# Type: IRSF
# Scales: 0.25 0.5 1 1.5 2 2.5 3 3.5 4 4.5 5 5.5 6 6.5 7 7.5 8 8.5 9 9.5 10
# StochasticallyHeated: 0 0 0 0 0 0 0 0 0 0 0 0 0 0 0 0 0 0 0 0 0
# Temperature: -1
# Wavelength  CExt  CAbs  CSca  Albedo G EqEm1 StEm1 EqEm2 StEm2 EqEm3 StEm3 EqEm4 StEm4 EqEm5 StEm5 EqEm6 StEm6 EqEm7 StEm7 EqEm8 StEm8 EqEm9 StEm9 EqEm10 StEm10 EqEm11 StEm11 EqEm12 StEm12 EqEm13 StEm13 EqEm14 StEm14 EqEm15 StEm15 EqEm16 StEm16 EqEm17 StEm17 EqEm18 StEm18 EqEm19 StEm19 EqEm20 StEm20 EqEm21 StEm21
0.05 2.27157e-07 1.01085e-07 1.26072e-07 0.555 0.214631 0 0 0 0 0 0 0 0 0 0 0 0 0 0 0 0 0 0 0 0 0 0 0 0 0 0 0 0 0 0 0 0 0 0 0 0 0 0 0 0 0 0
0.0525665 2.51076e-07 1.11729e-07 1.39347e-07 0.555 0.237231 0 0 0 0 0 0 0 0 0 0 0 0 0 0 0 0 0 0 0 0 0 0 0 0 0 0 0 0 0 0 0 0 0 0 0 0 0 0 0 0 0 0
0.0552647 2.77513e-07 1.23493e-07 1.5402e-07 0.555 0.26221 0 0 0 0 0 0 0 0 0 0 0 0 0 0 0 0 0 0 0 0 0 0 0 0 0 0 0 0 0 0 0 0 0 0 0 0 0 0 0 0 0 0
0.0581015 3.06734e-07 1.36496e-07 1.70237e-07 0.555 0.289819 0 0 0 0 0 0 0 0 0 0 0 0 0 0 0 0 0 0 0 0 0 0 0 0 0 0 0 0 0 0 0 0 0 0 0 0 0 0 0 0 0 0
0.0610839 3.39031e-07 1.50869e-07 1.88162e-07 0.555 0.320336 0 0 0 0 0 0 0 0 0 0 0 0 0 0 0 0 0 0 0 0 0 0 0 0 0 0 0 0 0 0 0 0 0 0 0 0 0 0 0 0 0 0
0.0642193 3.74729e-07 1.66755e-07 2.07975e-07 0.555 0.354066 0 0 0 0 0 0 0 0 0 0 0 0 0 0 0 0 0 0 0 0 0 0 0 0 0 0 0 0 0 0 0 0 0 0 0 0 0 0 0 0 0 0
0.0675157 4.14187e-07 1.84313e-07 2.29874e-07 0.555 0.391347 0 0 0 0 0 0 0 0 0 0 0 0 0 0 0 0 0 0 0 0 0 0 0 0 0 0 0 0 0 0 0 0 0 0 0 0 0 0 0 0 0 0
0.0709813 4.57798e-07 2.0372e-07 2.54078e-07 0.555 0.432554 0 0 0 0 0 0 0 0 0 0 0 0 0 0 0 0 0 0 0 0 0 0 0 0 0 0 0 0 0 0 0 0 0 0 0 0 0 0 0 0 0 0
0.0746248 5.06002e-07 2.25171e-07 2.80831e-07 0.555 0.4781 0 0 0 0 0 0 0 0 0 0 0 0 0 0 0 0 0 0 0 0 0 0 0 0 0 0 0 0 0 0 0 0 0 0 0 0 0 0 0 0 0 0
0.0784553 5.59282e-07 2.4888e-07 3.10401e-07 0.555 0.528441 0 0 0 0 0 0 0 0 0 0 0 0 0 0 0 0 0 0 0 0 0 0 0 0 0 0 0 0 0 0 0 0 0 0 0 0 0 0 0 0 0 0
0.0824824 6.18171e-07 2.75086e-07 3.43085e-07 0.555 0.584083 0 0 0 0 0 0 0 0 0 0 0 0 0 0 0 0 0 0 0 0 0 0 0 0 0 0 0 0 0 0 0 0 0 0 0 0 0 0 0 0 0 0
0.0867162 6.83262e-07 3.04052e-07 3.79211e-07 0.555 0.645585 0 0 0 0 0 0 0 0 0 0 0 0 0 0 0 0 0 0 0 0 0 0 0 0 0 0 0 0 0 0 0 0 0 0 0 0 0 0 0 0 0 0
0.0911674 7.55207e-07 3.36067e-07 4.1914e-07 0.555 0.713562 0 0 0 0 0 0 0 0 0 0 0 0 0 0 0 0 0 0 0 0 0 0 0 0 0 0 0 0 0 0 0 0 0 0 0 0 0 0 0 0 0 0
0.095847 8.34726e-07 3.71453e-07 4.63273e-07 0.555 0.788697 0 0 0 0 0 0 0 0 0 0 0 0 0 0 0 0 0 0 0 0 0 0 0 0 0 0 0 0 0 0 0 0 0 0 0 0 0 0 0 0 0 0
0.100767 9.08715e-07 4.04437e-07 5.04278e-07 0.554936 0.858563 0 0 0 0 0 0 0 0 0 0 0 0 0 0 0 0 0 0 0 0 0 0 0 0 0 0 0 0 0 0 0 0 0 0 0 0 0 0 0 0 0 0
0.105939 9.09305e-07 4.05123e-07 5.04181e-07 0.554469 0.862402 0 0 0 0 0 0 0 0 0 0 0 0 0 0 0 0 0 0 0 0 0 0 0 0 0 0 0 0 0 0 0 0 0 0 0 0 0 0 0 0 0 0
0.111377 9.09909e-07 4.06039e-07 5.0387e-07 0.553759 0.867332 0 0 0 0 0 0 0 0 0 0 0 0 0 0 0 0 0 0 0 0 0 0 0 0 0 0 0 0 0 0 0 0 0 0 0 0 0 0 0 0 0 0
0.117094 9.10504e-07 4.06885e-07 5.03619e-07 0.553121 0.870466 0 0 0 0 0 0 0 0 0 0 0 0 0 0 0 0 0 0 0 0 0 0 0 0 0 0 0 0 0 0 0 0 0 0 0 0 0 0 0 0 0 0
0.123105 9.11094e-07 4.08203e-07 5.02892e-07 0.551965 0.872419 0 0 0 0 0 0 0 0 0 0 0 0 0 0 0 0 0 0 0 0 0 0 0 0 0 0 0 0 0 0 0 0 0 0 0 0 0 0 0 0 0 0
0.129424 9.11689e-07 4.09763e-07 5.01926e-07 0.550545 0.873348 0 0 0 0 0 0 0 0 0 0 0 0 0 0 0 0 0 0 0 0 0 0 0 0 0 0 0 0 0 0 0 0 0 0 0 0 0 0 0 0 0 0
0.136067 9.12302e-07 4.10706e-07 5.01596e-07 0.549813 0.873073 0 0 0 0 0 0 0 0 0 0 0 0 0 0 0 0 0 0 0 0 0 0 0 0 0 0 0 0 0 0 0 0 0 0 0 0 0 0 0 0 0 0
0.143051 9.12921e-07 4.12506e-07 5.00415e-07 0.548147 0.870791 0 0 0 0 0 0 0 0 0 0 0 0 0 0 0 0 0 0 0 0 0 0 0 0 0 0 0 0 0 0 0 0 0 0 0 0 0 0 0 0 0 0
0.150394 9.13601e-07 4.15508e-07 4.98094e-07 0.545198 0.871952 0 0 0 0 0 0 0 0 0 0 0 0 0 0 0 0 0 0 0 0 0 0 0 0 0 0 0 0 0 0 0 0 0 0 0 0 0 0 0 0 0 0
0.158114 9.14387e-07 4.19421e-07 4.94966e-07 0.541309 0.87822 0 0 0 0 0 0 0 0 0 0 0 0 0 0 0 0 0 0 0 0 0 0 0 0 0 0 0 0 0 0 0 0 0 0 0 0 0 0 0 0 0 0
0.16623 9.15329e-07 4.23506e-07 4.91823e-07 0.537319 0.885911 0 0 0 0 0 0 0 0 0 0 0 0 0 0 0 0 0 0 0 0 0 0 0 0 0 0 0 0 0 0 0 0 0 0 0 0 0 0 0 0 0 0
0.174762 9.16269e-07 4.27148e-07 4.89121e-07 0.533818 0.892893 0 0 0 0 0 0 0 0 0 0 0 0 0 0 0 0 0 0 0 0 0 0 0 0 0 0 0 0 0 0 0 0 0 0 0 0 0 0 0 0 0 0
0.183733 9.17238e-07 4.28014e-07 4.89224e-07 0.533366 0.899127 0 0 0 0 0 0 0 0 0 0 0 0 0 0 0 0 0 0 0 0 0 0 0 0 0 0 0 0 0 0 0 0 0 0 0 0 0 0 0 0 0 0
0.193164 9.20124e-07 4.16796e-07 5.03327e-07 0.547021 0.904408 0 0 0 0 0 0 0 0 0 0 0 0 0 0 0 0 0 0 0 0 0 0 0 0 0 0 0 0 0 0 0 0 0 0 0 0 0 0 0 0 0 0
0.203079 9.20641e-07 4.18255e-07 5.02386e-07 0.545691 0.908887 0 0 0 0 0 0 0 0 0 0 0 0 0 0 0 0 0 0 0 0 0 0 0 0 0 0 0 0 0 0 0 0 0 0 0 0 0 0 0 0 0 0
0.213503 9.20119e-07 4.23861e-07 4.96257e-07 0.539341 0.912815 0 0 0 0 0 0 0 0 0 0 0 0 0 0 0 0 0 0 0 0 0 0 0 0 0 0 0 0 0 0 0 0 0 0 0 0 0 0 0 0 0 0
0.224463 9.19747e-07 4.27935e-07 4.91811e-07 0.534725 0.916046 0 0 0 0 0 0 0 0 0 0 0 0 0 0 0 0 0 0 0 0 0 0 0 0 0 0 0 0 0 0 0 0 0 0 0 0 0 0 0 0 0 0
0.235984 9.19519e-07 4.31971e-07 4.87548e-07 0.530221 0.918545 0 0 0 0 0 0 0 0 0 0 0 0 0 0 0 0 0 0 0 0 0 0 0 0 0 0 0 0 0 0 0 0 0 0 0 0 0 0 0 0 0 0
0.248097 9.19541e-07 4.35421e-07 4.8412e-07 0.52648 0.920412 0 0 0 0 0 0 0 0 0 0 0 0 0 0 0 0 0 0 0 0 0 0 0 0 0 0 0 0 0 0 0 0 0 0 0 0 0 0 0 0 0 0
0.260832 9.19922e-07 4.38212e-07 4.8171e-07 0.523642 0.92188 0 0 0 0 0 0 0 0 0 0 0 0 0 0 0 0 0 0 0 0 0 0 0 0 0 0 0 0 0 0 0 0 0 0 0 0 0 0 0 0 0 0
0.274221 9.20515e-07 4.40403e-07 4.80112e-07 0.521569 0.923062 0 0 0 0 0 0 0 0 0 0 0 0 0 0 0 0 0 0 0 0 0 0 0 0 0 0 0 0 0 0 0 0 0 0 0 0 0 0 0 0 0 0
0.288297 9.21323e-07 4.42149e-07 4.79174e-07 0.520093 0.924064 0 0 0 0 0 0 0 0 0 0 0 0 0 0 0 0 0 0 0 0 0 0 0 0 0 0 0 0 0 0 0 0 0 0 0 0 0 0 0 0 0 0
0.303095 9.22257e-07 4.43574e-07 4.78683e-07 0.519034 0.924855 0 0 0 0 0 0 0 0 0 0 0 0 0 0 0 0 0 0 0 0 0 0 0 0 0 0 0 0 0 0 0 0 0 0 0 0 0 0 0 0 0 0
0.318653 9.23332e-07 4.44773e-07 4.78559e-07 0.518296 0.9255 0 0 0 0 0 0 0 0 0 0 0 0 0 0 0 0 0 0 0 0 0 0 0 0 0 0 0 0 0 0 0 0 0 0 0 0 0 0 0 0 0 0
0.335009 9.24509e-07 4.45822e-07 4.78687e-07 0.517774 0.926 0 0 0 0 0 0 0 0 0 0 0 0 0 0 0 0 0 0 0 0 0 0 0 0 0 0 0 0 0 0 0 0 0 0 0 0 0 0 0 0 0 0
0.352205 9.2579e-07 4.46787e-07 4.79004e-07 0.5174 0.926382 0 0 0 0 0 0 0 0 0 0 0 0 0 0 0 0 0 0 0 0 0 0 0 0 0 0 0 0 0 0 0 0 0 0 0 0 0 0 0 0 0 0
0.370284 9.27158e-07 4.47682e-07 4.79476e-07 0.517146 0.926689 0 0 0 0 0 0 0 0 0 0 0 0 0 0 0 0 0 0 0 0 0 0 0 0 0 0 0 0 0 0 0 0 0 0 0 0 0 0 0 0 0 0
0.389291 9.28605e-07 4.48556e-07 4.80048e-07 0.516956 0.926877 0 0 0 0 0 0 0 0 0 0 0 0 0 0 0 0 0 0 0 0 0 0 0 0 0 0 0 0 0 0 0 0 0 0 0 0 0 0 0 0 0 0
0.409273 9.3013e-07 4.49407e-07 4.80723e-07 0.516835 0.926869 0 0 0 0 0 0 0 0 0 0 0 0 0 0 0 0 0 0 0 0 0 0 0 0 0 0 0 0 0 0 0 0 0 0 0 0 0 0 0 0 0 0
0.430281 9.31738e-07 4.50269e-07 4.81469e-07 0.516743 0.926962 0 0 0 0 0 0 0 0 0 0 0 0 0 0 0 0 0 0 0 0 0 0 0 0 0 0 0 0 0 0 0 0 0 0 0 0 0 0 0 0 0 0
0.452368 9.33415e-07 4.51139e-07 4.82277e-07 0.51668 0.926852 0 0 0 0 0 0 0 0 0 0 0 0 0 0 0 0 0 0 0 0 0 0 0 0 0 0 0 0 0 0 0 0 0 0 0 0 0 0 0 0 0 0
0.475588 9.35202e-07 4.5204e-07 4.83162e-07 0.516639 0.926384 0 0 0 0 0 0 0 0 0 0 0 0 0 0 0 0 0 0 0 0 0 0 0 0 0 0 0 0 0 0 0 0 0 0 0 0 0 0 0 0 0 0
0.5 9.37047e-07 4.52955e-07 4.84092e-07 0.516614 0.926495 0 0 0 0 0 0 0 0 0 0 0 0 0 0 0 0 0 0 0 0 0 0 0 0 0 0 0 0 0 0 0 0 0 0 0 0 0 0 0 0 0 0
0.525665 9.38998e-07 4.5391e-07 4.85088e-07 0.516602 0.925373 0 0 0 0 0 0 0 0 0 0 0 0 0 0 0 0 0 0 0 0 0 0 0 0 0 0 0 0 0 0 0 0 0 0 0 0 0 0 0 0 0 0
0.552648 9.41044e-07 4.54886e-07 4.86158e-07 0.516616 0.925689 0 0 0 0 0 0 0 0 0 0 0 0 0 0 0 0 0 0 0 0 0 0 0 0 0 0 0 0 0 0 0 0 0 0 0 0 0 0 0 0 0 0
0.581015 9.43194e-07 4.55924e-07 4.8727e-07 0.516617 0.923979 0 0 0 0 0 0 0 0 0 0 0 0 0 0 0 0 0 0 0 0 0 0 0 0 0 0 0 0 0 0 0 0 0 0 0 0 0 0 0 0 0 0
0.610839 9.45451e-07 4.57007e-07 4.88445e-07 0.516626 0.92405 0 0 0 0 0 0 0 0 0 0 0 0 0 0 0 0 0 0 0 0 0 0 0 0 0 0 0 0 0 0 0 0 0 0 0 0 0 0 0 0 0 0
0.642193 9.47815e-07 4.58112e-07 4.89703e-07 0.516665 0.92238 0 0 0 0 0 0 0 0 0 0 0 0 0 0 0 0 0 0 0 0 0 0 0 0 0 0 0 0 0 0 0 0 0 0 0 0 0 0 0 0 0 0
0.675157 9.50295e-07 4.59285e-07 4.91011e-07 0.516693 0.921118 0 0 0 0 0 0 0 0 0 0 0 0 0 0 0 0 0 0 0 0 0 0 0 0 0 0 0 0 0 0 0 0 0 0 0 0 0 0 0 0 0 0
0.709813 9.5292e-07 4.60537e-07 4.92383e-07 0.51671 0.920888 0 0 0 0 0 0 0 0 0 0 0 0 0 0 0 0 0 0 0 0 0 0 0 0 0 0 0 0 0 0 0 0 0 0 0 0 0 0 0 0 0 0
0.746248 9.5568e-07 4.61852e-07 4.93829e-07 0.51673 0.917894 0 0 0 0 0 0 0 0 0 0 0 0 0 0 0 0 0 0 0 0 0 0 0 0 0 0 0 0 0 0 0 0 0 0 0 0 0 0 0 0 0 0
0.784553 9.58581e-07 4.63242e-07 4.9534e-07 0.516742 0.916987 0 0 0 0 0 0 0 0 0 0 0 0 0 0 0 0 0 0 0 0 0 0 0 0 0 0 0 0 0 0 0 0 0 0 0 0 0 0 0 0 0 0
0.824824 9.6163e-07 4.64704e-07 4.96926e-07 0.516754 0.915765 0 0 0 0 0 0 0 0 0 0 0 0 0 0 0 0 0 0 0 0 0 0 0 0 0 0 0 0 0 0 0 0 0 0 0 0 0 0 0 0 0 0
0.867162 9.64838e-07 4.66233e-07 4.98605e-07 0.516776 0.912146 0 0 0 0 0 0 0 0 0 0 0 0 0 0 0 0 0 0 0 0 0 0 0 0 0 0 0 0 0 0 0 0 0 0 0 0 0 0 0 0 0 0
0.911674 9.68229e-07 4.67891e-07 5.00338e-07 0.516756 0.91026 0 0 0 0 0 0 0 0 0 0 0 0 0 0 0 0 0 0 0 0 0 0 0 0 0 0 0 0 0 0 0 0 0 0 0 0 0 0 0 0 0 0
0.95847 9.71813e-07 4.69678e-07 5.02135e-07 0.5167 0.908939 0 0 0 0 0 0 0 0 0 0 0 0 0 0 0 0 0 0 0 0 0 0 0 0 0 0 0 0 0 0 0 0 0 0 0 0 0 0 0 0 0 0
1.00767 9.75586e-07 4.71608e-07 5.03977e-07 0.516589 0.905171 0 0 0 0 0 0 0 0 0 0 0 0 0 0 0 0 0 0 0 0 0 0 0 0 0 0 0 0 0 0 0 0 0 0 0 0 0 0 0 0 0 0
1.05939 9.80276e-07 4.74681e-07 5.05595e-07 0.515768 0.902223 0 0 0 0 0 0 0 0 0 0 0 0 0 0 0 0 0 0 0 0 0 0 0 0 0 0 0 0 0 0 0 0 0 0 0 0 0 0 0 0 0 0
1.11377 9.85361e-07 4.77992e-07 5.07369e-07 0.514906 0.898682 0 0 0 0 0 0 0 0 0 0 0 0 0 0 0 0 0 0 0 0 0 0 0 0 0 0 0 0 0 0 0 0 0 0 0 0 0 0 0 0 0 0
1.17094 9.90836e-07 4.81504e-07 5.09333e-07 0.514043 0.894299 0 0 0 0 0 0 0 0 0 0 0 0 0 0 0 0 0 0 0 0 0 0 0 0 0 0 0 0 0 0 0 0 0 0 0 0 0 0 0 0 0 0
1.23105 9.96681e-07 4.85172e-07 5.11509e-07 0.513212 0.888793 0 0 0 0 0 0 0 0 0 0 0 0 0 0 0 0 0 0 0 0 0 0 0 0 0 0 0 0 0 0 0 0 0 0 0 0 0 0 0 0 0 0
1.29424 1.00277e-06 4.88826e-07 5.13946e-07 0.512525 0.887144 0 0 0 0 0 0 0 0 0 0 0 0 0 0 0 0 0 0 0 0 0 0 0 0 0 0 0 0 0 0 0 0 0 0 0 0 0 0 0 0 0 0
1.36067 1.00904e-06 4.92365e-07 5.16672e-07 0.512045 0.88698 0 0 0 0 0 0 0 0 0 0 0 0 0 0 0 0 0 0 0 0 0 0 0 0 0 0 0 0 0 0 0 0 0 0 0 0 0 0 0 0 0 0
1.43051 1.0157e-06 4.96163e-07 5.19534e-07 0.511505 0.882897 0 0 0 0 0 0 0 0 0 0 0 0 0 0 0 0 0 0 0 0 0 0 0 0 0 0 0 0 0 0 0 0 0 0 0 0 0 0 0 0 0 0
1.50394 1.02353e-06 4.99864e-07 5.23662e-07 0.511625 0.874937 0 0 0 0 0 0 0 0 0 0 0 0 0 0 0 0 0 0 0 0 0 0 0 0 0 0 0 0 0 0 0 0 0 0 0 0 0 0 0 0 0 0
1.58114 1.03673e-06 5.03522e-07 5.33211e-07 0.514318 0.866385 0 0 0 0 0 0 0 0 0 0 0 0 0 0 0 0 0 0 0 0 0 0 0 0 0 0 0 0 0 0 0 0 0 0 0 0 0 0 0 0 0 0
1.6623 1.05512e-06 5.0763e-07 5.47492e-07 0.51889 0.86091 0 0 0 0 0 0 0 0 0 0 0 0 0 0 0 0 0 0 0 0 0 0 0 0 0 0 0 0 0 0 0 0 0 0 0 0 0 0 0 0 0 0
1.74763 1.0708e-06 5.12147e-07 5.58653e-07 0.521716 0.86013 0 0 0 0 0 0 0 0 0 0 0 0 0 0 0 0 0 0 0 0 0 0 0 0 0 0 0 0 0 0 0 0 0 0 0 0 0 0 0 0 0 0
1.83733 1.07769e-06 5.16877e-07 5.60818e-07 0.520387 0.858479 0 0 0 0 0 0 0 0 0 0 0 0 0 0 0 0 0 0 0 0 0 0 0 0 0 0 0 0 0 0 0 0 0 0 0 0 0 0 0 0 0 0
1.93164 1.07623e-06 5.22289e-07 5.53939e-07 0.514704 0.850843 0 0 0 0 0 0 0 0 0 0 0 0 0 0 0 0 0 0 0 0 0 0 0 0 0 0 0 0 0 0 0 0 0 0 0 0 0 0 0 0 0 0
2.03079 1.07193e-06 5.27856e-07 5.44069e-07 0.507563 0.838215 0 0 0 0 0 0 0 0 0 0 0 0 0 0 0 0 0 0 0 0 0 0 0 0 0 0 0 0 0 0 0 0 0 0 0 0 0 0 0 0 0 0
2.13503 1.07029e-06 5.33834e-07 5.36459e-07 0.501226 0.820682 0 0 0 0 0 0 0 0 0 0 0 0 0 0 0 0 0 0 0 0 0 0 0 0 0 0 0 0 0 0 0 0 0 0 0 0 0 0 0 0 0 0
2.24463 1.07396e-06 5.39685e-07 5.34274e-07 0.497481 0.81383 0 0 0 0 0 0 0 0 0 0 0 0 0 0 0 0 0 0 0 0 0 0 0 0 0 0 0 0 0 0 0 0 0 0 0 0 0 0 0 0 0 0
2.35984 1.0823e-06 5.45748e-07 5.36551e-07 0.495752 0.810947 0 0 0 0 0 0 0 0 0 0 0 0 0 0 0 0 0 0 0 0 0 0 0 0 0 0 0 0 0 0 0 0 0 0 0 0 0 0 0 0 0 0
2.48097 1.09196e-06 5.51761e-07 5.40196e-07 0.494704 0.823036 0 0 0 0 0 0 0 0 0 0 0 0 0 0 0 0 0 0 0 0 0 0 0 0 0 0 0 0 0 0 0 0 0 0 0 0 0 0 0 0 0 0
2.60832 1.1009e-06 5.57255e-07 5.43645e-07 0.493819 0.83354 0 0 0 0 0 0 0 0 0 0 0 0 0 0 0 0 0 0 0 0 0 0 0 0 0 0 0 0 0 0 0 0 0 0 0 0 0 0 0 0 0 0
2.74221 1.10758e-06 5.63342e-07 5.44235e-07 0.491375 0.850107 0 0 0 0 0 0 0 0 0 0 0 0 0 0 0 0 0 0 0 0 0 0 0 0 0 0 0 0 0 0 0 0 0 0 0 0 0 0 0 0 0 0
2.88297 1.11188e-06 5.69082e-07 5.42794e-07 0.488179 0.84158 0 0 0 0 0 0 0 0 0 0 0 0 0 0 0 0 0 0 0 0 0 0 0 0 0 0 0 0 0 0 0 0 0 0 0 0 0 0 0 0 0 0
3.03095 1.11527e-06 5.74365e-07 5.40908e-07 0.485001 0.843622 0 0 0 0 0 0 0 0 0 0 0 0 0 0 0 0 0 0 0 0 0 0 0 0 0 0 0 0 0 0 0 0 0 0 0 0 0 0 0 0 0 0
3.18653 1.11967e-06 5.79856e-07 5.39814e-07 0.482119 0.806693 0 0 0 0 0 0 0 0 0 0 0 0 0 0 0 0 0 0 0 0 0 0 0 0 0 0 0 0 0 0 0 0 0 0 0 0 0 0 0 0 0 0
3.35009 1.1252e-06 5.8496e-07 5.40236e-07 0.480126 0.7813 0 0 0 0 0 0 0 0 0 0 0 0 0 0 0 0 0 0 0 0 0 0 0 0 0 0 0 0 0 0 0 0 0 0 0 0 0 0 0 0 0 0
3.52205 1.13307e-06 5.90854e-07 5.42217e-07 0.478537 0.724511 0 0 0 0 0 0 0 0 0 0 0 0 0 0 0 0 0 0 0 0 0 0 0 0 0 0 0 0 0 0 0 0 0 0 0 0 0 0 0 0 0 0
3.70284 1.14141e-06 5.92883e-07 5.48526e-07 0.480569 0.662502 0 0 0 0 0 0 0 0 0 0 0 0 0 0 0 0 0 0 0 0 0 0 0 0 0 0 0 0 0 0 0 0 0 0 0 0 0 0 0 0 0 0
3.89291 1.15593e-06 5.96474e-07 5.59456e-07 0.483988 0.630112 0 0 0 0 0 0 0 0 0 0 0 0 0 0 0 0 0 0 0 0 0 0 0 0 0 0 0 0 0 0 0 0 0 0 0 0 0 0 0 0 0 0
4.09273 1.17426e-06 6.00687e-07 5.73578e-07 0.488457 0.580785 0 0 0 0 0 0 0 0 0 0 0 0 0 0 0 0 0 0 0 0 0 0 0 0 0 0 0 0 0 0 0 0 0 0 0 0 0 0 0 0 0 0
4.30281 1.19455e-06 6.02853e-07 5.91696e-07 0.49533 0.597624 0 0 0 0 0 0 0 0 0 0 0 0 0 0 0 0 0 0 0 0 0 0 0 0 0 0 0 0 0 0 0 0 0 0 0 0 0 0 0 0 0 0
4.52368 1.21907e-06 6.06202e-07 6.1287e-07 0.502735 0.619897 0 0 0 0 0 0 0 0 0 0 0 0 0 0 0 0 0 0 0 0 0 0 0 0 0 0 0 0 0 0 0 0 0 0 0 0 0 0 0 0 0 0
4.75588 1.24154e-06 6.09875e-07 6.31668e-07 0.508777 0.645474 0 0 0 0 0 0 0 0 0 0 0 0 0 0 0 0 0 0 0 0 0 0 0 0 0 0 0 0 0 0 0 0 0 0 0 0 0 0 0 0 0 0
5 1.26094e-06 6.12553e-07 6.4839e-07 0.514211 0.69392 0 0 0 0 0 0 0 0 0 0 0 0 0 0 0 0 0 0 0 0 0 0 0 0 0 0 0 0 0 0 0 0 0 0 0 0 0 0 0 0 0 0
5.25665 1.2793e-06 6.15451e-07 6.63847e-07 0.518915 0.719325 0 0 0 0 0 0 0 0 0 0 0 0 0 0 0 0 0 0 0 0 0 0 0 0 0 0 0 0 0 0 0 0 0 0 0 0 0 0 0 0 0 0
5.52648 1.29419e-06 6.18338e-07 6.75853e-07 0.522221 0.744307 0 0 0 0 0 0 0 0 0 0 0 0 0 0 0 0 0 0 0 0 0 0 0 0 0 0 0 0 0 0 0 0 0 0 0 0 0 0 0 0 0 0
5.81015 1.30389e-06 6.20349e-07 6.83539e-07 0.524232 0.767002 0 0 0 0 0 0 0 0 0 0 0 0 0 0 0 0 0 0 0 0 0 0 0 0 0 0 0 0 0 0 0 0 0 0 0 0 0 0 0 0 0 0
6.10839 1.30814e-06 6.21405e-07 6.86736e-07 0.524971 0.781774 0 0 0 0 0 0 0 0 0 0 0 0 0 0 0 0 0 0 0 0 0 0 0 0 0 0 0 0 0 0 0 0 0 0 0 0 0 0 0 0 0 0
6.42193 1.3072e-06 6.21862e-07 6.85335e-07 0.524278 0.792507 0 0 0 0 0 0 0 0 0 0 0 0 0 0 0 0 0 0 0 0 0 0 0 0 0 0 0 0 0 0 0 0 0 0 0 0 0 0 0 0 0 0
6.75157 1.29842e-06 6.22102e-07 6.76316e-07 0.520877 0.797889 0 0 0 0 0 0 0 0 0 0 0 0 0 0 0 0 0 0 0 0 0 0 0 0 0 0 0 0 0 0 0 0 0 0 0 0 0 0 0 0 0 0
7.09813 1.28562e-06 6.21655e-07 6.63964e-07 0.516454 0.803779 0 0 0 0 0 0 0 0 0 0 0 0 0 0 0 0 0 0 0 0 0 0 0 0 0 0 0 0 0 0 0 0 0 0 0 0 0 0 0 0 0 0
7.46248 1.25558e-06 6.16771e-07 6.3881e-07 0.508776 0.814663 0 0 0 0 0 0 0 0 0 0 0 0 0 0 0 0 0 0 0 0 0 0 0 0 0 0 0 0 0 0 0 0 0 0 0 0 0 0 0 0 0 0
7.84553 1.19693e-06 6.04045e-07 5.92881e-07 0.495336 0.814775 0 0 0 0 0 0 0 0 0 0 0 0 0 0 0 0 0 0 0 0 0 0 0 0 0 0 0 0 0 0 0 0 0 0 0 0 0 0 1.4013e-45 0 2.8026e-45 0
8.24824 1.0807e-06 5.95863e-07 4.84838e-07 0.448633 0.798815 0 0 0 0 0 0 0 0 0 0 0 0 0 0 0 0 0 0 0 0 0 0 0 0 0 0 0 0 1.4013e-45 0 2.8026e-45 0 8.40779e-45 0 2.66247e-44 0 7.28675e-44 0 1.86373e-43 0 4.6383e-43 0
8.67162 1.01198e-06 6.05845e-07 4.06134e-07 0.401326 0.771447 0 0 0 0 0 0 0 0 0 0 0 0 0 0 0 0 0 0 0 0 0 0 1.4013e-45 0 9.80909e-45 0 4.06377e-44 0 1.5134e-43 0 5.1848e-43 0 1.54843e-42 0 4.51919e-42 0 1.19853e-41 0 2.90195e-41 0 6.92213e-41 0
9.11674 1.02279e-06 6.32453e-07 3.90334e-07 0.381638 0.733308 0 0 0 0 0 0 0 0 0 0 0 0 0 0 0 0 1.4013e-45 0 9.80909e-45 0 7.00649e-44 0 3.78351e-43 0 1.725e-42 0 6.95605e-42 0 2.41149e-41 0 7.82037e-41 0 2.21195e-40 0 6.12618e-40 0 1.54904e-39 0 3.59208e-39 0 8.21222e-39 0
9.5847 1.12051e-06 6.66901e-07 4.53611e-07 0.404825 0.702465 0 0 0 0 0 0 0 0 0 0 0 0 1.4013e-45 0 2.10195e-44 0 2.36819e-43 0 1.87354e-42 0 1.16308e-41 0 5.79451e-41 0 2.44965e-40 0 9.23101e-40 0 3.01193e-39 0 9.22216e-39 0 2.47934e-38 0 6.53356e-38 0 1.57889e-37 0 3.514e-37 0 7.71584e-37 0
10.0767 1.20406e-06 6.8954e-07 5.14522e-07 0.427322 0.680681 0 0 0 0 0 0 0 0 0 0 9.80909e-45 0 2.43826e-43 0 3.6714e-42 0 3.60456e-41 0 2.57426e-40 0 1.4619e-39 0 6.73383e-39 0 2.65326e-38 0 9.3712e-38 0 2.88613e-37 0 8.3671e-37 0 2.14343e-36 0 5.38737e-36 0 1.24701e-35 0 2.66904e-35 0 5.63974e-35 0
10.5939 1.25243e-06 7.02452e-07 5.49975e-07 0.439127 0.657285 0 0 0 0 0 0 0 0 2.94273e-44 0 1.6171e-42 0 3.61661e-41 0 4.75919e-40 0 4.17947e-39 0 2.71166e-38 0 1.41474e-37 0 6.04829e-37 0 2.22882e-36 0 7.40173e-36 0 2.15775e-35 0 5.93871e-35 0 1.45305e-34 0 3.49144e-34 0 7.75715e-34 0 1.59975e-33 0 3.25906e-33 0
11.1377 1.29065e-06 7.13747e-07 5.769e-07 0.446985 0.642799 0 0 0 0 0 0 2.94273e-44 0 4.79664e-42 0 2.15164e-40 0 4.13475e-39 0 4.79779e-38 0 3.78931e-37 0 2.24401e-36 0 1.08003e-35 0 4.30117e-35 0 1.48721e-34 0 4.65781e-34 0 1.28874e-33 0 3.37588e-33 0 7.90681e-33 0 1.82028e-32 0 3.88963e-32 0 7.74302e-32 0 1.52357e-31 0
11.7094 1.32585e-06 7.25254e-07 6.00601e-07 0.452991 0.630541 0 0 0 0 2.8026e-45 0 4.72097e-42 0 5.98346e-40 0 2.22926e-38 0 3.70823e-37 0 3.81752e-36 0 2.72571e-35 0 1.47989e-34 0 6.59663e-34 0 2.45568e-33 0 7.99193e-33 0 2.3673e-32 0 6.23241e-32 0 1.55761e-31 0 3.49968e-31 0 7.73542e-31 0 1.59277e-30 0 3.06589e-30 0 5.83656e-30 0
12.3105 1.34915e-06 7.28333e-07 6.2082e-07 0.460155 0.619843 0 0 0 0 5.53513e-43 0 5.75934e-40 0 5.76216e-38 0 1.79921e-36 0 2.60899e-35 0 2.39688e-34 0 1.55476e-33 0 7.77212e-33 0 3.22064e-32 0 1.1244e-31 0 3.45445e-31 0 9.70411e-31 0 2.43687e-30 0 5.82389e-30 0 1.25782e-29 0 2.67458e-29 0 5.31631e-29 0 9.91124e-29 0 1.82842e-28 0
12.9424 1.30758e-06 7.1056e-07 5.97016e-07 0.456582 0.606214 0 0 0 0 7.19118e-41 0 5.33372e-38 0 4.26171e-36 0 1.1249e-34 0 1.43153e-33 0 1.18018e-32 0 6.98747e-32 0 3.22904e-31 0 1.24834e-30 0 4.10015e-30 0 1.1925e-29 0 3.18518e-29 0 7.64692e-29 0 1.75143e-28 0 3.6431e-28 0 7.46641e-28 0 1.43516e-27 0 2.59543e-27 0 4.64701e-27 0
13.6067 1.25625e-06 6.95477e-07 5.60777e-07 0.446388 0.582951 0 0 5.32493e-44 0 7.29707e-39 0 3.91964e-36 0 2.52877e-34 0 5.68897e-33 0 6.39419e-32 0 4.75559e-31 0 2.58146e-30 0 1.10704e-29 0 4.00635e-29 0 1.24165e-28 0 3.42785e-28 0 8.72699e-28 0 2.00746e-27 0 4.41552e-27 0 8.86195e-27 0 1.7537e-26 0 3.26503e-26 0 5.73634e-26 0 9.9827e-26 0
14.3051 1.19862e-06 6.8369e-07 5.14931e-07 0.429603 0.562218 0 0 7.69733e-42 0 5.85699e-37 0 2.31461e-34 0 1.21839e-32 0 2.35447e-31 0 2.35149e-30 0 1.58568e-29 0 7.92516e-29 0 3.16544e-28 0 1.07584e-27 0 3.15511e-27 0 8.28903e-27 0 2.01619e-26 0 4.45298e-26 0 9.42479e-26 0 1.8283e-25 0 3.49945e-25 0 6.32053e-25 0 1.08032e-24 0 1.82985e-24 0
15.0394 1.13883e-06 6.79052e-07 4.59773e-07 0.403726 0.543725 4.2039e-45 0 8.61063e-40 0 3.78452e-35 0 1.11693e-32 0 4.84501e-31 0 8.10232e-30 0 7.23207e-29 0 4.4429e-28 0 2.05277e-27 0 7.66306e-27 0 2.45344e-26 0 6.82697e-26 0 1.71095e-25 0 3.98489e-25 0 8.4671e-25 0 1.72766e-24 0 3.24476e-24 0 6.01685e-24 0 1.05581e-23 0 1.758e-23 0 2.90208e-23 0
