# 1.7783e-05 1 108 : grain size, compostion index, size index
# Heating and cooling timescale: 0.0382739 1.69016e+06
# Ratio of heating to cooling to determine stochastic cutoff: 100
# Equilibrium emission is recorded even for those grains in the stochastic regime.
# Emission spectrum was computed for: 
# Type: IRSF
# Scales: 0.25 0.5 1 1.5 2 2.5 3 3.5 4 4.5 5 5.5 6 6.5 7 7.5 8 8.5 9 9.5 10
# StochasticallyHeated: 0 0 0 0 0 0 0 0 0 0 0 0 0 0 0 0 0 0 0 0 0
# Temperature: -1
# Wavelength  CExt  CAbs  CSca  Albedo G EqEm1 StEm1 EqEm2 StEm2 EqEm3 StEm3 EqEm4 StEm4 EqEm5 StEm5 EqEm6 StEm6 EqEm7 StEm7 EqEm8 StEm8 EqEm9 StEm9 EqEm10 StEm10 EqEm11 StEm11 EqEm12 StEm12 EqEm13 StEm13 EqEm14 StEm14 EqEm15 StEm15 EqEm16 StEm16 EqEm17 StEm17 EqEm18 StEm18 EqEm19 StEm19 EqEm20 StEm20 EqEm21 StEm21
0.05 5.90352e-10 2.76476e-10 3.13876e-10 0.531676 0.211413 0 0 0 0 0 0 0 0 0 0 0 0 0 0 0 0 0 0 0 0 0 0 0 0 0 0 0 0 0 0 0 0 0 0 0 0 0 0 0 0 0 0
0.0525665 6.52513e-10 3.05588e-10 3.46925e-10 0.531676 0.233674 0 0 0 0 0 0 0 0 0 0 0 0 0 0 0 0 0 0 0 0 0 0 0 0 0 0 0 0 0 0 0 0 0 0 0 0 0 0 0 0 0 0
0.0552647 7.21219e-10 3.37765e-10 3.83455e-10 0.531676 0.258278 0 0 0 0 0 0 0 0 0 0 0 0 0 0 0 0 0 0 0 0 0 0 0 0 0 0 0 0 0 0 0 0 0 0 0 0 0 0 0 0 0 0
0.0581015 7.9716e-10 3.73329e-10 4.23831e-10 0.531676 0.285474 0 0 0 0 0 0 0 0 0 0 0 0 0 0 0 0 0 0 0 0 0 0 0 0 0 0 0 0 0 0 0 0 0 0 0 0 0 0 0 0 0 0
0.0610839 8.81097e-10 4.12639e-10 4.68458e-10 0.531676 0.315533 0 0 0 0 0 0 0 0 0 0 0 0 0 0 0 0 0 0 0 0 0 0 0 0 0 0 0 0 0 0 0 0 0 0 0 0 0 0 0 0 0 0
0.0642193 9.73872e-10 4.56088e-10 5.17784e-10 0.531676 0.348757 0 0 0 0 0 0 0 0 0 0 0 0 0 0 0 0 0 0 0 0 0 0 0 0 0 0 0 0 0 0 0 0 0 0 0 0 0 0 0 0 0 0
0.0675157 1.07642e-09 5.04112e-10 5.72304e-10 0.531676 0.385479 0 0 0 0 0 0 0 0 0 0 0 0 0 0 0 0 0 0 0 0 0 0 0 0 0 0 0 0 0 0 0 0 0 0 0 0 0 0 0 0 0 0
0.0709813 1.18976e-09 5.57192e-10 6.32565e-10 0.531676 0.426068 0 0 0 0 0 0 0 0 0 0 0 0 0 0 0 0 0 0 0 0 0 0 0 0 0 0 0 0 0 0 0 0 0 0 0 0 0 0 0 0 0 0
0.0746248 1.31503e-09 6.15862e-10 6.99171e-10 0.531676 0.470931 0 0 0 0 0 0 0 0 0 0 0 0 0 0 0 0 0 0 0 0 0 0 0 0 0 0 0 0 0 0 0 0 0 0 0 0 0 0 0 0 0 0
0.0784553 1.4535e-09 6.80709e-10 7.72791e-10 0.531676 0.520518 0 0 0 0 0 0 0 0 0 0 0 0 0 0 0 0 0 0 0 0 0 0 0 0 0 0 0 0 0 0 0 0 0 0 0 0 0 0 0 0 0 0
0.0824824 1.60655e-09 7.52385e-10 8.54162e-10 0.531676 0.575326 0 0 0 0 0 0 0 0 0 0 0 0 0 0 0 0 0 0 0 0 0 0 0 0 0 0 0 0 0 0 0 0 0 0 0 0 0 0 0 0 0 0
0.0867162 1.77571e-09 8.31608e-10 9.44101e-10 0.531676 0.635906 0 0 0 0 0 0 0 0 0 0 0 0 0 0 0 0 0 0 0 0 0 0 0 0 0 0 0 0 0 0 0 0 0 0 0 0 0 0 0 0 0 0
0.0911674 1.96268e-09 9.19172e-10 1.04351e-09 0.531676 0.702863 0 0 0 0 0 0 0 0 0 0 0 0 0 0 0 0 0 0 0 0 0 0 0 0 0 0 0 0 0 0 0 0 0 0 0 0 0 0 0 0 0 0
0.095847 2.16934e-09 1.01596e-09 1.15339e-09 0.531676 0.776871 0 0 0 0 0 0 0 0 0 0 0 0 0 0 0 0 0 0 0 0 0 0 0 0 0 0 0 0 0 0 0 0 0 0 0 0 0 0 0 0 0 0
0.100767 2.36406e-09 1.10802e-09 1.25604e-09 0.531308 0.845457 0 0 0 0 0 0 0 0 0 0 0 0 0 0 0 0 0 0 0 0 0 0 0 0 0 0 0 0 0 0 0 0 0 0 0 0 0 0 0 0 0 0
0.105939 2.38175e-09 1.12178e-09 1.25997e-09 0.529008 0.847384 0 0 0 0 0 0 0 0 0 0 0 0 0 0 0 0 0 0 0 0 0 0 0 0 0 0 0 0 0 0 0 0 0 0 0 0 0 0 0 0 0 0
0.111377 2.39904e-09 1.13602e-09 1.26302e-09 0.526469 0.850314 0 0 0 0 0 0 0 0 0 0 0 0 0 0 0 0 0 0 0 0 0 0 0 0 0 0 0 0 0 0 0 0 0 0 0 0 0 0 0 0 0 0
0.117094 2.41624e-09 1.15015e-09 1.2661e-09 0.523994 0.851542 0 0 0 0 0 0 0 0 0 0 0 0 0 0 0 0 0 0 0 0 0 0 0 0 0 0 0 0 0 0 0 0 0 0 0 0 0 0 0 0 0 0
0.123105 2.43301e-09 1.16546e-09 1.26755e-09 0.520981 0.851584 0 0 0 0 0 0 0 0 0 0 0 0 0 0 0 0 0 0 0 0 0 0 0 0 0 0 0 0 0 0 0 0 0 0 0 0 0 0 0 0 0 0
0.129424 2.44895e-09 1.18186e-09 1.2671e-09 0.517403 0.85057 0 0 0 0 0 0 0 0 0 0 0 0 0 0 0 0 0 0 0 0 0 0 0 0 0 0 0 0 0 0 0 0 0 0 0 0 0 0 0 0 0 0
0.136067 2.46623e-09 1.19707e-09 1.26916e-09 0.514615 0.84828 0 0 0 0 0 0 0 0 0 0 0 0 0 0 0 0 0 0 0 0 0 0 0 0 0 0 0 0 0 0 0 0 0 0 0 0 0 0 0 0 0 0
0.143051 2.48446e-09 1.21571e-09 1.26876e-09 0.510677 0.843932 0 0 0 0 0 0 0 0 0 0 0 0 0 0 0 0 0 0 0 0 0 0 0 0 0 0 0 0 0 0 0 0 0 0 0 0 0 0 0 0 0 0
0.150394 2.50451e-09 1.2397e-09 1.26482e-09 0.505015 0.842619 0 0 0 0 0 0 0 0 0 0 0 0 0 0 0 0 0 0 0 0 0 0 0 0 0 0 0 0 0 0 0 0 0 0 0 0 0 0 0 0 0 0
0.158114 2.51834e-09 1.26764e-09 1.25069e-09 0.496634 0.84492 0 0 0 0 0 0 0 0 0 0 0 0 0 0 0 0 0 0 0 0 0 0 0 0 0 0 0 0 0 0 0 0 0 0 0 0 0 0 0 0 0 0
0.16623 2.54209e-09 1.28329e-09 1.2588e-09 0.495182 0.838917 0 0 0 0 0 0 0 0 0 0 0 0 0 0 0 0 0 0 0 0 0 0 0 0 0 0 0 0 0 0 0 0 0 0 0 0 0 0 0 0 0 0
0.174762 2.61912e-09 1.26742e-09 1.3517e-09 0.51609 0.830456 0 0 0 0 0 0 0 0 0 0 0 0 0 0 0 0 0 0 0 0 0 0 0 0 0 0 0 0 0 0 0 0 0 0 0 0 0 0 0 0 0 0
0.183733 2.61263e-09 1.18492e-09 1.42772e-09 0.546466 0.827863 0 0 0 0 0 0 0 0 0 0 0 0 0 0 0 0 0 0 0 0 0 0 0 0 0 0 0 0 0 0 0 0 0 0 0 0 0 0 0 0 0 0
0.193164 2.49149e-09 1.06772e-09 1.42377e-09 0.571454 0.822424 0 0 0 0 0 0 0 0 0 0 0 0 0 0 0 0 0 0 0 0 0 0 0 0 0 0 0 0 0 0 0 0 0 0 0 0 0 0 0 0 0 0
0.203079 2.42386e-09 1.03253e-09 1.39133e-09 0.574013 0.734197 0 0 0 0 0 0 0 0 0 0 0 0 0 0 0 0 0 0 0 0 0 0 0 0 0 0 0 0 0 0 0 0 0 0 0 0 0 0 0 0 0 0
0.213503 2.50637e-09 9.90038e-10 1.51633e-09 0.604991 0.643861 0 0 0 0 0 0 0 0 0 0 0 0 0 0 0 0 0 0 0 0 0 0 0 0 0 0 0 0 0 0 0 0 0 0 0 0 0 0 0 0 0 0
0.224463 2.70763e-09 9.60003e-10 1.74763e-09 0.645446 0.464027 0 0 0 0 0 0 0 0 0 0 0 0 0 0 0 0 0 0 0 0 0 0 0 0 0 0 0 0 0 0 0 0 0 0 0 0 0 0 0 0 0 0
0.235984 2.90326e-09 9.28187e-10 1.97507e-09 0.680295 0.431724 0 0 0 0 0 0 0 0 0 0 0 0 0 0 0 0 0 0 0 0 0 0 0 0 0 0 0 0 0 0 0 0 0 0 0 0 0 0 0 0 0 0
0.248097 3.16897e-09 9.0204e-10 2.26693e-09 0.715352 0.416247 0 0 0 0 0 0 0 0 0 0 0 0 0 0 0 0 0 0 0 0 0 0 0 0 0 0 0 0 0 0 0 0 0 0 0 0 0 0 0 0 0 0
0.260832 3.39843e-09 8.78992e-10 2.51944e-09 0.741353 0.499309 0 0 0 0 0 0 0 0 0 0 0 0 0 0 0 0 0 0 0 0 0 0 0 0 0 0 0 0 0 0 0 0 0 0 0 0 0 0 0 0 0 0
0.274221 3.57074e-09 8.53478e-10 2.71726e-09 0.76098 0.528975 0 0 0 0 0 0 0 0 0 0 0 0 0 0 0 0 0 0 0 0 0 0 0 0 0 0 0 0 0 0 0 0 0 0 0 0 0 0 0 0 0 0
0.288297 3.69813e-09 8.22769e-10 2.87536e-09 0.777517 0.569711 0 0 0 0 0 0 0 0 0 0 0 0 0 0 0 0 0 0 0 0 0 0 0 0 0 0 0 0 0 0 0 0 0 0 0 0 0 0 0 0 0 0
0.303095 3.76978e-09 7.87555e-10 2.98222e-09 0.791087 0.614405 0 0 0 0 0 0 0 0 0 0 0 0 0 0 0 0 0 0 0 0 0 0 0 0 0 0 0 0 0 0 0 0 0 0 0 0 0 0 0 0 0 0
0.318653 3.81667e-09 7.66336e-10 3.05034e-09 0.799213 0.637843 0 0 0 0 0 0 0 0 0 0 0 0 0 0 0 0 0 0 0 0 0 0 0 0 0 0 0 0 0 0 0 0 0 0 0 0 0 0 0 0 0 0
0.335009 3.82679e-09 7.56676e-10 3.07011e-09 0.802269 0.66175 0 0 0 0 0 0 0 0 0 0 0 0 0 0 0 0 0 0 0 0 0 0 0 0 0 0 0 0 0 0 0 0 0 0 0 0 0 0 0 0 0 0
0.352205 3.75382e-09 7.28608e-10 3.02521e-09 0.805902 0.665591 0 0 0 0 0 0 0 0 0 0 0 0 0 0 0 0 0 0 0 0 0 0 0 0 0 0 0 0 0 0 0 0 0 0 0 0 0 0 0 0 0 0
0.370284 3.62283e-09 6.80776e-10 2.94205e-09 0.812087 0.661381 0 0 0 0 0 0 0 0 0 0 0 0 0 0 0 0 0 0 0 0 0 0 0 0 0 0 0 0 0 0 0 0 0 0 0 0 0 0 0 0 0 0
0.389291 3.50153e-09 6.39522e-10 2.862e-09 0.817359 0.660964 0 0 0 0 0 0 0 0 0 0 0 0 0 0 0 0 0 0 0 0 0 0 0 0 0 0 0 0 0 0 0 0 0 0 0 0 0 0 0 0 0 0
0.409273 3.40038e-09 6.19271e-10 2.78111e-09 0.817882 0.66848 0 0 0 0 0 0 0 0 0 0 0 0 0 0 0 0 0 0 0 0 0 0 0 0 0 0 0 0 0 0 0 0 0 0 0 0 0 0 0 0 0 0
0.430281 3.26741e-09 6.08502e-10 2.65891e-09 0.813766 0.680445 0 0 0 0 0 0 0 0 0 0 0 0 0 0 0 0 0 0 0 0 0 0 0 0 0 0 0 0 0 0 0 0 0 0 0 0 0 0 0 0 0 0
0.452368 3.06672e-09 5.8717e-10 2.47955e-09 0.808535 0.680385 0 0 0 0 0 0 0 0 0 0 0 0 0 0 0 0 0 0 0 0 0 0 0 0 0 0 0 0 0 0 0 0 0 0 0 0 0 0 0 0 0 0
0.475588 2.82701e-09 5.49607e-10 2.2774e-09 0.805587 0.663148 0 0 0 0 0 0 0 0 0 0 0 0 0 0 0 0 0 0 0 0 0 0 0 0 0 0 0 0 0 0 0 0 0 0 0 0 0 0 0 0 0 0
0.5 2.605e-09 5.07689e-10 2.09731e-09 0.80511 0.635229 0 0 0 0 0 0 0 0 0 0 0 0 0 0 0 0 0 0 0 0 0 0 0 0 0 0 0 0 0 0 0 0 0 0 0 0 0 0 0 0 0 0
0.525665 2.42545e-09 4.74115e-10 1.95134e-09 0.804525 0.605349 0 0 0 0 0 0 0 0 0 0 0 0 0 0 0 0 0 0 0 0 0 0 0 0 0 0 0 0 0 0 0 0 0 0 0 0 0 0 0 0 0 0
0.552648 2.27406e-09 4.51602e-10 1.82246e-09 0.801412 0.583585 0 0 0 0 0 0 0 0 0 0 0 0 0 0 0 0 0 0 0 0 0 0 0 0 0 0 0 0 0 0 0 0 0 0 0 0 0 0 0 0 0 0
0.581015 2.12248e-09 4.35588e-10 1.68689e-09 0.794774 0.574925 0 0 0 0 0 0 0 0 0 0 0 0 0 0 0 0 0 0 0 0 0 0 0 0 0 0 0 0 0 0 0 0 0 0 0 0 0 0 0 0 0 0
0.610839 1.95358e-09 4.19403e-10 1.53418e-09 0.785316 0.577712 0 0 0 0 0 0 0 0 0 0 0 0 0 0 0 0 0 0 0 0 0 0 0 0 0 0 0 0 0 0 0 0 0 0 0 0 0 0 0 0 0 0
0.642193 1.7663e-09 3.98326e-10 1.36797e-09 0.774485 0.585237 0 0 0 0 0 0 0 0 0 0 0 0 0 0 0 0 0 0 0 0 0 0 0 0 0 0 0 0 0 0 0 0 0 0 0 0 0 0 0 0 0 0
0.675157 1.57209e-09 3.7174e-10 1.20035e-09 0.763537 0.587971 0 0 0 0 0 0 0 0 0 0 0 0 0 0 0 0 0 0 0 0 0 0 0 0 0 0 0 0 0 0 0 0 0 0 0 0 0 0 0 0 0 0
0.709813 1.38648e-09 3.41968e-10 1.04451e-09 0.753355 0.578052 0 0 0 0 0 0 0 0 0 0 0 0 0 0 0 0 0 0 0 0 0 0 0 0 0 0 0 0 0 0 0 0 0 0 0 0 0 0 0 0 0 0
0.746248 1.22035e-09 3.12188e-10 9.08159e-10 0.744181 0.55227 0 0 0 0 0 0 0 0 0 0 0 0 0 0 0 0 0 0 0 0 0 0 0 0 0 0 0 0 0 0 0 0 0 0 0 0 0 0 0 0 0 0
0.784553 1.07563e-09 2.8464e-10 7.90993e-10 0.735375 0.51252 0 0 0 0 0 0 0 0 0 0 0 0 0 0 0 0 0 0 0 0 0 0 0 0 0 0 0 0 0 0 0 0 0 0 0 0 0 0 0 0 0 0
0.824824 9.50348e-10 2.60346e-10 6.90002e-10 0.726052 0.464414 0 0 0 0 0 0 0 0 0 0 0 0 0 0 0 0 0 0 0 0 0 0 0 0 0 0 0 0 0 0 0 0 0 0 0 0 0 0 0 0 0 0
0.867162 8.4037e-10 2.3919e-10 6.01181e-10 0.715376 0.414346 0 0 0 0 0 0 0 0 0 0 0 0 0 0 0 0 0 0 0 0 0 0 0 0 0 0 0 0 0 0 0 0 0 0 0 0 0 0 0 0 0 0
0.911674 7.42262e-10 2.20843e-10 5.21419e-10 0.702473 0.366775 0 0 0 0 0 0 0 0 0 0 0 0 0 0 0 0 0 0 0 0 0 0 0 0 0 0 0 0 0 0 0 0 0 0 0 0 0 0 0 0 0 0
0.95847 6.53795e-10 2.04657e-10 4.49138e-10 0.686971 0.323947 0 0 0 0 0 0 0 0 0 0 0 0 0 0 0 0 0 0 0 0 0 0 0 0 0 0 0 0 0 0 0 0 0 0 0 0 0 0 0 0 0 0
1.00767 5.73037e-10 1.89957e-10 3.8308e-10 0.668508 0.2865 0 0 0 0 0 0 0 0 0 0 0 0 0 0 0 0 0 0 0 0 0 0 0 0 0 0 0 0 0 0 0 0 0 0 0 0 0 0 0 0 0 0
1.05939 5.04498e-10 1.80367e-10 3.24131e-10 0.642482 0.254112 0 0 0 0 0 0 0 0 0 0 0 0 0 0 0 0 0 0 0 0 0 0 0 0 0 0 0 0 0 0 0 0 0 0 0 0 0 0 0 0 0 0
1.11377 4.45073e-10 1.72141e-10 2.72932e-10 0.61323 0.226101 0 0 0 0 0 0 0 0 0 0 0 0 0 0 0 0 0 0 0 0 0 0 0 0 0 0 0 0 0 0 0 0 0 0 0 0 0 0 0 0 0 0
1.17094 3.94045e-10 1.65051e-10 2.28995e-10 0.581138 0.201803 0 0 0 0 0 0 0 0 0 0 0 0 0 0 0 0 0 0 0 0 0 0 0 0 0 0 0 0 0 0 0 0 0 0 0 0 0 0 0 0 0 0
1.23105 3.49719e-10 1.58611e-10 1.91108e-10 0.546462 0.180644 0 0 0 0 0 0 0 0 0 0 0 0 0 0 0 0 0 0 0 0 0 0 0 0 0 0 0 0 0 0 0 0 0 0 0 0 0 0 0 0 0 0
1.29424 3.11147e-10 1.52223e-10 1.58924e-10 0.510769 0.162115 0 0 0 0 0 0 0 0 0 0 0 0 0 0 0 0 0 0 0 0 0 0 0 0 0 0 0 0 0 0 0 0 0 0 0 0 0 0 0 0 0 0
1.36067 2.7828e-10 1.45906e-10 1.32373e-10 0.475685 0.145794 0 0 0 0 0 0 0 0 0 0 0 0 0 0 0 0 0 0 0 0 0 0 0 0 0 0 0 0 0 0 0 0 0 0 0 0 0 0 0 0 0 0
1.43051 2.47949e-10 1.39363e-10 1.08586e-10 0.437938 0.131304 0 0 0 0 0 0 0 0 0 0 0 0 0 0 0 0 0 0 0 0 0 0 0 0 0 0 0 0 0 0 0 0 0 0 0 0 0 0 0 0 0 0
1.50394 2.22503e-10 1.33163e-10 8.93396e-11 0.401522 0.118415 0 0 0 0 0 0 0 0 0 0 0 0 0 0 0 0 0 0 0 0 0 0 0 0 0 0 0 0 0 0 0 0 0 0 0 0 0 0 0 0 0 0
1.58114 2.00867e-10 1.274e-10 7.34663e-11 0.365746 0.106919 0 0 0 0 0 0 0 0 0 0 0 0 0 0 0 0 0 0 0 0 0 0 0 0 0 0 0 0 0 0 0 0 0 0 0 0 0 0 0 0 0 0
1.6623 1.82515e-10 1.22193e-10 6.03213e-11 0.330501 0.0965985 0 0 0 0 0 0 0 0 0 0 0 0 0 0 0 0 0 0 0 0 0 0 0 0 0 0 0 0 0 0 0 0 0 0 0 0 0 0 0 0 0 0
1.74763 1.67133e-10 1.17668e-10 4.94646e-11 0.29596 0.0873224 0 0 0 0 0 0 0 0 0 0 0 0 0 0 0 0 0 0 0 0 0 0 0 0 0 0 0 0 0 0 0 0 0 0 0 0 0 0 0 0 0 0
1.83733 1.54477e-10 1.13969e-10 4.05081e-11 0.262227 0.078965 0 0 0 0 0 0 0 0 0 0 0 0 0 0 0 0 0 0 0 0 0 0 0 0 0 0 0 0 0 0 0 0 0 0 0 0 0 0 0 0 0 0
1.93164 1.44249e-10 1.11113e-10 3.31365e-11 0.229717 0.071442 0 0 0 0 0 0 0 0 0 0 0 0 0 0 0 0 0 0 0 0 0 0 0 0 0 0 0 0 0 0 0 0 0 0 0 0 0 0 0 0 0 0
2.03079 1.3619e-10 1.0908e-10 2.71099e-11 0.199059 0.0646507 0 0 0 0 0 0 0 0 0 0 0 0 0 0 0 0 0 0 0 0 0 0 0 0 0 0 0 0 0 0 0 0 0 0 0 0 0 0 0 0 0 0
2.13503 1.29886e-10 1.07693e-10 2.21931e-11 0.170866 0.0585045 0 0 0 0 0 0 0 0 0 0 0 0 0 0 0 0 0 0 0 0 0 0 0 0 0 0 0 0 0 0 0 0 0 0 0 0 0 0 0 0 0 0
2.24463 1.24733e-10 1.06551e-10 1.81815e-11 0.145764 0.0529406 0 0 0 0 0 0 0 0 0 0 0 0 0 0 0 0 0 0 0 0 0 0 0 0 0 0 0 0 0 0 0 0 0 0 0 0 0 0 0 0 0 0
2.35984 1.20462e-10 1.05561e-10 1.49015e-11 0.123702 0.0479143 0 0 0 0 0 0 0 0 0 0 0 0 0 0 0 0 0 0 0 0 0 0 0 0 0 0 0 0 0 0 0 0 0 0 0 0 0 0 0 0 0 0
2.48097 1.1705e-10 1.04834e-10 1.22159e-11 0.104365 0.0433578 0 0 0 0 0 0 0 0 0 0 0 0 0 0 0 0 0 0 0 0 0 0 0 0 0 0 0 0 0 0 0 0 0 0 0 0 0 0 0 0 0 0
2.60832 1.14397e-10 1.04377e-10 1.00201e-11 0.0875911 0.0392305 0 0 0 0 0 0 0 0 0 0 0 0 0 0 0 0 0 0 0 0 0 0 0 0 0 0 0 0 0 0 0 0 0 0 0 0 0 0 0 0 0 0
2.74221 1.12542e-10 1.04317e-10 8.22494e-12 0.0730836 0.0354925 0 0 0 0 0 0 0 0 0 0 0 0 0 0 0 0 0 0 0 0 0 0 0 0 0 0 0 0 0 0 0 0 0 0 0 0 0 0 0 0 0 0
2.88297 1.11423e-10 1.0466e-10 6.76279e-12 0.060695 0.0321036 0 0 0 0 0 0 0 0 0 0 0 0 0 0 0 0 0 0 0 0 0 0 0 0 0 0 0 0 0 0 0 0 0 0 0 0 0 0 0 0 0 0
3.03095 1.10955e-10 1.05373e-10 5.58255e-12 0.0503134 0.0290352 0 0 0 0 0 0 0 0 0 0 0 0 0 0 0 0 0 0 0 0 0 0 0 0 0 0 0 0 0 0 0 0 0 0 0 0 0 0 0 0 0 0
3.18653 1.09796e-10 1.05177e-10 4.61978e-12 0.0420759 0.026254 0 0 0 0 0 0 0 0 0 0 0 0 0 0 0 0 0 0 0 0 0 0 0 0 0 0 0 0 0 0 0 0 0 0 0 0 0 0 0 0 0 0
3.35009 1.10877e-10 1.07104e-10 3.77363e-12 0.0340343 0.0237317 0 0 0 0 0 0 0 0 0 0 0 0 0 0 0 0 0 0 0 0 0 0 0 0 0 0 0 0 0 0 0 0 0 0 0 0 0 0 0 0 0 0
3.52205 1.09614e-10 1.06327e-10 3.28697e-12 0.0299867 0.0214456 0 0 0 0 0 0 0 0 0 0 0 0 0 0 0 0 0 0 0 0 0 0 0 0 0 0 0 0 0 0 0 0 0 0 0 0 0 0 0 0 0 0
3.70284 1.01396e-10 9.87237e-11 2.67262e-12 0.0263581 0.0193755 0 0 0 0 0 0 0 0 0 0 0 0 0 0 0 0 0 0 0 0 0 0 0 0 0 0 0 0 0 0 0 0 0 0 0 0 0 0 0 0 0 0
3.89291 9.84228e-11 9.62343e-11 2.18858e-12 0.0222365 0.0174973 0 0 0 0 0 0 0 0 0 0 0 0 0 0 0 0 0 0 0 0 0 0 0 0 0 0 0 0 0 0 0 0 0 0 0 0 0 0 0 0 0 0
4.09273 9.60242e-11 9.42307e-11 1.79351e-12 0.0186777 0.0157921 0 0 0 0 0 0 0 0 0 0 0 0 0 0 0 0 0 0 0 0 0 0 0 0 0 0 0 0 0 0 0 0 0 0 0 0 0 0 0 0 0 0
4.30281 9.41822e-11 9.27117e-11 1.47052e-12 0.0156135 0.0142455 0 0 0 0 0 0 0 0 0 0 0 0 0 0 0 0 0 0 0 0 0 0 0 0 0 0 0 0 0 0 0 0 0 0 0 0 0 0 0 0 0 0
4.52368 9.29111e-11 9.17041e-11 1.20692e-12 0.0129901 0.0128443 0 0 0 0 0 0 0 0 0 0 0 0 0 0 0 0 0 0 0 0 0 0 0 0 0 0 0 0 0 0 0 0 0 0 0 0 0 0 0 0 0 0
4.75588 9.20662e-11 9.10739e-11 9.92298e-13 0.0107781 0.011572 0 0 0 0 0 0 0 0 0 0 0 0 0 0 0 0 0 0 0 0 0 0 0 0 0 0 0 0 0 0 0 0 0 0 0 0 0 0 0 0 0 0
5 9.13838e-11 9.05662e-11 8.17544e-13 0.00894627 0.0104143 0 0 0 0 0 0 0 0 0 0 0 0 0 0 0 0 0 0 0 0 0 0 0 0 0 0 0 0 0 0 0 0 0 0 0 0 0 0 0 0 0 0
5.25665 9.06292e-11 8.99548e-11 6.74339e-13 0.00744064 0.00936131 0 0 0 0 0 0 0 0 0 0 0 0 0 0 0 0 0 0 0 0 0 0 0 0 0 0 0 0 0 0 0 0 0 0 0 0 0 0 0 0 0 0
5.52648 8.98051e-11 8.92489e-11 5.56205e-13 0.00619347 0.00840757 0 0 0 0 0 0 0 0 0 0 0 0 0 0 0 0 0 0 0 0 0 0 0 0 0 0 0 0 0 0 0 0 0 0 0 0 0 0 0 0 0 0
5.81015 8.88422e-11 8.83839e-11 4.58265e-13 0.00515819 0.00753766 0 0 0 0 0 0 0 0 0 0 0 0 0 0 0 0 0 0 0 0 0 0 0 0 0 0 0 0 0 0 0 0 0 0 0 0 0 0 0 0 0 0
6.10839 8.78312e-11 8.74545e-11 3.76784e-13 0.00428987 0.00674648 0 0 0 0 0 0 0 0 0 0 0 0 0 0 0 0 0 0 0 0 0 0 0 0 0 0 0 0 0 0 0 0 1.4013e-45 0 4.2039e-45 0 1.12104e-44 0 2.66247e-44 0 6.44597e-44 0
6.42193 8.67453e-11 8.64367e-11 3.08669e-13 0.00355834 0.00602427 0 0 0 0 0 0 0 0 0 0 0 0 0 0 0 0 0 0 0 0 0 0 0 0 1.4013e-45 0 5.60519e-45 0 1.96182e-44 0 6.30584e-44 0 1.84971e-43 0 5.15678e-43 0 1.30321e-42 0 3.16553e-42 0 7.21108e-42 0
6.75157 8.59145e-11 8.56637e-11 2.50868e-13 0.00291997 0.0053584 0 0 0 0 0 0 0 0 0 0 0 0 0 0 0 0 0 0 1.4013e-45 0 8.40779e-45 0 4.06377e-44 0 1.77965e-43 0 6.74025e-43 0 2.29252e-42 0 7.0121e-42 0 1.94318e-41 0 5.14599e-41 0 1.24479e-40 0 2.89435e-40 0 6.33362e-40 0
7.09813 8.4344e-11 8.41402e-11 2.03787e-13 0.00241614 0.00473125 0 0 0 0 0 0 0 0 0 0 0 0 0 0 2.8026e-45 0 2.24208e-44 0 1.66755e-43 0 9.59889e-43 0 4.45753e-42 0 1.82743e-41 0 6.50889e-41 0 2.08384e-40 0 6.03646e-40 0 1.59149e-39 0 4.01878e-39 0 9.31096e-39 0 2.07759e-38 0 4.37578e-38 0
7.46248 8.30388e-11 8.28774e-11 1.61428e-13 0.00194401 0.00412091 0 0 0 0 0 0 0 0 0 0 1.4013e-45 0 2.10195e-44 0 2.8026e-43 0 2.54756e-42 0 1.69907e-41 0 9.01455e-41 0 3.88269e-40 0 1.48582e-39 0 4.9739e-39 0 1.50445e-38 0 4.13754e-38 0 1.04042e-37 0 2.51106e-37 0 5.58394e-37 0 1.19809e-36 0 2.43327e-36 0
7.84553 8.16836e-11 8.15615e-11 1.22108e-13 0.00149489 0.00353885 0 0 0 0 0 0 0 0 2.8026e-45 0 1.13505e-43 0 2.34717e-42 0 2.75313e-41 0 2.24969e-40 0 1.36732e-39 0 6.6868e-39 0 2.68189e-38 0 9.61209e-38 0 3.03341e-37 0 8.69244e-37 0 2.27538e-36 0 5.46976e-36 0 1.26455e-35 0 2.70441e-35 0 5.59027e-35 0 1.09676e-34 0
8.24824 9.07879e-11 9.06982e-11 8.97379e-14 0.000988435 0.00304369 0 0 0 0 0 0 2.8026e-45 0 3.41917e-43 0 1.30167e-41 0 2.32108e-40 0 2.41366e-39 0 1.78e-38 0 9.9061e-38 0 4.48326e-37 0 1.68022e-36 0 5.65816e-36 0 1.68818e-35 0 4.59523e-35 0 1.14767e-34 0 2.64321e-34 0 5.86582e-34 0 1.20878e-33 0 2.41163e-33 0 4.57824e-33 0
8.67162 1.10043e-10 1.09965e-10 7.77569e-14 0.000706606 0.00264946 0 0 0 0 0 0 3.76949e-43 0 4.01948e-41 0 1.28147e-39 0 1.98524e-38 0 1.84139e-37 0 1.23175e-36 0 6.30388e-36 0 2.65025e-35 0 9.31202e-35 0 2.95534e-34 0 8.35936e-34 0 2.16685e-33 0 5.17522e-33 0 1.14434e-32 0 2.44258e-32 0 4.85888e-32 0 9.37246e-32 0 1.72445e-31 0
9.11674 1.50871e-10 1.50779e-10 9.24735e-14 0.00061293 0.00226037 0 0 0 0 6.5861e-44 0 4.98078e-41 0 4.22359e-39 0 1.13712e-37 0 1.54102e-36 0 1.28207e-35 0 7.81611e-35 0 3.69364e-34 0 1.44771e-33 0 4.78403e-33 0 1.43506e-32 0 3.85822e-32 0 9.54655e-32 0 2.18518e-31 0 4.64822e-31 0 9.561e-31 0 1.83911e-30 0 3.43554e-30 0 6.13567e-30 0
9.5847 1.84133e-10 1.84005e-10 1.28479e-13 0.00069775 0.00202037 0 0 0 0 8.43301e-42 0 4.6244e-39 0 3.15707e-37 0 7.23744e-36 0 8.63608e-35 0 6.47883e-34 0 3.61614e-33 0 1.58409e-32 0 5.80822e-32 0 1.81055e-31 0 5.14745e-31 0 1.31868e-30 0 3.12168e-30 0 6.86229e-30 0 1.4069e-29 0 2.79376e-29 0 5.20501e-29 0 9.43102e-29 0 1.6373e-28 0
10.0767 1.7862e-10 1.78478e-10 1.41659e-13 0.000793077 0.00191621 0 0 8.40779e-45 0 6.77008e-40 0 2.72846e-37 0 1.51562e-35 0 2.98179e-34 0 3.15238e-33 0 2.14332e-32 0 1.09996e-31 0 4.48321e-31 0 1.54278e-30 0 4.54949e-30 0 1.22911e-29 0 3.00739e-29 0 6.826e-29 0 1.44393e-28 0 2.85837e-28 0 5.48904e-28 0 9.92054e-28 0 1.7461e-27 0 2.95082e-27 0
10.5939 1.52245e-10 1.52119e-10 1.25881e-13 0.000826835 0.00188256 0 0 8.1976e-43 0 3.80262e-38 0 1.14342e-35 0 5.22031e-34 0 8.87993e-33 0 8.36694e-32 0 5.18052e-31 0 2.45462e-30 0 9.34119e-30 0 3.0263e-29 0 8.46526e-29 0 2.17868e-28 0 5.10295e-28 0 1.1128e-27 0 2.2694e-27 0 4.34513e-27 0 8.08249e-27 0 1.41917e-26 0 2.42986e-26 0 4.00247e-26 0
11.1377 1.27229e-10 1.27123e-10 1.05836e-13 0.000831857 0.00192766 0 0 6.14007e-41 0 1.68617e-36 0 3.83735e-34 0 1.45379e-32 0 2.1534e-31 0 1.81853e-30 0 1.03007e-29 0 4.52369e-29 0 1.61277e-28 0 4.93353e-28 0 1.31243e-27 0 3.2254e-27 0 7.24709e-27 0 1.52135e-26 0 2.99648e-26 0 5.55815e-26 0 1.00303e-25 0 1.71343e-25 0 2.85765e-25 0 4.59382e-25 0
11.7094 1.02138e-10 1.02055e-10 8.27476e-14 0.000810156 0.00193981 5.88545e-44 0 3.50562e-39 0 5.84489e-35 0 1.02052e-32 0 3.2376e-31 0 4.2043e-30 0 3.19925e-29 0 1.66504e-28 0 6.80257e-28 0 2.27928e-27 0 6.60199e-27 0 1.67435e-26 0 3.93812e-26 0 8.50557e-26 0 1.72204e-25 0 3.28135e-25 0 5.90571e-25 0 1.03547e-24 0 1.7232e-24 0 2.80306e-24 0 4.40283e-24 0
12.3105 8.19664e-11 8.19048e-11 6.16306e-14 0.000751901 0.00193055 4.58645e-42 0 1.60506e-37 0 1.66482e-33 0 2.25915e-31 0 6.05401e-30 0 6.93664e-29 0 4.7805e-28 0 2.29547e-27 0 8.75544e-27 0 2.76544e-26 0 7.60484e-26 0 1.84301e-25 0 4.15753e-25 0 8.64814e-25 0 1.69163e-24 0 3.12352e-24 0 5.46264e-24 0 9.31882e-24 0 1.51272e-23 0 2.40293e-23 0 3.69203e-23 0
12.9424 7.44127e-11 7.43679e-11 4.47874e-14 0.000601878 0.00184766 3.21078e-40 0 6.74166e-36 0 4.45216e-32 0 4.75367e-30 0 1.08493e-28 0 1.10356e-27 0 6.92134e-27 0 3.07837e-26 0 1.09987e-25 0 3.28427e-25 0 8.59638e-25 0 1.99519e-24 0 4.32554e-24 0 8.68156e-24 0 1.64344e-23 0 2.94503e-23 0 5.01181e-23 0 8.32968e-23 0 1.32055e-22 0 2.0508e-22 0 3.08561e-22 0
