# 8.414e-07 1 55 : grain size, compostion index, size index
# Heating and cooling timescale: 385.457 2170.14
# Ratio of heating to cooling to determine stochastic cutoff: 100
# Equilibrium emission is recorded even for those grains in the stochastic regime.
# Emission spectrum was computed for: 
# Type: IRSF
# Scales: 0.25 0.5 1 1.5 2 2.5 3 3.5 4 4.5 5 5.5 6 6.5 7 7.5 8 8.5 9 9.5 10
# StochasticallyHeated: 1 1 1 1 1 1 1 1 1 1 1 1 1 1 1 1 1 1 1 1 1
# Temperature: -1
# Wavelength  CExt  CAbs  CSca  Albedo G EqEm1 StEm1 EqEm2 StEm2 EqEm3 StEm3 EqEm4 StEm4 EqEm5 StEm5 EqEm6 StEm6 EqEm7 StEm7 EqEm8 StEm8 EqEm9 StEm9 EqEm10 StEm10 EqEm11 StEm11 EqEm12 StEm12 EqEm13 StEm13 EqEm14 StEm14 EqEm15 StEm15 EqEm16 StEm16 EqEm17 StEm17 EqEm18 StEm18 EqEm19 StEm19 EqEm20 StEm20 EqEm21 StEm21
0.05 4.98285e-13 4.69625e-13 2.866e-14 0.0575173 0.0123351 0 0 0 0 0 0 0 0 0 0 0 0 0 0 0 0 0 0 0 0 0 0 0 0 0 0 0 0 0 0 0 0 0 0 0 0 0 0 0 0 0 0
0.0525665 5.50752e-13 5.19074e-13 3.16778e-14 0.0575173 0.013634 0 0 0 0 0 0 0 0 0 0 0 0 0 0 0 0 0 0 0 0 0 0 0 0 0 0 0 0 0 0 0 0 0 0 0 0 0 0 0 0 0 0
0.0552647 6.08743e-13 5.7373e-13 3.50133e-14 0.0575173 0.0150695 0 0 0 0 0 0 0 0 0 0 0 0 0 0 0 0 0 0 0 0 0 0 0 0 0 0 0 0 0 0 0 0 0 0 0 0 0 0 0 0 0 0
0.0581015 6.72841e-13 6.34141e-13 3.87e-14 0.0575173 0.0166563 0 0 0 0 0 0 0 0 0 0 0 0 0 0 0 0 0 0 0 0 0 0 0 0 0 0 0 0 0 0 0 0 0 0 0 0 0 0 0 0 0 0
0.0610839 7.43688e-13 7.00913e-13 4.27749e-14 0.0575173 0.0184101 0 0 0 0 0 0 0 0 0 0 0 0 0 0 0 0 0 0 0 0 0 0 0 0 0 0 0 0 0 0 0 0 0 0 0 0 0 0 0 0 0 0
0.0642193 8.21994e-13 7.74716e-13 4.72789e-14 0.0575173 0.0203486 0 0 0 0 0 0 0 0 0 0 0 0 0 0 0 0 0 0 0 0 0 0 0 0 0 0 0 0 0 0 0 0 0 0 0 0 0 0 0 0 0 0
0.0675157 9.08547e-13 8.56289e-13 5.22572e-14 0.0575173 0.0224912 0 0 0 0 0 0 0 0 0 0 0 0 0 0 0 0 0 0 0 0 0 0 0 0 0 0 0 0 0 0 0 0 0 0 0 0 0 0 0 0 0 0
0.0709813 1.00421e-12 9.46452e-13 5.77596e-14 0.0575173 0.0248594 0 0 0 0 0 0 0 0 0 0 0 0 0 0 0 0 0 0 0 0 0 0 0 0 0 0 0 0 0 0 0 0 0 0 0 0 0 0 0 0 0 0
0.0746248 1.10995e-12 1.04611e-12 6.38414e-14 0.0575173 0.027477 0 0 0 0 0 0 0 0 0 0 0 0 0 0 0 0 0 0 0 0 0 0 0 0 0 0 0 0 0 0 0 0 0 0 0 0 0 0 0 0 0 0
0.0784553 1.22682e-12 1.15626e-12 7.05636e-14 0.0575173 0.0303702 0 0 0 0 0 0 0 0 0 0 0 0 0 0 0 0 0 0 0 0 0 0 0 0 0 0 0 0 0 0 0 0 0 0 0 0 0 0 0 0 0 0
0.0824824 1.356e-12 1.27801e-12 7.79936e-14 0.0575173 0.033568 0 0 0 0 0 0 0 0 0 0 0 0 0 0 0 0 0 0 0 0 0 0 0 0 0 0 0 0 0 0 0 0 0 0 0 0 0 0 0 0 0 0
0.0867162 1.49878e-12 1.41258e-12 8.6206e-14 0.0575173 0.0371026 0 0 0 0 0 0 0 0 0 0 0 0 0 0 0 0 0 0 0 0 0 0 0 0 0 0 0 0 0 0 0 0 0 0 0 0 0 0 0 0 0 0
0.0911674 1.6566e-12 1.56131e-12 9.5283e-14 0.0575173 0.0410093 0 0 0 0 0 0 0 0 0 0 0 0 0 0 0 0 0 0 0 0 0 0 0 0 0 0 0 0 0 0 0 0 0 0 0 0 0 0 0 0 0 0
0.095847 1.83103e-12 1.72571e-12 1.05316e-13 0.0575173 0.0453274 0 0 0 0 0 0 0 0 0 0 0 0 0 0 0 0 0 0 0 0 0 0 0 0 0 0 0 0 0 0 0 0 0 0 0 0 0 0 0 0 0 0
0.100767 1.96714e-12 1.85501e-12 1.12134e-13 0.0570035 0.0491036 0 0 0 0 0 0 0 0 0 0 0 0 0 0 0 0 0 0 0 0 0 0 0 0 0 0 0 0 0 0 0 0 0 0 0 0 0 0 0 0 0 0
0.105939 1.79088e-12 1.69418e-12 9.67003e-14 0.0539961 0.0480128 0 0 0 0 0 0 0 0 0 0 0 0 0 0 0 0 0 0 0 0 0 0 0 0 0 0 0 0 0 0 0 0 0 0 0 0 0 0 0 0 0 0
0.111377 1.59926e-12 1.51704e-12 8.22164e-14 0.051409 0.0458451 0 0 0 0 0 0 0 0 0 0 0 0 0 0 0 0 0 0 0 0 0 0 0 0 0 0 0 0 0 0 0 0 0 0 0 0 0 0 0 0 0 0
0.117094 1.40471e-12 1.33528e-12 6.94303e-14 0.0494268 0.0432676 0 0 0 0 0 0 0 0 0 0 0 0 0 0 0 0 0 0 0 0 0 0 0 0 0 0 0 0 0 0 0 0 0 0 0 0 0 0 0 0 0 0
0.123105 1.19832e-12 1.14077e-12 5.7553e-14 0.0480279 0.0406111 0 0 0 0 0 0 0 0 0 0 0 0 0 0 0 0 0 0 0 0 0 0 0 0 0 0 0 0 0 0 0 0 0 0 0 0 0 0 0 0 0 0
0.129424 1.0029e-12 9.5608e-13 4.68243e-14 0.0466887 0.0380413 0 0 0 0 0 0 0 0 0 0 0 0 0 0 0 0 0 0 0 0 0 0 0 0 0 0 0 0 0 0 0 0 0 0 0 0 0 0 0 0 0 0
0.136067 8.22536e-13 7.83968e-13 3.85683e-14 0.0468895 0.0356908 0 0 0 0 0 0 0 0 0 0 0 0 0 0 0 0 0 0 0 0 0 0 0 0 0 0 0 0 0 0 0 0 0 0 0 0 0 0 0 0 0 0
0.143051 6.28685e-13 5.97763e-13 3.0922e-14 0.0491852 0.033893 0 0 0 0 0 0 0 0 0 0 0 0 0 0 0 0 0 0 0 0 0 0 0 0 0 0 0 0 0 0 0 0 0 0 0 0 0 0 0 0 0 0
0.150394 4.43795e-13 4.19954e-13 2.3841e-14 0.0537208 0.0323489 0 0 0 0 0 0 0 0 0 0 0 0 0 0 0 0 0 0 0 0 0 0 0 0 0 0 0 0 0 0 0 0 0 0 0 0 0 0 0 0 0 0
0.158114 2.94466e-13 2.76708e-13 1.77579e-14 0.0603056 0.0296267 0 0 0 0 0 0 0 0 0 0 0 0 0 0 0 0 0 0 0 0 0 0 0 0 0 0 0 0 0 0 0 0 0 0 0 0 0 0 0 0 0 0
0.16623 1.92244e-13 1.7926e-13 1.29835e-14 0.0675365 0.0263518 0 0 0 0 0 0 0 0 0 0 0 0 0 0 0 0 0 0 0 0 0 0 0 0 0 0 0 0 0 0 0 0 0 0 0 0 0 0 0 0 0 0
0.174762 1.36355e-13 1.26781e-13 9.57324e-15 0.0702084 0.0232512 0 0 0 0 0 0 0 0 0 0 0 0 0 0 0 0 0 0 0 0 0 0 0 0 0 0 0 0 0 0 0 0 0 0 0 0 0 0 0 0 0 0
0.183733 9.68141e-14 8.97233e-14 7.09072e-15 0.0732406 0.0205131 0 0 0 0 0 0 0 0 0 0 0 0 0 0 0 0 0 0 0 0 0 0 0 0 0 0 0 0 0 0 0 0 0 0 0 0 0 0 0 0 0 0
0.193164 7.27601e-14 6.74556e-14 5.30453e-15 0.0729043 0.0181505 0 0 0 0 0 0 0 0 0 0 0 0 0 0 0 0 0 0 0 0 0 0 0 0 0 0 0 0 0 0 0 0 0 0 0 0 0 0 0 0 0 0
0.203079 6.60473e-14 6.20231e-14 4.02422e-15 0.0609294 0.0161082 0 0 0 0 0 0 0 0 0 0 0 0 0 0 0 0 0 0 0 0 0 0 0 0 0 0 0 0 0 0 0 0 0 0 0 0 0 0 0 0 0 0
0.213503 6.22974e-14 5.91913e-14 3.10617e-15 0.0498603 0.0143269 0 0 0 0 0 0 0 0 0 0 0 0 0 0 0 0 0 0 0 0 0 0 0 0 0 0 0 0 0 0 0 0 0 0 0 0 0 0 0 0 0 0
0.224463 5.82086e-14 5.57684e-14 2.44014e-15 0.0419207 0.0127797 0 0 0 0 0 0 0 0 0 0 0 0 0 0 0 0 0 0 0 0 0 0 0 0 0 0 0 0 0 0 0 0 0 0 0 0 0 0 0 0 0 0
0.235984 5.50223e-14 5.3093e-14 1.92935e-15 0.0350649 0.0114391 0 0 0 0 0 0 0 0 0 0 0 0 0 0 0 0 0 0 0 0 0 0 0 0 0 0 0 0 0 0 0 0 0 0 0 0 0 0 0 0 0 0
0.248097 5.2248e-14 5.07145e-14 1.53351e-15 0.0293507 0.010267 0 0 0 0 0 0 0 0 0 0 0 0 0 0 0 0 0 0 0 0 0 0 0 0 0 0 0 0 0 0 0 0 0 0 0 0 0 0 0 0 0 0
0.260832 4.98761e-14 4.86495e-14 1.22665e-15 0.0245939 0.00923018 0 0 0 0 0 0 0 0 0 0 0 0 0 0 0 0 0 0 0 0 0 0 0 0 0 0 0 0 0 0 0 0 0 0 0 0 0 0 0 0 0 0
0.274221 4.7607e-14 4.66221e-14 9.84896e-16 0.0206881 0.00830666 0 0 0 0 0 0 0 0 0 0 0 0 0 0 0 0 0 0 0 0 0 0 0 0 0 0 0 0 0 0 0 0 0 0 0 0 0 0 0 0 0 0
0.288297 4.54052e-14 4.46117e-14 7.93551e-16 0.0174771 0.00748351 0 0 0 0 0 0 0 0 0 0 0 0 0 0 0 0 0 0 0 0 0 0 0 0 0 0 0 0 0 0 0 0 0 0 0 0 0 0 0 0 0 0
0.303095 4.32781e-14 4.26372e-14 6.409e-16 0.0148089 0.00674706 0 0 0 0 0 0 0 0 0 0 0 0 0 0 0 0 0 0 0 0 0 0 0 0 0 0 0 0 0 0 0 0 0 0 0 0 0 0 0 0 0 0
0.318653 4.12198e-14 4.07009e-14 5.18897e-16 0.0125885 0.00608579 0 0 0 0 0 0 0 0 0 0 0 0 0 0 0 0 0 0 0 0 0 0 0 0 0 0 0 0 0 0 0 0 0 0 0 0 0 0 0 0 0 0
0.335009 3.92387e-14 3.88177e-14 4.20938e-16 0.0107276 0.00549169 0 0 0 0 0 0 0 0 0 0 0 0 0 0 0 0 0 0 0 0 0 0 0 0 0 0 0 0 0 0 0 0 0 0 0 0 0 0 0 0 0 0
0.352205 3.73398e-14 3.69978e-14 3.42004e-16 0.00915923 0.00495763 0 0 0 0 0 0 0 0 0 0 0 0 0 0 0 0 0 0 0 0 0 0 0 0 0 0 0 0 0 0 0 0 0 0 0 0 0 0 0 0 0 0
0.370284 3.55182e-14 3.52398e-14 2.78393e-16 0.00783805 0.00447704 0 0 0 0 0 0 0 0 0 0 0 0 0 0 0 0 0 0 0 0 0 0 0 0 0 0 0 0 0 0 0 0 0 0 0 0 0 0 0 0 0 0
0.389291 3.37786e-14 3.35518e-14 2.26792e-16 0.00671408 0.00404424 0 0 0 0 0 0 0 0 0 0 0 0 0 0 0 0 0 0 0 0 0 0 0 0 0 0 0 0 0 0 0 0 0 0 0 0 0 0 0 0 0 0
0.409273 3.21149e-14 3.19299e-14 1.85003e-16 0.00576067 0.003654 0 0 0 0 0 0 0 0 0 0 0 0 0 0 0 0 0 0 0 0 0 0 0 0 0 0 0 0 0 0 0 0 0 0 0 0 0 0 0 0 0 0
0.430281 3.0532e-14 3.0381e-14 1.51021e-16 0.0049463 0.00330179 0 0 0 0 0 0 0 0 0 0 0 0 0 0 0 0 0 0 0 0 0 0 0 0 0 0 0 0 0 0 0 0 0 0 0 0 0 0 0 0 0 0
0.452368 2.90222e-14 2.88988e-14 1.23368e-16 0.00425082 0.0029848 0 0 0 0 0 0 0 0 0 0 0 0 0 0 0 0 0 0 0 0 0 0 0 0 0 0 0 0 0 0 0 0 0 0 0 0 0 0 0 0 0 0
0.475588 2.75825e-14 2.74817e-14 1.00833e-16 0.00365568 0.00269834 0 0 0 0 0 0 0 0 0 0 0 0 0 0 0 0 0 0 0 0 0 0 0 0 0 0 0 0 0 0 0 0 0 0 0 0 0 0 0 0 0 0
0.5 2.62131e-14 2.61306e-14 8.24672e-17 0.00314603 0.00243947 0 0 0 0 0 0 0 0 0 0 0 0 0 0 0 0 0 0 0 0 0 0 0 0 0 0 0 0 0 0 0 0 0 0 0 0 0 0 0 0 0 0
0.525665 2.49096e-14 2.48421e-14 6.7491e-17 0.00270944 0.00220559 0 0 0 0 0 0 0 0 0 0 0 0 0 0 0 0 0 0 0 0 0 0 0 0 0 0 0 0 0 0 0 0 0 0 0 0 0 0 0 0 0 0
0.552648 2.36678e-14 2.36125e-14 5.52643e-17 0.002335 0.00199444 0 0 0 0 0 0 0 0 0 0 0 0 0 0 0 0 0 0 0 0 0 0 0 0 0 0 0 0 0 0 0 0 0 0 0 0 0 0 0 0 0 0
0.581015 2.24919e-14 2.24467e-14 4.52402e-17 0.0020114 0.00180398 0 0 0 0 0 0 0 0 0 0 0 0 0 0 0 0 0 0 0 0 0 0 0 0 0 0 0 0 0 0 0 0 0 0 0 0 0 0 0 0 0 0
0.610839 2.13751e-14 2.1338e-14 3.70406e-17 0.00173289 0.0016316 0 0 0 0 0 0 0 0 0 0 0 0 0 0 0 0 0 0 0 0 0 0 0 0 0 0 0 0 0 0 0 0 0 0 0 0 0 0 0 0 0 0
0.642193 2.03031e-14 2.02727e-14 3.03443e-17 0.00149457 0.00147558 0 0 0 0 0 0 0 0 0 0 0 0 0 0 0 0 0 0 0 0 0 0 0 0 0 0 0 0 0 0 0 0 0 0 0 0 0 0 0 0 0 0
0.675157 1.92907e-14 1.92659e-14 2.48586e-17 0.00128863 0.00133482 0 0 0 0 0 0 0 0 0 0 0 0 0 0 0 0 0 0 0 0 0 0 0 0 0 0 0 0 0 0 0 0 0 0 0 0 0 0 0 0 0 0
0.709813 1.83358e-14 1.83154e-14 2.0361e-17 0.00111045 0.00120754 0 0 0 0 0 0 0 0 0 0 0 0 0 0 0 0 0 0 0 0 0 0 0 0 0 0 0 0 0 0 0 0 0 0 0 0 0 0 0 0 0 0
0.746248 1.74307e-14 1.7414e-14 1.66806e-17 0.000956968 0.00109232 0 0 0 0 0 0 0 0 0 0 0 0 0 0 0 0 0 0 0 0 0 0 0 0 0 0 0 0 0 0 0 0 0 0 0 0 0 0 0 0 0 0
0.784553 1.65713e-14 1.65576e-14 1.36609e-17 0.000824374 0.000988025 0 0 0 0 0 0 0 0 0 0 0 0 0 0 0 0 0 0 0 0 0 0 0 0 0 0 0 0 0 0 0 0 0 0 0 0 0 0 0 0 0 0
0.824824 1.57574e-14 1.57462e-14 1.11893e-17 0.000710096 0.000893904 0 0 0 0 0 0 0 0 0 0 0 0 0 0 0 0 0 0 0 0 0 0 0 0 0 0 0 0 0 0 0 0 0 0 0 0 0 0 0 0 0 0
0.867162 1.49795e-14 1.49703e-14 9.16414e-18 0.000611779 0.00080879 0 0 0 0 0 0 0 0 0 0 0 0 0 0 0 0 0 0 0 0 0 0 0 0 0 0 0 0 0 0 0 0 0 0 0 0 0 0 0 0 0 0
0.911674 1.42532e-14 1.42457e-14 7.50184e-18 0.000526327 0.000731739 0 0 0 0 0 0 0 0 0 0 0 0 0 0 0 0 0 0 0 0 0 0 0 0 0 0 0 0 0 0 0 0 0 0 0 0 0 0 0 0 0 0
0.95847 1.35703e-14 1.35642e-14 6.13619e-18 0.000452178 0.000662008 0 0 0 0 0 0 0 0 0 0 0 0 0 0 0 0 0 0 0 0 0 0 0 0 0 0 0 0 0 0 0 0 0 0 0 0 0 0 0 0 0 0
1.00767 1.29243e-14 1.29193e-14 5.00675e-18 0.000387391 0.000598976 0 0 0 0 0 0 0 0 0 0 0 0 0 0 0 0 0 0 0 0 0 0 0 0 0 0 0 0 0 0 0 0 0 0 0 0 0 0 0 0 0 0
1.05939 1.25851e-14 1.2581e-14 4.08608e-18 0.000324676 0.000541969 0 0 0 0 0 0 0 0 0 0 0 0 0 0 0 0 0 0 0 0 0 0 0 0 0 0 0 0 0 0 0 0 0 0 0 0 0 0 0 0 0 0
1.11377 1.23008e-14 1.22975e-14 3.33954e-18 0.000271489 0.000490352 0 0 0 0 0 0 0 0 0 0 0 0 0 0 0 0 0 0 0 0 0 0 0 0 0 0 0 0 0 0 0 0 0 0 0 0 0 0 0 0 0 0
1.17094 1.20705e-14 1.20677e-14 2.73497e-18 0.000226584 0.000443616 0 0 0 0 0 0 0 0 0 0 0 0 0 0 0 0 0 0 0 0 0 0 0 0 0 0 0 0 0 0 0 0 0 0 0 0 0 0 0 0 0 0
1.23105 1.18655e-14 1.18632e-14 2.23912e-18 0.000188709 0.000401339 0 0 0 0 0 0 0 0 0 0 0 0 0 0 0 0 0 0 0 0 0 0 0 0 0 0 0 0 0 0 0 0 0 0 0 0 0 0 0 0 0 0
1.29424 1.16422e-14 1.16404e-14 1.83414e-18 0.000157543 0.000363104 0 0 0 0 0 0 0 0 0 0 0 0 0 0 0 0 0 0 0 0 0 0 0 0 0 0 0 0 0 0 0 0 0 0 0 0 0 0 0 0 0 0
1.36067 1.13923e-14 1.13908e-14 1.50881e-18 0.000132441 0.000328537 0 0 0 0 0 0 0 0 0 0 0 0 0 0 0 0 0 0 0 0 0 0 0 0 0 0 0 0 0 0 0 0 0 0 0 0 0 0 0 0 0 0
1.43051 1.1124e-14 1.11228e-14 1.22765e-18 0.00011036 0.000297195 0 0 0 0 0 0 0 0 0 0 0 0 0 0 0 0 0 0 0 0 0 0 0 0 0 0 0 0 0 0 0 0 0 0 0 0 0 0 0 0 0 0
1.50394 1.08489e-14 1.08479e-14 1.00345e-18 9.24932e-05 0.000268854 0 0 0 0 0 0 0 0 0 0 0 0 0 0 0 0 0 0 0 0 0 0 0 0 0 0 0 0 0 0 0 0 0 0 0 0 0 0 0 0 0 0
1.58114 1.05823e-14 1.05815e-14 8.21119e-19 7.75939e-05 0.000243248 0 0 0 0 0 0 0 0 0 0 0 0 0 0 0 0 0 0 0 0 0 0 0 0 0 0 0 0 0 0 0 0 0 0 0 0 0 0 0 0 0 0
1.6623 1.03389e-14 1.03383e-14 6.71853e-19 6.49828e-05 0.00022004 0 0 0 0 0 0 0 0 0 0 0 0 0 0 0 0 0 0 0 0 0 0 0 0 0 0 0 0 0 0 0 0 0 0 0 0 0 0 0 0 0 0
1.74763 1.01333e-14 1.01327e-14 5.49653e-19 5.42424e-05 0.00019903 0 0 0 0 0 0 0 0 0 0 0 0 0 0 0 0 0 0 0 0 0 0 0 0 0 0 0 0 0 0 0 0 0 0 0 0 0 0 0 0 0 0
1.83733 9.97913e-15 9.97869e-15 4.49499e-19 4.50438e-05 0.000180003 0 0 0 0 0 0 0 0 0 0 0 0 0 0 0 0 0 0 0 0 0 0 0 0 0 0 0 0 0 0 0 0 0 0 0 0 0 0 0 0 0 0
1.93164 9.88411e-15 9.88374e-15 3.67445e-19 3.71753e-05 0.000162815 0 0 0 0 0 0 0 0 0 0 0 0 0 0 0 0 0 0 0 0 0 0 0 0 0 0 0 0 0 0 0 0 0 0 0 0 0 0 0 0 0 0
2.03079 9.84753e-15 9.84722e-15 3.00552e-19 3.05205e-05 0.000147265 0 0 0 0 0 0 0 0 0 0 0 0 0 0 0 0 0 0 0 0 0 0 0 0 0 0 0 0 0 0 0 0 0 0 0 0 0 0 0 0 0 0
2.13503 9.85542e-15 9.85518e-15 2.46066e-19 2.49675e-05 0.000133175 0 0 0 0 0 0 0 0 0 0 0 0 0 0 0 0 0 0 0 0 0 0 0 0 0 0 0 0 0 0 0 0 0 0 0 0 0 0 0 0 0 0
2.24463 9.87502e-15 9.87482e-15 2.01638e-19 2.04189e-05 0.000120412 0 0 0 0 0 0 0 0 0 0 0 0 0 0 0 0 0 0 0 0 0 0 0 0 0 0 0 0 0 0 0 0 0 0 0 0 0 0 0 0 0 0
2.35984 9.89742e-15 9.89726e-15 1.65324e-19 1.67037e-05 0.000108885 0 0 0 0 0 0 0 0 0 0 0 0 0 0 0 0 0 0 0 0 0 0 0 0 0 0 0 0 0 0 0 0 0 0 0 0 0 0 0 0 0 0
2.48097 9.93523e-15 9.93509e-15 1.35608e-19 1.36492e-05 9.84389e-05 0 0 0 0 0 0 0 0 0 0 0 0 0 0 0 0 0 0 0 0 0 0 0 0 0 0 0 0 0 0 0 0 0 0 0 0 0 0 0 0 0 0
2.60832 9.99051e-15 9.9904e-15 1.11293e-19 1.11399e-05 8.89846e-05 0 0 0 0 0 0 0 0 0 0 0 0 0 0 0 0 0 0 0 0 0 0 0 0 0 0 0 0 0 0 0 0 0 0 0 0 0 0 0 0 0 0
2.74221 1.00754e-14 1.00753e-14 9.14106e-20 9.07266e-06 8.04303e-05 0 0 0 0 0 0 0 0 0 0 0 0 0 0 0 0 0 0 0 0 0 0 0 0 0 0 0 0 0 0 0 0 0 0 0 0 0 0 0 0 0 0
2.88297 1.01924e-14 1.01924e-14 7.52056e-20 7.37856e-06 7.26837e-05 0 0 0 0 0 0 0 0 0 0 0 0 0 0 0 0 0 0 0 0 0 0 0 0 0 0 0 0 0 0 0 0 0 0 0 0 0 0 0 0 0 0
3.03095 1.03385e-14 1.03385e-14 6.21124e-20 6.00786e-06 6.56787e-05 0 0 0 0 0 0 0 0 0 0 0 0 0 0 0 0 0 0 0 0 0 0 0 0 0 0 0 0 0 0 0 0 0 0 0 0 0 0 0 0 0 0
3.18653 1.03881e-14 1.0388e-14 5.14201e-20 4.94991e-06 5.93369e-05 0 0 0 0 0 0 0 0 0 0 0 0 0 0 0 0 0 0 0 0 0 0 0 0 0 0 0 0 0 0 0 0 0 0 0 0 0 0 0 0 0 0
3.35009 1.0651e-14 1.0651e-14 4.20416e-20 3.94719e-06 5.35926e-05 0 0 0 0 0 0 0 0 0 0 0 0 0 0 0 0 0 0 0 0 0 0 0 0 0 0 0 0 0 0 0 0 0 0 0 0 0 0 0 0 0 0
3.52205 1.06133e-14 1.06133e-14 3.65807e-20 3.44669e-06 4.83929e-05 0 0 0 0 0 0 0 0 0 0 0 0 0 0 0 0 0 0 0 0 0 0 0 0 0 0 0 0 0 0 0 0 0 0 0 0 0 0 0 0 0 0
3.70284 9.90688e-15 9.90685e-15 2.97588e-20 3.00385e-06 4.36903e-05 0 0 0 0 0 0 0 0 0 0 0 0 0 0 0 0 0 0 0 0 0 0 0 0 0 0 0 0 0 0 0 0 0 0 0 0 0 0 0 0 0 0
3.89291 9.70531e-15 9.70528e-15 2.43847e-20 2.51251e-06 3.94286e-05 0 0 0 0 0 0 0 0 0 0 0 0 0 0 0 0 0 0 0 0 0 0 0 0 0 0 0 0 0 1.4013e-45 0 1.4013e-45 0 1.4013e-45 0 2.8026e-45 0 2.8026e-45 0 4.2039e-45 0 7.00649e-45
4.09273 9.54682e-15 9.5468e-15 1.99958e-20 2.0945e-06 3.55637e-05 0 0 0 0 0 0 0 0 0 0 0 0 0 0 0 1.4013e-45 0 1.4013e-45 0 2.8026e-45 0 4.2039e-45 0 8.40779e-45 0 1.4013e-44 0 2.10195e-44 0 3.22299e-44 0 4.76441e-44 0 7.00649e-44 0 9.94922e-44 0 1.38729e-43 0 1.91978e-43 0 2.5924e-43
4.30281 9.43228e-15 9.43226e-15 1.64031e-20 1.73904e-06 3.20616e-05 0 0 0 0 0 0 0 0 0 1.4013e-45 0 5.60519e-45 0 1.26117e-44 0 2.94273e-44 0 5.88545e-44 0 1.09301e-43 0 1.90577e-43 0 3.19496e-43 0 5.12875e-43 0 7.95938e-43 0 1.19951e-42 0 1.76423e-42 0 2.53775e-42 0 3.57892e-42 0 4.9606e-42 0 6.77948e-42 0 9.11685e-42
4.52368 9.36524e-15 9.36523e-15 1.34704e-20 1.43834e-06 2.88924e-05 0 0 0 0 0 2.8026e-45 0 1.82169e-44 0 6.86636e-44 0 1.97583e-43 0 4.80645e-43 0 1.03416e-42 0 2.03188e-42 0 3.71624e-42 0 6.42075e-42 0 1.05854e-41 0 1.67946e-41 0 2.57741e-41 0 3.84432e-41 0 5.59482e-41 0 7.96806e-41 0 1.11364e-40 0 1.5297e-40 0 2.07311e-40 0 2.76563e-40
4.75588 9.33317e-15 9.33316e-15 1.10806e-20 1.18723e-06 2.60173e-05 0 0 0 5.60519e-45 0 1.05097e-43 0 6.10966e-43 0 2.23787e-42 0 6.30584e-42 0 1.49953e-41 0 3.16245e-41 0 6.09873e-41 0 1.09782e-40 0 1.86904e-40 0 3.0408e-40 0 4.76513e-40 0 7.22954e-40 0 1.06685e-39 0 1.53711e-39 0 2.16846e-39 0 3.00356e-39 0 4.09063e-39 0 5.49829e-39 0 7.2783e-39
5 9.30998e-15 9.30997e-15 9.13294e-21 9.80983e-07 2.3403e-05 0 1.68156e-44 0 2.05991e-43 0 3.2412e-42 0 1.79703e-41 0 6.35797e-41 0 1.74294e-40 0 4.05031e-40 0 8.3737e-40 0 1.58693e-39 0 2.81216e-39 0 4.72034e-39 0 7.58074e-39 0 1.17378e-38 0 1.76112e-38 0 2.57196e-38 0 3.66961e-38 0 5.12936e-38 0 7.04284e-38 0 9.51261e-38 0 1.26841e-37 0 1.66641e-37
5.25665 9.27322e-15 9.27321e-15 7.53602e-21 8.12666e-07 2.10273e-05 0 4.9606e-43 0 5.92749e-42 0 8.64419e-41 0 4.57961e-40 0 1.56676e-39 0 4.18158e-39 0 9.50223e-39 0 1.92701e-38 0 3.59049e-38 0 6.26658e-38 0 1.03749e-37 0 1.6453e-37 0 2.51801e-37 0 3.7373e-37 0 5.40309e-37 0 7.6361e-37 0 1.05785e-36 0 1.44017e-36 0 1.92957e-36 0 2.55293e-36 0 3.32947e-36
5.52648 9.22413e-15 9.22413e-15 6.21812e-21 6.74114e-07 1.88771e-05 0 1.31974e-41 0 1.47705e-40 0 2.00603e-39 0 1.01681e-38 0 3.36719e-38 0 8.75639e-38 0 1.94702e-37 0 3.87525e-37 0 7.10248e-37 0 1.22143e-36 0 1.9953e-36 0 3.12572e-36 0 4.72979e-36 0 6.9466e-36 0 9.94462e-36 0 1.39253e-35 0 1.91236e-35 0 2.58208e-35 0 3.4325e-35 0 4.50714e-35 0 5.83629e-35
5.81015 9.15603e-15 9.15603e-15 5.12483e-21 5.59722e-07 1.69171e-05 0 3.0599e-40 0 3.20982e-39 0 4.06871e-38 0 1.97585e-37 0 6.33957e-37 0 1.60757e-36 0 3.49987e-36 0 6.84045e-36 0 1.23379e-35 0 2.09153e-35 0 3.37252e-35 0 5.22066e-35 0 7.81328e-35 0 1.13585e-34 0 1.6106e-34 0 2.23513e-34 0 3.0436e-34 0 4.07655e-34 1.4013e-45 5.378e-34 4.2039e-45 7.00995e-34 8.40779e-45 9.01433e-34
6.10839 9.07934e-15 9.07934e-15 4.21512e-21 4.64254e-07 1.51357e-05 0 6.22099e-39 0 6.12326e-38 0 7.25782e-37 0 3.38102e-36 0 1.05206e-35 0 2.60329e-35 0 5.55276e-35 0 1.06628e-34 0 1.89352e-34 0 3.16545e-34 0 5.04008e-34 0 7.71225e-34 0 1.14193e-33 1.4013e-45 1.64365e-33 2.8026e-45 2.30908e-33 8.40779e-45 3.17658e-33 2.24208e-44 4.29007e-33 5.60519e-44 5.70129e-33 1.33123e-43 7.46583e-33 2.99878e-43 9.66193e-33 6.55808e-43 1.23409e-32
6.42193 8.99159e-15 8.99158e-15 3.45422e-21 3.84161e-07 1.35104e-05 0 1.11463e-37 0 1.0305e-36 0 1.14402e-35 0 5.11837e-35 0 1.54596e-34 0 3.73558e-34 0 7.81094e-34 0 1.4744e-33 0 2.57898e-33 0 4.25329e-33 1.4013e-45 6.68948e-33 5.60519e-45 1.01216e-32 1.96182e-44 1.48316e-32 7.00649e-44 2.11425e-32 2.18603e-43 2.94348e-32 6.12367e-43 4.01507e-32 1.64512e-42 5.37918e-32 3.9923e-42 7.09448e-32 9.15468e-42 9.22337e-32 1.98956e-41 1.18537e-31 4.18498e-41 1.50412e-31
6.75157 8.92824e-15 8.92823e-15 2.80851e-21 3.14565e-07 1.20126e-05 0 1.77543e-36 0 1.54358e-35 0 1.60745e-34 0 6.91461e-34 0 2.02894e-33 0 4.79073e-33 0 9.8254e-33 0 1.82399e-32 2.8026e-45 3.14394e-32 1.96182e-44 5.11716e-32 9.94922e-44 7.9526e-32 4.13383e-43 1.19018e-31 1.5148e-42 1.72646e-31 4.91716e-42 2.43805e-31 1.45735e-41 3.36458e-31 3.88594e-41 4.5517e-31 9.94319e-41 6.05074e-31 2.3109e-40 7.92134e-31 5.0894e-40 1.02263e-30 1.06486e-39 1.30539e-30 2.1601e-39 1.64586e-30
7.09813 8.78435e-15 8.78435e-15 2.2821e-21 2.59791e-07 1.06023e-05 0 2.49523e-35 0 2.04318e-34 0 1.99891e-33 0 8.27564e-33 0 2.36092e-32 0 5.45086e-32 2.8026e-45 1.09712e-31 3.22299e-44 2.00396e-31 2.46629e-43 3.40514e-31 1.42232e-42 5.47175e-31 6.74305e-42 8.4055e-31 2.61819e-41 1.24465e-30 8.99409e-41 1.78779e-30 2.75733e-40 2.50167e-30 7.74924e-40 3.42299e-30 1.96972e-39 4.59364e-30 4.81402e-39 6.06034e-30 1.0737e-38 7.87698e-30 2.27524e-38 1.00997e-29 4.59194e-38 1.28078e-29 8.99874e-38 1.6048e-29
7.46248 8.66779e-15 8.66779e-15 1.80866e-21 2.08665e-07 9.22937e-06 0 3.14395e-34 0 2.42933e-33 0 2.23637e-32 0 8.92e-32 0 2.47602e-31 1.4013e-44 5.59315e-31 2.24208e-43 1.10537e-30 2.27991e-42 1.98747e-30 1.58585e-41 3.33055e-30 8.38929e-41 5.28563e-30 3.68532e-40 8.0284e-30 1.33929e-39 1.17658e-29 4.33179e-39 1.67391e-29 1.25732e-38 2.32157e-29 3.35974e-38 3.15024e-29 8.15965e-38 4.19468e-29 1.90909e-37 5.49328e-29 4.0944e-37 7.09009e-29 8.36395e-37 9.03054e-29 1.63114e-36 1.13788e-28 3.09322e-36 1.41714e-28
7.84553 8.54666e-15 8.54666e-15 1.36902e-21 1.60182e-07 7.9198e-06 0 3.55141e-33 0 2.59565e-32 0 2.25233e-31 0 8.66369e-31 3.36312e-44 2.34167e-30 1.01454e-42 5.17851e-30 1.42652e-41 1.0054e-29 1.29579e-40 1.78023e-29 8.20117e-40 2.94323e-29 3.99958e-39 4.61471e-29 1.63449e-38 6.93276e-29 5.57728e-38 1.00583e-28 1.70343e-37 1.41773e-28 4.69364e-37 1.94932e-28 1.19544e-36 2.6238e-28 2.78022e-36 3.46722e-28 6.24035e-36 4.50811e-28 1.28942e-35 5.77901e-28 2.54372e-35 7.31313e-28 4.80161e-35 9.15751e-28 8.82547e-35 1.13379e-27
