# 1e-07 1 18 : grain size, compostion index, size index
# Heating and cooling timescale: 237711 1.84484
# Ratio of heating to cooling to determine stochastic cutoff: 100
# Equilibrium emission is recorded even for those grains in the stochastic regime.
# Emission spectrum was computed for: 
# Type: IRSF
# Scales: 0.25 0.5 1 1.5 2 2.5 3 3.5 4 4.5 5 5.5 6 6.5 7 7.5 8 8.5 9 9.5 10
# StochasticallyHeated: 1 1 1 1 1 1 1 1 1 1 1 1 1 1 1 1 1 1 1 1 1
# Temperature: -1
# Wavelength  CExt  CAbs  CSca  Albedo G EqEm1 StEm1 EqEm2 StEm2 EqEm3 StEm3 EqEm4 StEm4 EqEm5 StEm5 EqEm6 StEm6 EqEm7 StEm7 EqEm8 StEm8 EqEm9 StEm9 EqEm10 StEm10 EqEm11 StEm11 EqEm12 StEm12 EqEm13 StEm13 EqEm14 StEm14 EqEm15 StEm15 EqEm16 StEm16 EqEm17 StEm17 EqEm18 StEm18 EqEm19 StEm19 EqEm20 StEm20 EqEm21 StEm21
0.05 7.36186e-16 7.361e-16 8.57576e-20 0.000116489 0.000174409 0 0 0 0 0 0 0 0 0 0 0 0 0 0 0 0 0 0 0 0 0 0 0 0 0 0 0 0 0 0 0 0 0 0 0 0 0 0 0 0 0 0
0.0525665 8.13703e-16 8.13608e-16 9.47875e-20 0.000116489 0.000192773 0 0 0 0 0 0 0 0 0 0 0 0 0 0 0 0 0 0 0 0 0 0 0 0 0 0 0 0 0 0 0 0 0 0 0 0 0 0 0 0 0 0
0.0552647 8.99382e-16 8.99277e-16 1.04768e-19 0.000116489 0.000213071 0 0 0 0 0 0 0 0 0 0 0 0 0 0 0 0 0 0 0 0 0 0 0 0 0 0 0 0 0 0 0 0 0 0 0 0 0 0 0 0 0 0
0.0581015 9.94082e-16 9.93966e-16 1.158e-19 0.000116489 0.000235507 0 0 0 0 0 0 0 0 0 0 0 0 0 0 0 0 0 0 0 0 0 0 0 0 0 0 0 0 0 0 0 0 0 0 0 0 0 0 0 0 0 0
0.0610839 1.09875e-15 1.09863e-15 1.27993e-19 0.000116489 0.000260304 0 0 0 0 0 0 0 0 0 0 0 0 0 0 0 0 0 0 0 0 0 0 0 0 0 0 0 0 0 0 0 0 0 0 0 0 0 0 0 0 0 0
0.0642193 1.21445e-15 1.21431e-15 1.4147e-19 0.000116489 0.000287713 0 0 0 0 0 0 0 0 0 0 0 0 0 0 0 0 0 0 0 0 0 0 0 0 0 0 0 0 0 0 0 0 0 0 0 0 0 0 0 0 0 0
0.0675157 1.34232e-15 1.34217e-15 1.56366e-19 0.000116489 0.000318008 0 0 0 0 0 0 0 0 0 0 0 0 0 0 0 0 0 0 0 0 0 0 0 0 0 0 0 0 0 0 0 0 0 0 0 0 0 0 0 0 0 0
0.0709813 1.48366e-15 1.48349e-15 1.72831e-19 0.000116489 0.000351492 0 0 0 0 0 0 0 0 0 0 0 0 0 0 0 0 0 0 0 0 0 0 0 0 0 0 0 0 0 0 0 0 0 0 0 0 0 0 0 0 0 0
0.0746248 1.63989e-15 1.63969e-15 1.91029e-19 0.000116489 0.000388503 0 0 0 0 0 0 0 0 0 0 0 0 0 0 0 0 0 0 0 0 0 0 0 0 0 0 0 0 0 0 0 0 0 0 0 0 0 0 0 0 0 0
0.0784553 1.81256e-15 1.81235e-15 2.11143e-19 0.000116489 0.00042941 0 0 0 0 0 0 0 0 0 0 0 0 0 0 0 0 0 0 0 0 0 0 0 0 0 0 0 0 0 0 0 0 0 0 0 0 0 0 0 0 0 0
0.0824824 2.00341e-15 2.00318e-15 2.33375e-19 0.000116489 0.000474625 0 0 0 0 0 0 0 0 0 0 0 0 0 0 0 0 0 0 0 0 0 0 0 0 0 0 0 0 0 0 0 0 0 0 0 0 0 0 0 0 0 0
0.0867162 2.21436e-15 2.2141e-15 2.57949e-19 0.000116489 0.000524601 0 0 0 0 0 0 0 0 0 0 0 0 0 0 0 0 0 0 0 0 0 0 0 0 0 0 0 0 0 0 0 0 0 0 0 0 0 0 0 0 0 0
0.0911674 2.44752e-15 2.44724e-15 2.8511e-19 0.000116489 0.000579839 0 0 0 0 0 0 0 0 0 0 0 0 0 0 0 0 0 0 0 0 0 0 0 0 0 0 0 0 0 0 0 0 0 0 0 0 0 0 0 0 0 0
0.095847 2.70524e-15 2.70492e-15 3.1513e-19 0.000116489 0.000640893 0 0 0 0 0 0 0 0 0 0 0 0 0 0 0 0 0 0 0 0 0 0 0 0 0 0 0 0 0 0 0 0 0 0 0 0 0 0 0 0 0 0
0.100767 2.90017e-15 2.89984e-15 3.34141e-19 0.000115214 0.000695684 0 0 0 0 0 0 0 0 0 0 0 0 0 0 0 0 0 0 0 0 0 0 0 0 0 0 0 0 0 0 0 0 0 0 0 0 0 0 0 0 0 0
0.105939 2.60531e-15 2.60503e-15 2.80914e-19 0.000107823 0.000685981 0 0 0 0 0 0 0 0 0 0 0 0 0 0 0 0 0 0 0 0 0 0 0 0 0 0 0 0 0 0 0 0 0 0 0 0 0 0 0 0 0 0
0.111377 2.30226e-15 2.30202e-15 2.33908e-19 0.0001016 0.000656048 0 0 0 0 0 0 0 0 0 0 0 0 0 0 0 0 0 0 0 0 0 0 0 0 0 0 0 0 0 0 0 0 0 0 0 0 0 0 0 0 0 0
0.117094 2.00639e-15 2.0062e-15 1.94285e-19 9.68334e-05 0.000619235 0 0 0 0 0 0 0 0 0 0 0 0 0 0 0 0 0 0 0 0 0 0 0 0 0 0 0 0 0 0 0 0 0 0 0 0 0 0 0 0 0 0
0.123105 1.70274e-15 1.70258e-15 1.59047e-19 9.34069e-05 0.000580904 0 0 0 0 0 0 0 0 0 0 0 0 0 0 0 0 0 0 0 0 0 0 0 0 0 0 0 0 0 0 0 0 0 0 0 0 0 0 0 0 0 0
0.129424 1.42457e-15 1.42444e-15 1.28408e-19 9.01382e-05 0.000543665 0 0 0 0 0 0 0 0 0 0 0 0 0 0 0 0 0 0 0 0 0 0 0 0 0 0 0 0 0 0 0 0 0 0 0 0 0 0 0 0 0 0
0.136067 1.16712e-15 1.16702e-15 1.05135e-19 9.00802e-05 0.000509505 0 0 0 0 0 0 0 0 0 0 0 0 0 0 0 0 0 0 0 0 0 0 0 0 0 0 0 0 0 0 0 0 0 0 0 0 0 0 0 0 0 0
0.143051 8.91656e-16 8.91572e-16 8.40181e-20 9.4227e-05 0.000483076 0 0 0 0 0 0 0 0 0 0 0 0 0 0 0 0 0 0 0 0 0 0 0 0 0 0 0 0 0 0 0 0 0 0 0 0 0 0 0 0 0 0
0.150394 6.3082e-16 6.30755e-16 6.48052e-20 0.000102732 0.000459788 0 0 0 0 0 0 0 0 0 0 0 0 0 0 0 0 0 0 0 0 0 0 0 0 0 0 0 0 0 0 0 0 0 0 0 0 0 0 0 0 0 0
0.158114 4.20419e-16 4.2037e-16 4.84404e-20 0.000115219 0.000420587 0 0 0 0 0 0 0 0 0 0 0 0 0 0 0 0 0 0 0 0 0 0 0 0 0 0 0 0 0 0 0 0 0 0 0 0 0 0 0 0 0 0
0.16623 2.75951e-16 2.75915e-16 3.55939e-20 0.000128986 0.000374164 0 0 0 0 0 0 0 0 0 0 0 0 0 0 0 0 0 0 0 0 0 0 0 0 0 0 0 0 0 0 0 0 0 0 0 0 0 0 0 0 0 0
0.174762 1.9753e-16 1.97503e-16 2.63746e-20 0.000133522 0.000330234 0 0 0 0 0 0 0 0 0 0 0 0 0 0 0 0 0 0 0 0 0 0 0 0 0 0 0 0 0 0 0 0 0 0 0 0 0 0 0 0 0 0
0.183733 1.41248e-16 1.41229e-16 1.96178e-20 0.000138889 0.00029136 0 0 0 0 0 0 0 0 0 0 0 0 0 0 0 0 0 0 0 0 0 0 0 0 0 0 0 0 0 0 0 0 0 0 0 0 0 0 0 0 0 0
0.193164 1.07126e-16 1.07111e-16 1.47278e-20 0.000137481 0.000257752 0 0 0 0 0 0 0 0 0 0 0 0 0 0 0 0 0 0 0 0 0 0 0 0 0 0 0 0 0 0 0 0 0 0 0 0 0 0 0 0 0 0
0.203079 9.92245e-17 9.92133e-17 1.12053e-20 0.000112929 0.000228668 0 0 0 0 0 0 0 0 0 0 0 0 0 0 0 0 0 0 0 0 0 0 0 0 0 0 0 0 0 0 0 0 0 0 0 0 0 0 0 0 0 0
0.213503 9.52596e-17 9.5251e-17 8.66779e-21 9.09912e-05 0.000203291 0 0 0 0 0 0 0 0 0 0 0 0 0 0 0 0 0 0 0 0 0 0 0 0 0 0 0 0 0 0 0 0 0 0 0 0 0 0 0 0 0 0
0.224463 9.01855e-17 9.01787e-17 6.8196e-21 7.56175e-05 0.00018125 0 0 0 0 0 0 0 0 0 0 0 0 0 0 0 0 0 0 0 0 0 0 0 0 0 0 0 0 0 0 0 0 0 0 0 0 0 0 0 0 0 0
0.235984 8.62149e-17 8.62095e-17 5.39871e-21 6.26192e-05 0.000162156 0 0 0 0 0 0 0 0 0 0 0 0 0 0 0 0 0 0 0 0 0 0 0 0 0 0 0 0 0 0 0 0 0 0 0 0 0 0 0 0 0 0
0.248097 8.26505e-17 8.26462e-17 4.2957e-21 5.19743e-05 0.000145476 0 0 0 0 0 0 0 0 0 0 0 0 0 0 0 0 0 0 0 0 0 0 0 0 0 0 0 0 0 0 0 0 0 0 0 0 0 0 0 0 0 0
0.260832 7.95321e-17 7.95287e-17 3.43881e-21 4.3238e-05 0.000130731 0 0 0 0 0 0 0 0 0 0 0 0 0 0 0 0 0 0 0 0 0 0 0 0 0 0 0 0 0 0 0 0 0 0 0 0 0 0 0 0 0 0
0.274221 7.64283e-17 7.64255e-17 2.7629e-21 3.61503e-05 0.000117607 0 0 0 0 0 0 0 0 0 0 0 0 0 0 0 0 0 0 0 0 0 0 0 0 0 0 0 0 0 0 0 0 0 0 0 0 0 0 0 0 0 0
0.288297 7.33109e-17 7.33086e-17 2.22743e-21 3.03834e-05 0.000105917 0 0 0 0 0 0 0 0 0 0 0 0 0 0 0 0 0 0 0 0 0 0 0 0 0 0 0 0 0 0 0 0 0 0 0 0 0 0 0 0 0 0
0.303095 7.02157e-17 7.02139e-17 1.79978e-21 2.56321e-05 9.5464e-05 0 0 0 0 0 0 0 0 0 0 0 0 0 0 0 0 0 0 0 0 0 0 0 0 0 0 0 0 0 0 0 0 0 0 0 0 0 0 0 0 0 0
0.318653 6.71551e-17 6.71536e-17 1.45778e-21 2.17077e-05 8.60834e-05 0 0 0 0 0 0 0 0 0 0 0 0 0 0 0 0 0 0 0 0 0 0 0 0 0 0 0 0 0 0 0 0 0 0 0 0 0 0 0 0 0 0
0.335009 6.4157e-17 6.41558e-17 1.18295e-21 1.84384e-05 7.76601e-05 0 0 0 0 0 0 0 0 0 0 0 0 0 0 0 0 0 0 0 0 0 0 0 0 0 0 0 0 0 0 0 0 0 0 0 0 0 0 0 0 0 0
0.352205 6.12429e-17 6.12419e-17 9.6144e-22 1.56988e-05 7.00915e-05 0 0 0 0 0 0 0 0 0 0 0 0 0 0 0 0 0 0 0 0 0 0 0 0 0 0 0 0 0 0 0 0 0 0 0 0 0 0 0 0 0 0
0.370284 5.84124e-17 5.84116e-17 7.82824e-22 1.34017e-05 6.32837e-05 0 0 0 0 0 0 0 0 0 0 0 0 0 0 0 0 0 0 0 0 0 0 0 0 0 0 0 0 0 0 0 0 0 0 0 0 0 0 0 0 0 0
0.389291 5.56836e-17 5.56829e-17 6.37868e-22 1.14552e-05 5.71552e-05 0 0 0 0 0 0 0 0 0 0 0 0 0 0 0 0 0 0 0 0 0 0 0 0 0 0 0 0 0 0 0 0 0 0 0 0 0 0 0 0 0 0
0.409273 5.30506e-17 5.30501e-17 5.20451e-22 9.81047e-06 5.16311e-05 0 0 0 0 0 0 0 0 0 0 0 1.4013e-45 0 0 0 0 0 0 0 0 0 0 0 0 0 0 0 0 0 0 0 0 0 0 0 0 0 0 0 0 0 0
0.430281 5.05261e-17 5.05257e-17 4.24917e-22 8.40984e-06 4.66471e-05 0 0 0 0 0 2.8026e-45 0 5.60519e-45 0 9.80909e-45 0 1.54143e-44 0 0 0 0 0 0 0 0 0 0 0 0 0 0 0 0 0 0 0 0 0 0 0 0 0 0 0 0 0 0
0.452368 4.81041e-17 4.81038e-17 3.47178e-22 7.21723e-06 4.21629e-05 0 2.8026e-45 0 9.80909e-45 0 3.64338e-44 0 8.26766e-44 0 1.45735e-43 0 2.28412e-43 0 0 0 0 0 0 0 0 0 0 0 0 0 0 0 0 0 0 0 0 0 0 0 0 0 0 0 0 0 0
0.475588 4.57832e-17 4.57829e-17 2.83806e-22 6.1989e-06 3.81115e-05 0 3.08286e-44 0 1.21913e-43 0 4.84849e-43 0 1.09161e-42 0 1.9408e-42 0 3.03101e-42 0 1.4013e-45 0 1.4013e-45 0 1.4013e-45 0 2.8026e-45 0 2.8026e-45 0 2.8026e-45 0 2.8026e-45 0 2.8026e-45 0 2.8026e-45 0 4.2039e-45 0 4.2039e-45 0 4.2039e-45 0 4.2039e-45 0 4.2039e-45 0 5.60519e-45
0.5 4.35641e-17 4.35639e-17 2.32133e-22 5.32854e-06 3.44512e-05 0 3.58732e-43 0 1.42792e-42 0 5.69207e-42 0 1.27939e-41 0 2.27319e-41 0 3.55089e-41 0 5.74532e-44 0 6.72623e-44 0 7.70714e-44 0 8.68805e-44 0 9.66896e-44 0 1.05097e-43 0 1.14906e-43 0 1.24716e-43 0 1.35926e-43 0 1.45735e-43 0 1.55544e-43 0 1.66755e-43 0 1.77965e-43 0 1.90577e-43 0 2.0459e-43
0.525665 4.14441e-17 4.14439e-17 1.89998e-22 4.58444e-06 3.1145e-05 0 3.83676e-42 0 1.50177e-41 0 5.94137e-41 0 1.33195e-40 0 2.36363e-40 0 3.68918e-40 0 1.95621e-42 0 2.28272e-42 0 2.61062e-42 0 2.93712e-42 0 3.26503e-42 0 3.59433e-42 0 3.92504e-42 0 4.25714e-42 0 4.59206e-42 0 4.93537e-42 0 5.2829e-42 0 5.63883e-42 0 6.00737e-42 0 6.39553e-42 0 6.81031e-42
0.552648 3.94155e-17 3.94153e-17 1.55603e-22 3.94775e-06 2.81607e-05 0 3.85189e-41 0 1.4477e-40 0 5.60484e-40 0 1.24717e-39 0 2.20486e-39 0 3.43358e-39 0 5.55166e-41 0 6.47778e-41 0 7.40502e-41 0 8.33352e-41 0 9.263e-41 0 1.01944e-40 0 1.11321e-40 0 1.20713e-40 0 1.30155e-40 0 1.39788e-40 0 1.4947e-40 0 1.59328e-40 0 1.69434e-40 0 1.79906e-40 0 1.90843e-40
0.581015 3.74888e-17 3.74886e-17 1.27388e-22 3.39803e-06 2.54694e-05 0 3.91006e-40 0 1.34154e-39 0 4.92129e-39 0 1.07395e-38 0 1.87964e-38 0 2.90921e-38 0 1.32743e-39 0 1.54887e-39 0 1.77053e-39 0 1.99247e-39 0 2.21458e-39 0 2.43709e-39 0 2.66079e-39 0 2.88476e-39 0 3.10958e-39 0 3.33778e-39 0 3.56668e-39 0 3.79847e-39 0 4.03424e-39 0 4.27585e-39 0 4.52459e-39
0.610839 3.56542e-17 3.56541e-17 1.04305e-22 2.92546e-06 2.30337e-05 0 4.34072e-39 0 1.28437e-38 0 4.23374e-38 0 8.84826e-38 0 1.51281e-37 0 2.30733e-37 0 2.69684e-38 0 3.1467e-38 0 3.59695e-38 0 4.04771e-38 0 4.49875e-38 0 4.95047e-38 0 5.40417e-38 0 5.85822e-38 0 6.31356e-38 0 6.774e-38 0 7.23533e-38 0 7.70068e-38 0 8.17158e-38 0 8.65052e-38 0 9.13883e-38
0.642193 3.38903e-17 3.38902e-17 8.54562e-23 2.52155e-06 2.08297e-05 0 5.32931e-38 0 1.34597e-37 0 3.81244e-37 0 7.39952e-37 0 1.21073e-36 0 1.79358e-36 0 4.69006e-37 0 5.47236e-37 0 6.25529e-37 0 7.03899e-37 0 7.82309e-37 0 8.60819e-37 0 9.39613e-37 0 1.01845e-36 0 1.09745e-36 0 1.17712e-36 0 1.25688e-36 0 1.33713e-36 0 1.41805e-36 0 1.49994e-36 0 1.58289e-36
0.675157 3.22199e-17 3.22199e-17 7.00117e-23 2.17293e-06 1.88416e-05 0 6.75393e-37 0 1.5223e-36 0 3.73065e-36 0 6.62514e-36 0 1.02058e-35 0 1.44726e-35 0 7.0406e-36 0 8.21489e-36 0 9.39007e-36 0 1.05663e-35 0 1.17429e-35 0 1.29209e-35 0 1.41025e-35 0 1.52844e-35 0 1.64682e-35 0 1.76597e-35 0 1.8852e-35 0 2.00494e-35 0 2.12539e-35 0 2.24686e-35 0 2.36939e-35
0.709813 3.06416e-17 3.06415e-17 5.73475e-23 1.87156e-06 1.70439e-05 0 8.17488e-36 0 1.73098e-35 0 3.84599e-35 0 6.34506e-35 0 9.22819e-35 0 1.24954e-34 0 9.1901e-35 0 1.07228e-34 0 1.22566e-34 0 1.37916e-34 0 1.53271e-34 0 1.68641e-34 0 1.8405e-34 0 1.99462e-34 0 2.14892e-34 0 2.30401e-34 0 2.45915e-34 0 2.61475e-34 0 2.77104e-34 0 2.92827e-34 0 3.08642e-34
0.746248 2.91432e-17 2.91432e-17 4.69842e-23 1.61218e-06 1.54169e-05 0 9.03635e-35 0 1.85661e-34 0 3.9106e-34 0 6.16198e-34 0 8.61074e-34 0 1.12569e-33 0 1.04999e-33 0 1.2251e-33 0 1.40032e-33 0 1.57566e-33 0 1.75105e-33 0 1.92659e-33 0 2.10252e-33 0 2.27846e-33 0 2.45455e-33 0 2.63136e-33 0 2.8082e-33 0 2.98541e-33 0 3.16318e-33 0 3.34175e-33 0 3.52103e-33
0.784553 2.77184e-17 2.77184e-17 3.84818e-23 1.38831e-06 1.39442e-05 0 8.96202e-34 0 1.81579e-33 0 3.72514e-33 0 5.72805e-33 0 7.82451e-33 0 1.00145e-32 0 1.05683e-32 0 1.23307e-32 0 1.40942e-32 0 1.58588e-32 0 1.76238e-32 0 1.939e-32 0 2.11597e-32 0 2.29294e-32 0 2.47002e-32 0 2.64769e-32 0 2.82536e-32 0 3.00329e-32 0 3.18165e-32 0 3.36061e-32 0 3.54005e-32
0.824824 2.63657e-17 2.63657e-17 3.15208e-23 1.19552e-06 1.26153e-05 0 7.94196e-33 0 1.59866e-32 0 3.23841e-32 0 4.91925e-32 0 6.64116e-32 0 8.40414e-32 0 9.42969e-32 0 1.10022e-31 0 1.25756e-31 0 1.41498e-31 0 1.57244e-31 0 1.73e-31 0 1.88782e-31 0 2.04563e-31 0 2.20353e-31 0 2.36185e-31 0 2.52016e-31 0 2.67864e-31 0 2.83741e-31 0 2.99658e-31 0 3.15605e-31
0.867162 2.50743e-17 2.50742e-17 2.58167e-23 1.02961e-06 1.14136e-05 0 6.29631e-32 0 1.26346e-31 0 2.54371e-31 0 3.84075e-31 0 5.15456e-31 0 6.48515e-31 0 7.50076e-31 0 8.75156e-31 0 1.0003e-30 0 1.12551e-30 0 1.25073e-30 0 1.37603e-30 0 1.50152e-30 0 1.62699e-30 0 1.75252e-30 0 1.87832e-30 0 2.00412e-30 0 2.13e-30 0 2.25607e-30 0 2.38239e-30 0 2.50886e-30
0.911674 2.38646e-17 2.38646e-17 2.11345e-23 8.85599e-07 1.0326e-05 0 4.48648e-31 0 8.98901e-31 0 1.80422e-30 0 2.71596e-30 0 3.63412e-30 0 4.55869e-30 0 5.35396e-30 0 6.24674e-30 0 7.13993e-30 0 8.03355e-30 0 8.92729e-30 0 9.8215e-30 0 1.07169e-29 0 1.16122e-29 0 1.25078e-29 0 1.3405e-29 0 1.43021e-29 0 1.51997e-29 0 1.60984e-29 0 1.69984e-29 0 1.78992e-29
0.95847 2.27283e-17 2.27283e-17 1.72884e-23 7.60654e-07 9.34164e-06 0 2.8859e-30 0 5.77757e-30 0 1.15782e-29 0 1.7402e-29 0 2.32488e-29 0 2.91187e-29 0 3.44721e-29 0 4.02202e-29 0 4.59708e-29 0 5.1724e-29 0 5.74777e-29 0 6.32342e-29 0 6.89973e-29 0 7.476e-29 0 8.05242e-29 0 8.62973e-29 0 9.20698e-29 0 9.78443e-29 0 1.03624e-28 0 1.09412e-28 0 1.15202e-28
1.00767 2.16505e-17 2.16505e-17 1.41068e-23 6.5157e-07 8.45192e-06 0 1.68285e-29 0 3.36767e-29 0 6.7432e-29 0 1.01266e-28 0 1.35178e-28 0 1.69168e-28 0 2.01134e-28 0 2.34672e-28 0 2.68223e-28 0 3.01788e-28 0 3.35356e-28 0 3.68938e-28 0 4.02555e-28 0 4.3617e-28 0 4.69791e-28 0 5.03457e-28 0 5.3712e-28 0 5.7079e-28 0 6.04487e-28 0 6.3822e-28 0 6.71965e-28
1.05939 2.10881e-17 2.1088e-17 1.1513e-23 5.45951e-07 7.64733e-06 0 9.13658e-29 0 1.82797e-28 0 3.65853e-28 0 5.49169e-28 0 7.32742e-28 0 9.16574e-28 0 1.09242e-27 0 1.27457e-27 0 1.45679e-27 0 1.63908e-27 0 1.82137e-27 0 2.00375e-27 0 2.18629e-27 0 2.36882e-27 0 2.55138e-27 0 2.73415e-27 0 2.9169e-27 0 3.09968e-27 0 3.28258e-27 0 3.46564e-27 0 3.64875e-27
1.11377 2.06164e-17 2.06164e-17 9.40963e-24 4.56414e-07 6.91886e-06 0 4.55388e-28 0 9.10983e-28 0 1.82279e-27 0 2.73542e-27 0 3.64886e-27 0 4.56312e-27 0 5.44641e-27 0 6.35451e-27 0 7.26294e-27 0 8.17168e-27 0 9.08048e-27 0 9.98963e-27 0 1.08995e-26 0 1.18094e-26 0 1.27193e-26 0 1.36302e-26 0 1.4541e-26 0 1.54519e-26 0 1.63633e-26 0 1.72754e-26 0 1.81876e-26
1.17094 2.02325e-17 2.02325e-17 7.70642e-24 3.80892e-07 6.25927e-06 0 2.09293e-27 0 4.18649e-27 0 8.3755e-27 0 1.2567e-26 0 1.6761e-26 0 2.09575e-26 0 2.50368e-26 0 2.92111e-26 0 3.33869e-26 0 3.75641e-26 0 4.17415e-26 0 4.59203e-26 0 5.01023e-26 0 5.4284e-26 0 5.84662e-26 0 6.26521e-26 0 6.68377e-26 0 7.10235e-26 0 7.52113e-26 0 7.9402e-26 0 8.35929e-26
1.23105 1.9893e-17 1.9893e-17 6.3093e-24 3.17162e-07 5.66266e-06 0 8.88863e-27 0 1.77791e-26 0 3.55657e-26 0 5.33597e-26 0 7.11611e-26 0 8.89697e-26 0 1.0635e-25 0 1.24081e-25 0 1.41818e-25 0 1.59561e-25 0 1.77304e-25 0 1.95053e-25 0 2.12814e-25 0 2.30574e-25 0 2.48336e-25 0 2.66112e-25 0 2.83887e-25 0 3.01662e-25 0 3.19445e-25 0 3.37238e-25 0 3.55031e-25
1.29424 1.95214e-17 1.95214e-17 5.16814e-24 2.64742e-07 5.12311e-06 0 3.48871e-26 0 6.97795e-26 0 1.3958e-25 0 2.09402e-25 0 2.79245e-25 0 3.49109e-25 0 4.1748e-25 0 4.87084e-25 0 5.56709e-25 0 6.26354e-25 0 6.96001e-25 0 7.65669e-25 0 8.35383e-25 0 9.05091e-25 0 9.74805e-25 0 1.04457e-24 0 1.11433e-24 0 1.18409e-24 0 1.25387e-24 0 1.3237e-24 0 1.39352e-24
1.36067 1.91041e-17 1.91041e-17 4.25155e-24 2.22546e-07 4.63532e-06 0 1.2691e-25 0 2.53836e-25 0 5.07731e-25 0 7.61684e-25 0 1.0157e-24 0 1.26976e-24 0 1.51891e-24 0 1.77214e-24 0 2.02545e-24 0 2.27882e-24 0 2.5322e-24 0 2.78566e-24 0 3.03926e-24 0 3.29284e-24 0 3.54645e-24 0 3.80022e-24 0 4.05397e-24 0 4.30772e-24 0 4.56156e-24 0 4.81552e-24 0 5.06947e-24
1.43051 1.86578e-17 1.86578e-17 3.45938e-24 1.85412e-07 4.193e-06 0 4.29708e-25 0 8.59456e-25 0 1.71907e-24 0 2.57884e-24 0 3.43877e-24 0 4.29884e-24 0 5.14357e-24 0 6.00109e-24 0 6.85886e-24 0 7.71683e-24 0 8.57482e-24 0 9.43305e-24 0 1.02917e-23 0 1.11504e-23 0 1.20091e-23 0 1.28683e-23 0 1.37274e-23 0 1.45866e-23 0 1.5446e-23 0 1.63057e-23 0 1.71655e-23
1.50394 1.8197e-17 1.8197e-17 2.82776e-24 1.55397e-07 3.79314e-06 0 1.35969e-24 0 2.71949e-24 0 5.43939e-24 0 8.1597e-24 0 1.08804e-23 0 1.36015e-23 0 1.62774e-23 0 1.89911e-23 0 2.17055e-23 0 2.44205e-23 0 2.71356e-23 0 2.98514e-23 0 3.25686e-23 0 3.52856e-23 0 3.80027e-23 0 4.07213e-23 0 4.34398e-23 0 4.61582e-23 0 4.88774e-23 0 5.15976e-23 0 5.43177e-23
1.58114 1.77516e-17 1.77516e-17 2.31396e-24 1.30352e-07 3.43186e-06 0 4.0399e-24 0 8.08006e-24 0 1.61611e-23 0 2.42432e-23 0 3.23263e-23 0 4.04104e-23 0 4.83688e-23 0 5.64324e-23 0 6.44982e-23 0 7.25656e-23 0 8.06332e-23 0 8.87027e-23 0 9.6776e-23 0 1.04849e-22 0 1.12922e-22 0 1.20999e-22 0 1.29076e-22 0 1.37153e-22 0 1.45232e-22 0 1.53314e-22 0 1.61395e-22
1.6623 1.73455e-17 1.73455e-17 1.89332e-24 1.09153e-07 3.10438e-06 0 1.1321e-23 0 2.26426e-23 0 4.52878e-23 0 6.79353e-23 0 9.05853e-23 0 1.13238e-22 0 1.35559e-22 0 1.58157e-22 0 1.80762e-22 0 2.03371e-22 0 2.2598e-22 0 2.48595e-22 0 2.71219e-22 0 2.93842e-22 0 3.16466e-22 0 3.39101e-22 0 3.61734e-22 0 3.84367e-22 0 4.07006e-22 0 4.29652e-22 0 4.52296e-22
1.74763 1.70011e-17 1.70011e-17 1.54895e-24 9.11093e-08 2.80794e-06 0 3.00509e-23 0 6.01033e-23 0 1.20212e-22 0 1.80327e-22 0 2.40447e-22 0 3.00573e-22 0 3.59869e-22 0 4.19862e-22 0 4.79868e-22 0 5.39886e-22 0 5.99905e-22 0 6.59937e-22 0 7.19993e-22 0 7.80046e-22 0 8.40102e-22 0 9.00184e-22 0 9.60263e-22 0 1.02034e-21 0 1.08043e-21 0 1.14054e-21 0 1.20064e-21
1.83733 1.67433e-17 1.67433e-17 1.26676e-24 7.56576e-08 2.53946e-06 0 7.58941e-23 0 1.51792e-22 0 3.03596e-22 0 4.55414e-22 0 6.07244e-22 0 7.59086e-22 0 9.08945e-22 0 1.06047e-21 0 1.21203e-21 0 1.36362e-21 0 1.51521e-21 0 1.66682e-21 0 1.8185e-21 0 1.97017e-21 0 2.12185e-21 0 2.27358e-21 0 2.42531e-21 0 2.57704e-21 0 2.72879e-21 0 2.8806e-21 0 3.03239e-21
1.93164 1.65853e-17 1.65853e-17 1.03554e-24 6.24371e-08 2.29698e-06 0 1.8302e-22 0 3.66048e-22 0 7.32124e-22 0 1.09823e-21 0 1.46436e-21 0 1.83052e-21 0 2.19214e-21 0 2.55758e-21 0 2.9231e-21 0 3.28867e-21 0 3.65425e-21 0 4.0199e-21 0 4.38568e-21 0 4.75145e-21 0 5.11723e-21 0 5.48314e-21 0 5.84904e-21 0 6.21493e-21 0 6.58089e-21 0 6.94695e-21 0 7.31299e-21
2.03079 1.65245e-17 1.65245e-17 8.47016e-25 5.12583e-08 2.07764e-06 0 4.22478e-22 0 8.44971e-22 0 1.69e-21 0 2.53509e-21 0 3.38024e-21 0 4.22545e-21 0 5.06073e-21 0 5.90436e-21 0 6.74816e-21 0 7.59209e-21 0 8.43604e-21 0 9.28013e-21 0 1.01245e-20 0 1.09688e-20 0 1.18132e-20 0 1.26579e-20 0 1.35025e-20 0 1.43471e-20 0 1.51919e-20 0 1.60369e-20 0 1.68818e-20
2.13503 1.65388e-17 1.65388e-17 6.93461e-25 4.19294e-08 1.87874e-06 0 9.34513e-22 0 1.86906e-21 0 3.73824e-21 0 5.60754e-21 0 7.47696e-21 0 9.34649e-21 0 1.11952e-20 0 1.30614e-20 0 1.4928e-20 0 1.67949e-20 0 1.86618e-20 0 2.0529e-20 0 2.23968e-20 0 2.42645e-20 0 2.61323e-20 0 2.80007e-20 0 2.9869e-20 0 3.17373e-20 0 3.36059e-20 0 3.54749e-20 0 3.73439e-20
2.24463 1.65725e-17 1.65725e-17 5.68255e-25 3.4289e-08 1.6987e-06 0 1.97853e-21 0 3.95712e-21 0 7.91449e-21 0 1.18721e-20 0 1.58299e-20 0 1.9788e-20 0 2.37042e-20 0 2.76556e-20 0 3.16078e-20 0 3.55605e-20 0 3.95132e-20 0 4.34666e-20 0 4.74212e-20 0 5.13756e-20 0 5.53301e-20 0 5.92858e-20 0 6.32415e-20 0 6.7197e-20 0 7.11532e-20 0 7.51102e-20 0 7.9067e-20
2.35984 1.66105e-17 1.66105e-17 4.65917e-25 2.80495e-08 1.53606e-06 0 4.01414e-21 0 8.02841e-21 0 1.60573e-20 0 2.40866e-20 0 3.21163e-20 0 4.01465e-20 0 4.8096e-20 0 5.61134e-20 0 6.41323e-20 0 7.21522e-20 0 8.01721e-20 0 8.81933e-20 0 9.62167e-20 0 1.0424e-19 0 1.12263e-19 0 1.20289e-19 0 1.28314e-19 0 1.3634e-19 0 1.44366e-19 0 1.52394e-19 0 1.60422e-19
2.48097 1.66741e-17 1.66741e-17 3.8216e-25 2.29194e-08 1.38869e-06 0 7.82999e-21 0 1.56602e-20 0 3.13212e-20 0 4.69831e-20 0 6.26457e-20 0 7.83091e-20 0 9.38231e-20 0 1.09463e-19 0 1.25105e-19 0 1.4075e-19 0 1.56394e-19 0 1.72041e-19 0 1.87692e-19 0 2.03342e-19 0 2.18993e-19 0 2.34648e-19 0 2.50303e-19 0 2.65957e-19 0 2.81613e-19 0 2.97273e-19 0 3.12932e-19
