# 0.00019953 1 150 : grain size, compostion index, size index
# Heating and cooling timescale: 5.20533e-05 4.04982e+11
# Ratio of heating to cooling to determine stochastic cutoff: 100
# Equilibrium emission is recorded even for those grains in the stochastic regime.
# Emission spectrum was computed for: 
# Type: IRSF
# Scales: 0.25 0.5 1 1.5 2 2.5 3 3.5 4 4.5 5 5.5 6 6.5 7 7.5 8 8.5 9 9.5 10
# StochasticallyHeated: 0 0 0 0 0 0 0 0 0 0 0 0 0 0 0 0 0 0 0 0 0
# Temperature: -1
# Wavelength  CExt  CAbs  CSca  Albedo G EqEm1 StEm1 EqEm2 StEm2 EqEm3 StEm3 EqEm4 StEm4 EqEm5 StEm5 EqEm6 StEm6 EqEm7 StEm7 EqEm8 StEm8 EqEm9 StEm9 EqEm10 StEm10 EqEm11 StEm11 EqEm12 StEm12 EqEm13 StEm13 EqEm14 StEm14 EqEm15 StEm15 EqEm16 StEm16 EqEm17 StEm17 EqEm18 StEm18 EqEm19 StEm19 EqEm20 StEm20 EqEm21 StEm21
0.05 6.46124e-08 2.87525e-08 3.58599e-08 0.555 0.214794 0 0 0 0 0 0 0 0 0 0 0 0 0 0 0 0 0 0 0 0 0 0 0 0 0 0 0 0 0 0 0 0 0 0 0 0 0 0 0 0 0 0
0.0525665 7.14158e-08 3.178e-08 3.96358e-08 0.555 0.23741 0 0 0 0 0 0 0 0 0 0 0 0 0 0 0 0 0 0 0 0 0 0 0 0 0 0 0 0 0 0 0 0 0 0 0 0 0 0 0 0 0 0
0.0552647 7.89355e-08 3.51263e-08 4.38092e-08 0.555 0.262409 0 0 0 0 0 0 0 0 0 0 0 0 0 0 0 0 0 0 0 0 0 0 0 0 0 0 0 0 0 0 0 0 0 0 0 0 0 0 0 0 0 0
0.0581015 8.7247e-08 3.88249e-08 4.84221e-08 0.555 0.290039 0 0 0 0 0 0 0 0 0 0 0 0 0 0 0 0 0 0 0 0 0 0 0 0 0 0 0 0 0 0 0 0 0 0 0 0 0 0 0 0 0 0
0.0610839 9.64337e-08 4.2913e-08 5.35207e-08 0.555 0.320579 0 0 0 0 0 0 0 0 0 0 0 0 0 0 0 0 0 0 0 0 0 0 0 0 0 0 0 0 0 0 0 0 0 0 0 0 0 0 0 0 0 0
0.0642193 1.06588e-07 4.74315e-08 5.91562e-08 0.555 0.354334 0 0 0 0 0 0 0 0 0 0 0 0 0 0 0 0 0 0 0 0 0 0 0 0 0 0 0 0 0 0 0 0 0 0 0 0 0 0 0 0 0 0
0.0675157 1.17811e-07 5.24258e-08 6.53851e-08 0.555 0.391644 0 0 0 0 0 0 0 0 0 0 0 0 0 0 0 0 0 0 0 0 0 0 0 0 0 0 0 0 0 0 0 0 0 0 0 0 0 0 0 0 0 0
0.0709813 1.30216e-07 5.7946e-08 7.22698e-08 0.555 0.432882 0 0 0 0 0 0 0 0 0 0 0 0 0 0 0 0 0 0 0 0 0 0 0 0 0 0 0 0 0 0 0 0 0 0 0 0 0 0 0 0 0 0
0.0746248 1.43927e-07 6.40474e-08 7.98795e-08 0.555 0.478462 0 0 0 0 0 0 0 0 0 0 0 0 0 0 0 0 0 0 0 0 0 0 0 0 0 0 0 0 0 0 0 0 0 0 0 0 0 0 0 0 0 0
0.0784553 1.59082e-07 7.07913e-08 8.82904e-08 0.555 0.528842 0 0 0 0 0 0 0 0 0 0 0 0 0 0 0 0 0 0 0 0 0 0 0 0 0 0 0 0 0 0 0 0 0 0 0 0 0 0 0 0 0 0
0.0824824 1.75832e-07 7.82452e-08 9.75869e-08 0.555 0.584526 0 0 0 0 0 0 0 0 0 0 0 0 0 0 0 0 0 0 0 0 0 0 0 0 0 0 0 0 0 0 0 0 0 0 0 0 0 0 0 0 0 0
0.0867162 1.94347e-07 8.64841e-08 1.07862e-07 0.555 0.646074 0 0 0 0 0 0 0 0 0 0 0 0 0 0 0 0 0 0 0 0 0 0 0 0 0 0 0 0 0 0 0 0 0 0 0 0 0 0 0 0 0 0
0.0911674 2.1481e-07 9.55905e-08 1.1922e-07 0.555 0.714103 0 0 0 0 0 0 0 0 0 0 0 0 0 0 0 0 0 0 0 0 0 0 0 0 0 0 0 0 0 0 0 0 0 0 0 0 0 0 0 0 0 0
0.095847 2.37429e-07 1.05656e-07 1.31773e-07 0.555 0.789295 0 0 0 0 0 0 0 0 0 0 0 0 0 0 0 0 0 0 0 0 0 0 0 0 0 0 0 0 0 0 0 0 0 0 0 0 0 0 0 0 0 0
0.100767 2.58498e-07 1.15046e-07 1.43452e-07 0.554943 0.859206 0 0 0 0 0 0 0 0 0 0 0 0 0 0 0 0 0 0 0 0 0 0 0 0 0 0 0 0 0 0 0 0 0 0 0 0 0 0 0 0 0 0
0.105939 2.58811e-07 1.15305e-07 1.43505e-07 0.55448 0.862954 0 0 0 0 0 0 0 0 0 0 0 0 0 0 0 0 0 0 0 0 0 0 0 0 0 0 0 0 0 0 0 0 0 0 0 0 0 0 0 0 0 0
0.111377 2.59122e-07 1.15628e-07 1.43494e-07 0.55377 0.867784 0 0 0 0 0 0 0 0 0 0 0 0 0 0 0 0 0 0 0 0 0 0 0 0 0 0 0 0 0 0 0 0 0 0 0 0 0 0 0 0 0 0
0.117094 2.5945e-07 1.1594e-07 1.4351e-07 0.553131 0.87084 0 0 0 0 0 0 0 0 0 0 0 0 0 0 0 0 0 0 0 0 0 0 0 0 0 0 0 0 0 0 0 0 0 0 0 0 0 0 0 0 0 0
0.123105 2.59762e-07 1.16381e-07 1.43381e-07 0.551971 0.872725 0 0 0 0 0 0 0 0 0 0 0 0 0 0 0 0 0 0 0 0 0 0 0 0 0 0 0 0 0 0 0 0 0 0 0 0 0 0 0 0 0 0
0.129424 2.60068e-07 1.16886e-07 1.43182e-07 0.550557 0.873594 0 0 0 0 0 0 0 0 0 0 0 0 0 0 0 0 0 0 0 0 0 0 0 0 0 0 0 0 0 0 0 0 0 0 0 0 0 0 0 0 0 0
0.136067 2.60401e-07 1.17225e-07 1.43176e-07 0.549827 0.873267 0 0 0 0 0 0 0 0 0 0 0 0 0 0 0 0 0 0 0 0 0 0 0 0 0 0 0 0 0 0 0 0 0 0 0 0 0 0 0 0 0 0
0.143051 2.60729e-07 1.17808e-07 1.42921e-07 0.548158 0.870944 0 0 0 0 0 0 0 0 0 0 0 0 0 0 0 0 0 0 0 0 0 0 0 0 0 0 0 0 0 0 0 0 0 0 0 0 0 0 0 0 0 0
0.150394 2.61089e-07 1.18737e-07 1.42352e-07 0.545224 0.872009 0 0 0 0 0 0 0 0 0 0 0 0 0 0 0 0 0 0 0 0 0 0 0 0 0 0 0 0 0 0 0 0 0 0 0 0 0 0 0 0 0 0
0.158114 2.61505e-07 1.19946e-07 1.41559e-07 0.541324 0.878134 0 0 0 0 0 0 0 0 0 0 0 0 0 0 0 0 0 0 0 0 0 0 0 0 0 0 0 0 0 0 0 0 0 0 0 0 0 0 0 0 0 0
0.16623 2.61999e-07 1.21217e-07 1.40782e-07 0.537339 0.885681 0 0 0 0 0 0 0 0 0 0 0 0 0 0 0 0 0 0 0 0 0 0 0 0 0 0 0 0 0 0 0 0 0 0 0 0 0 0 0 0 0 0
0.174762 2.62508e-07 1.22374e-07 1.40134e-07 0.533827 0.89253 0 0 0 0 0 0 0 0 0 0 0 0 0 0 0 0 0 0 0 0 0 0 0 0 0 0 0 0 0 0 0 0 0 0 0 0 0 0 0 0 0 0
0.183733 2.63018e-07 1.22737e-07 1.40281e-07 0.533352 0.898637 0 0 0 0 0 0 0 0 0 0 0 0 0 0 0 0 0 0 0 0 0 0 0 0 0 0 0 0 0 0 0 0 0 0 0 0 0 0 0 0 0 0
0.193164 2.64561e-07 1.19841e-07 1.4472e-07 0.547019 0.9038 0 0 0 0 0 0 0 0 0 0 0 0 0 0 0 0 0 0 0 0 0 0 0 0 0 0 0 0 0 0 0 0 0 0 0 0 0 0 0 0 0 0
0.203079 2.64821e-07 1.20313e-07 1.44508e-07 0.545683 0.908138 0 0 0 0 0 0 0 0 0 0 0 0 0 0 0 0 0 0 0 0 0 0 0 0 0 0 0 0 0 0 0 0 0 0 0 0 0 0 0 0 0 0
0.213503 2.64545e-07 1.21866e-07 1.42679e-07 0.539338 0.911712 0 0 0 0 0 0 0 0 0 0 0 0 0 0 0 0 0 0 0 0 0 0 0 0 0 0 0 0 0 0 0 0 0 0 0 0 0 0 0 0 0 0
0.224463 2.64358e-07 1.23003e-07 1.41355e-07 0.534712 0.914207 0 0 0 0 0 0 0 0 0 0 0 0 0 0 0 0 0 0 0 0 0 0 0 0 0 0 0 0 0 0 0 0 0 0 0 0 0 0 0 0 0 0
0.235984 2.6423e-07 1.24133e-07 1.40097e-07 0.530208 0.916251 0 0 0 0 0 0 0 0 0 0 0 0 0 0 0 0 0 0 0 0 0 0 0 0 0 0 0 0 0 0 0 0 0 0 0 0 0 0 0 0 0 0
0.248097 2.64239e-07 1.25125e-07 1.39115e-07 0.526472 0.9179 0 0 0 0 0 0 0 0 0 0 0 0 0 0 0 0 0 0 0 0 0 0 0 0 0 0 0 0 0 0 0 0 0 0 0 0 0 0 0 0 0 0
0.260832 2.64438e-07 1.25969e-07 1.38468e-07 0.523634 0.918778 0 0 0 0 0 0 0 0 0 0 0 0 0 0 0 0 0 0 0 0 0 0 0 0 0 0 0 0 0 0 0 0 0 0 0 0 0 0 0 0 0 0
0.274221 2.64761e-07 1.26674e-07 1.38087e-07 0.521553 0.919099 0 0 0 0 0 0 0 0 0 0 0 0 0 0 0 0 0 0 0 0 0 0 0 0 0 0 0 0 0 0 0 0 0 0 0 0 0 0 0 0 0 0
0.288297 2.65176e-07 1.27262e-07 1.37914e-07 0.520084 0.920169 0 0 0 0 0 0 0 0 0 0 0 0 0 0 0 0 0 0 0 0 0 0 0 0 0 0 0 0 0 0 0 0 0 0 0 0 0 0 0 0 0 0
0.303095 2.65688e-07 1.27789e-07 1.37898e-07 0.519025 0.919751 0 0 0 0 0 0 0 0 0 0 0 0 0 0 0 0 0 0 0 0 0 0 0 0 0 0 0 0 0 0 0 0 0 0 0 0 0 0 0 0 0 0
0.318653 2.66252e-07 1.28258e-07 1.37994e-07 0.518284 0.919706 0 0 0 0 0 0 0 0 0 0 0 0 0 0 0 0 0 0 0 0 0 0 0 0 0 0 0 0 0 0 0 0 0 0 0 0 0 0 0 0 0 0
0.335009 2.66883e-07 1.28696e-07 1.38186e-07 0.517779 0.919297 0 0 0 0 0 0 0 0 0 0 0 0 0 0 0 0 0 0 0 0 0 0 0 0 0 0 0 0 0 0 0 0 0 0 0 0 0 0 0 0 0 0
0.352205 2.67562e-07 1.29131e-07 1.38432e-07 0.517381 0.918749 0 0 0 0 0 0 0 0 0 0 0 0 0 0 0 0 0 0 0 0 0 0 0 0 0 0 0 0 0 0 0 0 0 0 0 0 0 0 0 0 0 0
0.370284 2.68293e-07 1.29547e-07 1.38746e-07 0.517145 0.917222 0 0 0 0 0 0 0 0 0 0 0 0 0 0 0 0 0 0 0 0 0 0 0 0 0 0 0 0 0 0 0 0 0 0 0 0 0 0 0 0 0 0
0.389291 2.69056e-07 1.29967e-07 1.39089e-07 0.516953 0.917434 0 0 0 0 0 0 0 0 0 0 0 0 0 0 0 0 0 0 0 0 0 0 0 0 0 0 0 0 0 0 0 0 0 0 0 0 0 0 0 0 0 0
0.409273 2.69861e-07 1.30388e-07 1.39472e-07 0.516831 0.914242 0 0 0 0 0 0 0 0 0 0 0 0 0 0 0 0 0 0 0 0 0 0 0 0 0 0 0 0 0 0 0 0 0 0 0 0 0 0 0 0 0 0
0.430281 2.7071e-07 1.30825e-07 1.39885e-07 0.516734 0.913769 0 0 0 0 0 0 0 0 0 0 0 0 0 0 0 0 0 0 0 0 0 0 0 0 0 0 0 0 0 0 0 0 0 0 0 0 0 0 0 0 0 0
0.452368 2.71614e-07 1.31277e-07 1.40337e-07 0.516679 0.912026 0 0 0 0 0 0 0 0 0 0 0 0 0 0 0 0 0 0 0 0 0 0 0 0 0 0 0 0 0 0 0 0 0 0 0 0 0 0 0 0 0 0
0.475588 2.72551e-07 1.31743e-07 1.40808e-07 0.516631 0.908537 0 0 0 0 0 0 0 0 0 0 0 0 0 0 0 0 0 0 0 0 0 0 0 0 0 0 0 0 0 0 0 0 0 0 0 0 0 0 0 0 0 0
0.5 2.73537e-07 1.32224e-07 1.41313e-07 0.516614 0.906768 0 0 0 0 0 0 0 0 0 0 0 0 0 0 0 0 0 0 0 0 0 0 0 0 0 0 0 0 0 0 0 0 0 0 0 0 0 0 0 0 0 0
0.525665 2.74572e-07 1.32728e-07 1.41843e-07 0.516598 0.904964 0 0 0 0 0 0 0 0 0 0 0 0 0 0 0 0 0 0 0 0 0 0 0 0 0 0 0 0 0 0 0 0 0 0 0 0 0 0 0 0 0 0
0.552648 2.75657e-07 1.33248e-07 1.42409e-07 0.516616 0.901466 0 0 0 0 0 0 0 0 0 0 0 0 0 0 0 0 0 0 0 0 0 0 0 0 0 0 0 0 0 0 0 0 0 0 0 0 0 0 0 0 0 0
0.581015 2.76795e-07 1.33797e-07 1.42997e-07 0.516619 0.897838 0 0 0 0 0 0 0 0 0 0 0 0 0 0 0 0 0 0 0 0 0 0 0 0 0 0 0 0 0 0 0 0 0 0 0 0 0 0 0 0 0 0
0.610839 2.77988e-07 1.34373e-07 1.43615e-07 0.516624 0.893231 0 0 0 0 0 0 0 0 0 0 0 0 0 0 0 0 0 0 0 0 0 0 0 0 0 0 0 0 0 0 0 0 0 0 0 0 0 0 0 0 0 0
0.642193 2.79246e-07 1.3497e-07 1.44276e-07 0.516664 0.888764 0 0 0 0 0 0 0 0 0 0 0 0 0 0 0 0 0 0 0 0 0 0 0 0 0 0 0 0 0 0 0 0 0 0 0 0 0 0 0 0 0 0
0.675157 2.80575e-07 1.35604e-07 1.44971e-07 0.516691 0.886018 0 0 0 0 0 0 0 0 0 0 0 0 0 0 0 0 0 0 0 0 0 0 0 0 0 0 0 0 0 0 0 0 0 0 0 0 0 0 0 0 0 0
0.709813 2.81967e-07 1.36272e-07 1.45696e-07 0.516711 0.88508 0 0 0 0 0 0 0 0 0 0 0 0 0 0 0 0 0 0 0 0 0 0 0 0 0 0 0 0 0 0 0 0 0 0 0 0 0 0 0 0 0 0
0.746248 2.83427e-07 1.36975e-07 1.46452e-07 0.516718 0.881938 0 0 0 0 0 0 0 0 0 0 0 0 0 0 0 0 0 0 0 0 0 0 0 0 0 0 0 0 0 0 0 0 0 0 0 0 0 0 0 0 0 0
0.784553 2.85145e-07 1.37651e-07 1.47494e-07 0.517259 0.873431 0 0 0 0 0 0 0 0 0 0 0 0 0 0 0 0 0 0 0 0 0 0 0 0 0 0 0 0 0 0 0 0 0 0 0 0 0 0 0 0 0 0
0.824824 2.88123e-07 1.38083e-07 1.50041e-07 0.520752 0.863788 0 0 0 0 0 0 0 0 0 0 0 0 0 0 0 0 0 0 0 0 0 0 0 0 0 0 0 0 0 0 0 0 0 0 0 0 0 0 0 0 0 0
0.867162 2.94656e-07 1.38589e-07 1.56067e-07 0.529659 0.857248 0 0 0 0 0 0 0 0 0 0 0 0 0 0 0 0 0 0 0 0 0 0 0 0 0 0 0 0 0 0 0 0 0 0 0 0 0 0 0 0 0 0
0.911674 3.02425e-07 1.38891e-07 1.63534e-07 0.540744 0.854755 0 0 0 0 0 0 0 0 0 0 0 0 0 0 0 0 0 0 0 0 0 0 0 0 0 0 0 0 0 0 0 0 0 0 0 0 0 0 0 0 0 0
0.95847 3.07459e-07 1.39431e-07 1.68028e-07 0.546506 0.853715 0 0 0 0 0 0 0 0 0 0 0 0 0 0 0 0 0 0 0 0 0 0 0 0 0 0 0 0 0 0 0 0 0 0 0 0 0 0 0 0 0 0
1.00767 3.07591e-07 1.39799e-07 1.67792e-07 0.545502 0.849452 0 0 0 0 0 0 0 0 0 0 0 0 0 0 0 0 0 0 0 0 0 0 0 0 0 0 0 0 0 0 0 0 0 0 0 0 0 0 0 0 0 0
1.05939 3.03983e-07 1.40813e-07 1.6317e-07 0.536774 0.835605 0 0 0 0 0 0 0 0 0 0 0 0 0 0 0 0 0 0 0 0 0 0 0 0 0 0 0 0 0 0 0 0 0 0 0 0 0 0 0 0 0 0
1.11377 3.00528e-07 1.41765e-07 1.58763e-07 0.528279 0.81856 0 0 0 0 0 0 0 0 0 0 0 0 0 0 0 0 0 0 0 0 0 0 0 0 0 0 0 0 0 0 0 0 0 0 0 0 0 0 0 0 0 0
1.17094 2.99999e-07 1.43201e-07 1.56798e-07 0.522662 0.803907 0 0 0 0 0 0 0 0 0 0 0 0 0 0 0 0 0 0 0 0 0 0 0 0 0 0 0 0 0 0 0 0 0 0 0 0 0 0 0 0 0 0
1.23105 3.02363e-07 1.44238e-07 1.58125e-07 0.522965 0.794181 0 0 0 0 0 0 0 0 0 0 0 0 0 0 0 0 0 0 0 0 0 0 0 0 0 0 0 0 0 0 0 0 0 0 0 0 0 0 0 0 0 0
1.29424 3.06799e-07 1.45263e-07 1.61535e-07 0.526519 0.801933 0 0 0 0 0 0 0 0 0 0 0 0 0 0 0 0 0 0 0 0 0 0 0 0 0 0 0 0 0 0 0 0 0 0 0 0 0 0 0 0 0 0
1.36067 3.11985e-07 1.46309e-07 1.65676e-07 0.531039 0.812352 0 0 0 0 0 0 0 0 0 0 0 0 0 0 0 0 0 0 0 0 0 0 0 0 0 0 0 0 0 0 0 0 0 0 0 0 0 0 0 0 0 0
1.43051 3.16005e-07 1.47115e-07 1.6889e-07 0.534453 0.828618 0 0 0 0 0 0 0 0 0 0 0 0 0 0 0 0 0 0 0 0 0 0 0 0 0 0 0 0 0 0 0 0 0 0 0 0 0 0 0 0 0 0
1.50394 3.1735e-07 1.47586e-07 1.69764e-07 0.534942 0.834248 0 0 0 0 0 0 0 0 0 0 0 0 0 0 0 0 0 0 0 0 0 0 0 0 0 0 0 0 0 0 0 0 0 0 0 0 0 0 0 0 0 0
1.58114 3.16389e-07 1.48299e-07 1.6809e-07 0.531277 0.834074 0 0 0 0 0 0 0 0 0 0 0 0 0 0 0 0 0 0 0 0 0 0 0 0 0 0 0 0 0 0 0 0 0 0 0 0 0 0 0 0 0 0
1.6623 3.14312e-07 1.48226e-07 1.66086e-07 0.52841 0.820217 0 0 0 0 0 0 0 0 0 0 0 0 0 0 0 0 0 0 0 0 0 0 0 0 0 0 0 0 0 0 0 0 0 0 0 0 0 0 0 0 0 0
1.74763 3.11574e-07 1.49228e-07 1.62345e-07 0.52105 0.791021 0 0 0 0 0 0 0 0 0 0 0 0 0 0 0 0 0 0 0 0 0 0 0 0 0 0 0 0 0 0 0 0 0 0 0 0 0 0 0 0 0 0
1.83733 3.11518e-07 1.49218e-07 1.62301e-07 0.520998 0.756605 0 0 0 0 0 0 0 0 0 0 0 0 0 0 0 0 0 0 0 0 0 0 0 0 0 0 0 0 0 0 0 0 0 0 0 0 0 0 0 0 0 0
1.93164 3.1363e-07 1.4996e-07 1.6367e-07 0.521857 0.696389 0 0 0 0 0 0 0 0 0 0 0 0 0 0 0 0 0 0 0 0 0 0 0 0 0 0 0 0 0 0 0 0 0 0 0 0 0 0 0 0 0 0
2.03079 3.19132e-07 1.50129e-07 1.69003e-07 0.529571 0.630529 0 0 0 0 0 0 0 0 0 0 0 0 0 0 0 0 0 0 0 0 0 0 0 0 0 0 0 0 0 0 0 0 0 0 0 0 0 0 0 0 0 0
2.13503 3.29081e-07 1.51977e-07 1.77105e-07 0.538179 0.590493 0 0 0 0 0 0 0 0 0 0 0 0 0 0 0 0 0 0 0 0 0 0 0 0 0 0 0 0 0 0 0 0 0 0 0 0 0 0 0 0 0 0
2.24463 3.39024e-07 1.52199e-07 1.86825e-07 0.551067 0.524557 0 0 0 0 0 0 0 0 0 0 0 0 0 0 0 0 0 0 0 0 0 0 0 0 0 0 0 0 0 0 0 0 0 0 0 0 0 0 0 0 0 0
2.35984 3.52855e-07 1.5274e-07 2.00114e-07 0.567129 0.534997 0 0 0 0 0 0 0 0 0 0 0 0 0 0 0 0 0 0 0 0 0 0 0 0 0 0 0 0 0 0 0 0 0 0 0 0 0 0 0 0 0 0
2.48097 3.6595e-07 1.54018e-07 2.11932e-07 0.579129 0.539305 0 0 0 0 0 0 0 0 0 0 0 0 0 0 0 0 0 0 0 0 0 0 0 0 0 0 0 0 0 0 0 0 0 0 0 0 0 0 0 0 0 0
2.60832 3.77127e-07 1.54704e-07 2.22423e-07 0.589782 0.553106 0 0 0 0 0 0 0 0 0 0 0 0 0 0 0 0 0 0 0 0 0 0 0 0 0 0 0 0 0 0 0 0 0 0 0 0 0 0 0 0 0 0
2.74221 3.88412e-07 1.5573e-07 2.32682e-07 0.59906 0.602309 0 0 0 0 0 0 0 0 0 0 0 0 0 0 0 0 0 0 0 0 0 0 0 0 0 0 0 0 0 0 0 0 0 0 0 0 0 0 0 0 0 0
2.88297 3.97096e-07 1.56955e-07 2.40141e-07 0.604743 0.624079 0 0 0 0 0 0 0 0 0 0 0 0 0 0 0 0 0 0 0 0 0 0 0 0 0 0 0 0 0 0 0 0 0 0 0 0 0 0 0 0 0 0
3.03095 4.0204e-07 1.58072e-07 2.43968e-07 0.606824 0.648695 0 0 0 0 0 0 0 0 0 0 0 0 0 0 0 0 0 0 0 0 0 0 0 0 0 0 0 0 0 0 0 0 0 0 0 0 0 0 0 0 0 0
3.18653 4.04948e-07 1.58602e-07 2.46346e-07 0.60834 0.67204 0 0 0 0 0 0 0 0 0 0 0 0 0 0 0 0 0 0 0 0 0 0 0 0 0 0 0 0 0 0 0 0 0 0 0 0 0 0 0 0 0 0
3.35009 4.03807e-07 1.5938e-07 2.44427e-07 0.605307 0.689267 0 0 0 0 0 0 0 0 0 0 0 0 0 0 0 0 0 0 0 0 0 0 0 0 0 0 0 0 0 0 0 0 0 0 0 0 0 0 0 0 0 0
3.52205 4.05544e-07 1.61679e-07 2.43865e-07 0.601328 0.699212 0 0 0 0 0 0 0 0 0 0 0 0 0 0 0 0 0 0 0 0 0 0 0 0 0 0 0 0 0 0 0 0 0 0 0 0 0 0 0 0 0 0
3.70284 4.09168e-07 1.59397e-07 2.49771e-07 0.610437 0.712865 0 0 0 0 0 0 0 0 0 0 0 0 0 0 0 0 0 0 0 0 0 0 0 0 0 0 0 0 0 0 0 0 0 0 0 0 0 0 0 0 0 0
3.89291 4.05813e-07 1.58942e-07 2.46871e-07 0.608336 0.712376 0 0 0 0 0 0 0 0 0 0 0 0 0 0 0 0 0 0 0 0 0 0 0 0 0 0 0 0 0 0 0 0 0 0 0 0 0 0 0 0 0 0
4.09273 3.98647e-07 1.57267e-07 2.4138e-07 0.605499 0.708053 0 0 0 0 0 0 0 0 0 0 0 0 0 0 0 0 0 0 0 0 0 0 0 0 0 0 0 0 0 0 0 0 0 0 0 0 0 0 0 0 0 0
4.30281 3.89238e-07 1.55106e-07 2.34132e-07 0.601514 0.705268 0 0 0 0 0 0 0 0 0 0 0 0 0 0 0 0 0 0 0 0 0 0 0 0 0 0 0 0 0 0 0 0 0 0 0 0 0 0 0 0 0 0
4.52368 3.79158e-07 1.53926e-07 2.25232e-07 0.594033 0.711369 0 0 0 0 0 0 0 0 0 0 0 0 0 0 0 0 0 0 0 0 0 0 0 0 0 0 0 0 0 0 0 0 0 0 0 0 0 0 0 0 0 0
4.75588 3.68498e-07 1.5406e-07 2.14439e-07 0.581926 0.716422 0 0 0 0 0 0 0 0 0 0 0 0 0 0 0 0 0 0 0 0 0 0 0 0 0 0 0 0 0 0 0 0 0 0 0 0 0 0 0 0 0 0
5 3.56587e-07 1.54512e-07 2.02076e-07 0.566693 0.709215 0 0 0 0 0 0 0 0 0 0 0 0 0 0 0 0 0 0 0 0 0 0 0 0 0 0 0 0 0 0 0 0 0 0 0 0 0 0 0 0 0 0
5.25665 3.42984e-07 1.54095e-07 1.88889e-07 0.550723 0.689261 0 0 0 0 0 0 0 0 0 0 0 0 0 0 0 0 0 0 0 0 0 0 0 0 0 0 0 0 0 0 0 0 0 0 0 0 0 0 0 0 0 0
5.52648 3.2823e-07 1.52532e-07 1.75698e-07 0.53529 0.663782 0 0 0 0 0 0 0 0 0 0 0 0 0 0 0 0 0 0 0 0 0 0 0 0 0 0 0 0 0 0 0 0 0 0 0 0 0 0 0 0 0 0
5.81015 3.13331e-07 1.5026e-07 1.63071e-07 0.520443 0.64511 0 0 0 0 0 0 0 0 0 0 0 0 0 0 0 0 0 0 0 0 0 0 0 0 0 0 0 0 0 0 0 0 0 0 0 0 0 0 0 0 0 0
6.10839 2.98879e-07 1.47981e-07 1.50898e-07 0.504879 0.639577 0 0 0 0 0 0 0 0 0 0 0 0 0 0 0 0 0 0 0 0 0 0 0 0 0 0 0 0 0 0 0 0 0 0 0 0 0 0 0 0 0 0
6.42193 2.84781e-07 1.45943e-07 1.38838e-07 0.487527 0.642507 0 0 0 0 0 0 0 0 0 0 0 0 0 0 0 0 0 0 0 0 0 0 0 0 0 0 0 0 0 0 0 0 0 0 0 0 0 0 0 0 0 0
6.75157 2.70008e-07 1.44092e-07 1.25917e-07 0.466343 0.641315 0 0 0 0 0 0 0 0 0 0 0 0 0 0 0 0 0 0 0 0 0 0 0 0 0 0 0 0 0 0 0 0 0 0 0 0 0 0 0 0 0 0
7.09813 2.55752e-07 1.41778e-07 1.13974e-07 0.445642 0.62003 0 0 0 0 0 0 0 0 0 0 0 0 0 0 0 0 0 0 0 0 0 0 0 0 0 0 0 0 0 0 0 0 0 0 0 0 1.4013e-45 0 4.2039e-45 0 1.12104e-44 0
7.46248 2.37883e-07 1.38172e-07 9.97105e-08 0.419159 0.56836 0 0 0 0 0 0 0 0 0 0 0 0 0 0 0 0 0 0 0 0 0 0 0 0 0 0 1.4013e-45 0 2.8026e-45 0 1.12104e-44 0 3.50325e-44 0 1.02295e-43 0 2.83062e-43 0 7.25873e-43 0 1.76844e-42 0
7.84553 2.14613e-07 1.32092e-07 8.2521e-08 0.384511 0.503392 0 0 0 0 0 0 0 0 0 0 0 0 0 0 0 0 0 0 0 0 1.4013e-45 0 7.00649e-45 0 3.22299e-44 0 1.37327e-43 0 5.10073e-43 0 1.71519e-42 0 5.24086e-42 0 1.4652e-41 0 3.88706e-41 0 9.50347e-41 0 2.21747e-40 0
8.24824 1.93003e-07 1.31299e-07 6.17037e-08 0.319704 0.456138 0 0 0 0 0 0 0 0 0 0 0 0 0 0 0 0 4.2039e-45 0 3.08286e-44 0 2.08793e-43 0 1.08601e-42 0 5.01805e-42 0 2.00246e-41 0 6.97286e-41 0 2.20752e-40 0 6.38888e-40 0 1.69861e-39 0 4.29653e-39 0 1.00559e-38 0 2.25128e-38 0
8.67162 1.9231e-07 1.40257e-07 5.20537e-08 0.270675 0.419583 0 0 0 0 0 0 0 0 0 0 0 0 4.2039e-45 0 6.16571e-44 0 6.62814e-43 0 5.19882e-42 0 3.15642e-41 0 1.51742e-40 0 6.50518e-40 0 2.42648e-39 0 7.94985e-39 0 2.37911e-38 0 6.53733e-38 0 1.65705e-37 0 4.00574e-37 0 8.994e-37 0 1.93586e-36 0
9.11674 2.17315e-07 1.61719e-07 5.55955e-08 0.255829 0.385115 0 0 0 0 0 0 0 0 0 0 2.8026e-44 0 7.14662e-43 0 1.05252e-41 0 1.01489e-40 0 7.19753e-40 0 4.00148e-39 0 1.78169e-38 0 7.11408e-38 0 2.48842e-37 0 7.69383e-37 0 2.1825e-36 0 5.70832e-36 0 1.38268e-35 0 3.20149e-35 0 6.9099e-35 0 1.43264e-34 0
9.5847 2.59694e-07 1.85083e-07 7.46105e-08 0.287302 0.354355 0 0 0 0 0 0 0 0 9.3887e-44 0 4.84569e-42 0 1.07566e-40 0 1.39e-39 0 1.19992e-38 0 7.73359e-38 0 3.95405e-37 0 1.63676e-36 0 6.10823e-36 0 2.00988e-35 0 5.88103e-35 0 1.58547e-34 0 3.95662e-34 0 9.17866e-34 0 2.03989e-33 0 4.24047e-33 0 8.48436e-33 0
10.0767 2.90701e-07 1.97492e-07 9.32086e-08 0.320634 0.32074 0 0 0 0 0 0 9.24857e-44 0 1.44039e-41 0 6.16168e-40 0 1.17573e-38 0 1.34087e-37 0 1.04189e-36 0 6.13109e-36 0 2.89467e-35 0 1.11794e-34 0 3.91225e-34 0 1.21458e-33 0 3.37244e-33 0 8.66204e-33 0 2.06726e-32 0 4.60264e-32 0 9.83787e-32 0 1.97329e-31 0 3.81672e-31 0
10.5939 3.02643e-07 2.00036e-07 1.02608e-07 0.339039 0.289389 0 0 0 0 9.80909e-45 0 1.33768e-41 0 1.6337e-39 0 5.81786e-38 0 9.61275e-37 0 9.73453e-36 0 6.84344e-35 0 3.69328e-34 0 1.61645e-33 0 5.8443e-33 0 1.92388e-32 0 5.65141e-32 0 1.49287e-31 0 3.6618e-31 0 8.37578e-31 0 1.79335e-30 0 3.69362e-30 0 7.16116e-30 0 1.3412e-29 0
11.1377 3.05891e-07 1.98834e-07 1.07057e-07 0.349985 0.270222 0 0 0 0 1.57786e-42 0 1.47719e-39 0 1.42675e-37 0 4.26762e-36 0 6.14892e-35 0 5.56128e-34 0 3.55454e-33 0 1.76675e-32 0 7.19484e-32 0 2.44309e-31 0 7.5879e-31 0 2.11471e-30 0 5.32744e-30 0 1.25074e-29 0 2.7476e-29 0 5.66826e-29 0 1.12698e-28 0 2.11548e-28 0 3.84252e-28 0
11.7094 2.93546e-07 1.8953e-07 1.04016e-07 0.354342 0.257551 0 0 1.4013e-45 0 1.83151e-40 0 1.22778e-37 0 9.48686e-36 0 2.40383e-34 0 3.04052e-33 0 2.46962e-32 0 1.4418e-31 0 6.62667e-31 0 2.51981e-30 0 8.06054e-30 0 2.36873e-29 0 6.27932e-29 0 1.51213e-28 0 3.40518e-28 0 7.19845e-28 0 1.43344e-27 0 2.75598e-27 0 5.01667e-27 0 8.85047e-27 0
12.3105 2.6242e-07 1.70143e-07 9.22772e-08 0.351639 0.252967 0 0 1.33123e-43 0 1.56454e-38 0 7.63318e-36 0 4.7701e-34 0 1.03221e-32 0 1.15348e-31 0 8.45816e-31 0 4.53042e-30 0 1.93281e-29 0 6.88555e-29 0 2.08104e-28 0 5.80196e-28 0 1.46656e-27 0 3.38329e-27 0 7.32281e-27 0 1.49247e-26 0 2.8737e-26 0 5.35149e-26 0 9.46049e-26 0 1.62341e-25 0
12.9424 2.23279e-07 1.51037e-07 7.22422e-08 0.323551 0.248136 0 0 1.56847e-41 0 1.04519e-36 0 3.76928e-34 0 1.92487e-32 0 3.58469e-31 0 3.5605e-30 0 2.36882e-29 0 1.16898e-28 0 4.64619e-28 0 1.55564e-27 0 4.45448e-27 0 1.18128e-26 0 2.85373e-26 0 6.32016e-26 0 1.31733e-25 0 2.59313e-25 0 4.83579e-25 0 8.73609e-25 0 1.50202e-24 0 2.51037e-24 0
13.6067 1.99828e-07 1.41348e-07 5.848e-08 0.292651 0.230252 9.80909e-45 0 1.51992e-39 0 5.88859e-35 0 1.59305e-32 0 6.71389e-31 0 1.08397e-29 0 9.62486e-29 0 5.83759e-28 0 2.66478e-27 0 9.90124e-27 0 3.1252e-26 0 8.50079e-26 0 2.14948e-25 0 4.97385e-25 0 1.05962e-24 0 2.13079e-24 0 4.05798e-24 0 7.34075e-24 0 1.2884e-23 0 2.15733e-23 0 3.51632e-23 0
14.3051 1.81753e-07 1.34769e-07 4.69842e-08 0.258506 0.194719 1.34805e-42 0 1.18181e-37 0 2.73354e-33 0 5.62592e-31 0 1.9752e-29 0 2.78401e-28 0 2.22201e-27 0 1.23414e-26 0 5.23112e-26 0 1.82302e-25 0 5.44012e-25 0 1.4092e-24 0 3.40546e-24 0 7.5639e-24 0 1.55298e-23 0 3.01818e-23 0 5.56999e-23 0 9.78849e-23 0 1.67146e-22 0 2.72919e-22 0 4.34357e-22 0
