# 0.00035481 0 160 : grain size, compostion index, size index
# Heating and cooling timescale: 2.25162e-05 6.14682e+10
# Ratio of heating to cooling to determine stochastic cutoff: 100
# Equilibrium emission is recorded even for those grains in the stochastic regime.
# Emission spectrum was computed for: 
# Type: IRSF
# Scales: 0.25 0.5 1 1.5 2 2.5 3 3.5 4 4.5 5 5.5 6 6.5 7 7.5 8 8.5 9 9.5 10
# StochasticallyHeated: 0 0 0 0 0 0 0 0 0 0 0 0 0 0 0 0 0 0 0 0 0
# Temperature: -1
# Wavelength  CExt  CAbs  CSca  Albedo G EqEm1 StEm1 EqEm2 StEm2 EqEm3 StEm3 EqEm4 StEm4 EqEm5 StEm5 EqEm6 StEm6 EqEm7 StEm7 EqEm8 StEm8 EqEm9 StEm9 EqEm10 StEm10 EqEm11 StEm11 EqEm12 StEm12 EqEm13 StEm13 EqEm14 StEm14 EqEm15 StEm15 EqEm16 StEm16 EqEm17 StEm17 EqEm18 StEm18 EqEm19 StEm19 EqEm20 StEm20 EqEm21 StEm21
0.05 2.0367e-07 7.41424e-08 1.29528e-07 0.635968 0.00576547 0 0 0 0 0 0 0 0 0 0 0 0 0 0 0 0 0 0 0 0 0 0 0 0 0 0 0 0 0 0 0 0 0 0 0 0 0 0 0 0 0 0
0.0525665 2.25116e-07 8.19493e-08 1.43166e-07 0.635968 0.00637255 0 0 0 0 0 0 0 0 0 0 0 0 0 0 0 0 0 0 0 0 0 0 0 0 0 0 0 0 0 0 0 0 0 0 0 0 0 0 0 0 0 0
0.0552647 2.48819e-07 9.05782e-08 1.58241e-07 0.635968 0.00704355 0 0 0 0 0 0 0 0 0 0 0 0 0 0 0 0 0 0 0 0 0 0 0 0 0 0 0 0 0 0 0 0 0 0 0 0 0 0 0 0 0 0
0.0581015 2.75019e-07 1.00116e-07 1.74903e-07 0.635968 0.0077852 0 0 0 0 0 0 0 0 0 0 0 0 0 0 0 0 0 0 0 0 0 0 0 0 0 0 0 0 0 0 0 0 0 0 0 0 0 0 0 0 0 0
0.0610839 3.03977e-07 1.10657e-07 1.9332e-07 0.635968 0.00860494 0 0 0 0 0 0 0 0 0 0 0 0 0 0 0 0 0 0 0 0 0 0 0 0 0 0 0 0 0 0 0 0 0 0 0 0 0 0 0 0 0 0
0.0642193 3.35984e-07 1.22309e-07 2.13675e-07 0.635968 0.009511 0 0 0 0 0 0 0 0 0 0 0 0 0 0 0 0 0 0 0 0 0 0 0 0 0 0 0 0 0 0 0 0 0 0 0 0 0 0 0 0 0 0
0.0675157 3.71362e-07 1.35187e-07 2.36174e-07 0.635968 0.0105125 0 0 0 0 0 0 0 0 0 0 0 0 0 0 0 0 0 0 0 0 0 0 0 0 0 0 0 0 0 0 0 0 0 0 0 0 0 0 0 0 0 0
0.0709813 4.10464e-07 1.49422e-07 2.61042e-07 0.635968 0.0116194 0 0 0 0 0 0 0 0 0 0 0 0 0 0 0 0 0 0 0 0 0 0 0 0 0 0 0 0 0 0 0 0 0 0 0 0 0 0 0 0 0 0
0.0746248 4.53684e-07 1.65155e-07 2.88529e-07 0.635968 0.0128428 0 0 0 0 0 0 0 0 0 0 0 0 0 0 0 0 0 0 0 0 0 0 0 0 0 0 0 0 0 0 0 0 0 0 0 0 0 0 0 0 0 0
0.0784553 5.01455e-07 1.82546e-07 3.18909e-07 0.635968 0.0141951 0 0 0 0 0 0 0 0 0 0 0 0 0 0 0 0 0 0 0 0 0 0 0 0 0 0 0 0 0 0 0 0 0 0 0 0 0 0 0 0 0 0
0.0824824 5.54255e-07 2.01767e-07 3.52489e-07 0.635968 0.0156898 0 0 0 0 0 0 0 0 0 0 0 0 0 0 0 0 0 0 0 0 0 0 0 0 0 0 0 0 0 0 0 0 0 0 0 0 0 0 0 0 0 0
0.0867162 6.12616e-07 2.23012e-07 3.89604e-07 0.635968 0.0173419 0 0 0 0 0 0 0 0 0 0 0 0 0 0 0 0 0 0 0 0 0 0 0 0 0 0 0 0 0 0 0 0 0 0 0 0 0 0 0 0 0 0
0.0911674 6.77122e-07 2.46494e-07 4.30628e-07 0.635968 0.0191679 0 0 0 0 0 0 0 0 0 0 0 0 0 0 0 0 0 0 0 0 0 0 0 0 0 0 0 0 0 0 0 0 0 0 0 0 0 0 0 0 0 0
0.095847 7.48419e-07 2.72449e-07 4.75971e-07 0.635968 0.0211862 0 0 0 0 0 0 0 0 0 0 0 0 0 0 0 0 0 0 0 0 0 0 0 0 0 0 0 0 0 0 0 0 0 0 0 0 0 0 0 0 0 0
0.100767 8.14674e-07 2.98937e-07 5.15737e-07 0.633059 0.0235692 0 0 0 0 0 0 0 0 0 0 0 0 0 0 0 0 0 0 0 0 0 0 0 0 0 0 0 0 0 0 0 0 0 0 0 0 0 0 0 0 0 0
0.105939 8.14742e-07 3.12211e-07 5.02532e-07 0.616798 0.0256046 0 0 0 0 0 0 0 0 0 0 0 0 0 0 0 0 0 0 0 0 0 0 0 0 0 0 0 0 0 0 0 0 0 0 0 0 0 0 0 0 0 0
0.111377 8.15327e-07 3.15128e-07 5.00199e-07 0.613495 0.0289403 0 0 0 0 0 0 0 0 0 0 0 0 0 0 0 0 0 0 0 0 0 0 0 0 0 0 0 0 0 0 0 0 0 0 0 0 0 0 0 0 0 0
0.117094 8.15375e-07 3.26248e-07 4.89127e-07 0.59988 0.0274507 0 0 0 0 0 0 0 0 0 0 0 0 0 0 0 0 0 0 0 0 0 0 0 0 0 0 0 0 0 0 0 0 0 0 0 0 0 0 0 0 0 0
0.123105 8.1568e-07 3.38991e-07 4.76689e-07 0.584406 0.0236555 0 0 0 0 0 0 0 0 0 0 0 0 0 0 0 0 0 0 0 0 0 0 0 0 0 0 0 0 0 0 0 0 0 0 0 0 0 0 0 0 0 0
0.129424 8.16249e-07 3.48605e-07 4.67644e-07 0.572918 0.0199126 0 0 0 0 0 0 0 0 0 0 0 0 0 0 0 0 0 0 0 0 0 0 0 0 0 0 0 0 0 0 0 0 0 0 0 0 0 0 0 0 0 0
0.136067 8.1689e-07 3.56143e-07 4.60747e-07 0.564025 0.0168557 0 0 0 0 0 0 0 0 0 0 0 0 0 0 0 0 0 0 0 0 0 0 0 0 0 0 0 0 0 0 0 0 0 0 0 0 0 0 0 0 0 0
0.143051 8.17475e-07 3.62385e-07 4.5509e-07 0.556702 0.0143876 0 0 0 0 0 0 0 0 0 0 0 0 0 0 0 0 0 0 0 0 0 0 0 0 0 0 0 0 0 0 0 0 0 0 0 0 0 0 0 0 0 0
0.150394 8.17929e-07 3.67469e-07 4.5046e-07 0.550732 0.0122986 0 0 0 0 0 0 0 0 0 0 0 0 0 0 0 0 0 0 0 0 0 0 0 0 0 0 0 0 0 0 0 0 0 0 0 0 0 0 0 0 0 0
0.158114 8.18095e-07 3.70755e-07 4.47341e-07 0.546807 0.01055 0 0 0 0 0 0 0 0 0 0 0 0 0 0 0 0 0 0 0 0 0 0 0 0 0 0 0 0 0 0 0 0 0 0 0 0 0 0 0 0 0 0
0.16623 8.1798e-07 3.70598e-07 4.47382e-07 0.546935 0.00908216 0 0 0 0 0 0 0 0 0 0 0 0 0 0 0 0 0 0 0 0 0 0 0 0 0 0 0 0 0 0 0 0 0 0 0 0 0 0 0 0 0 0
0.174762 8.17997e-07 3.65356e-07 4.5264e-07 0.553352 0.00782097 0 0 0 0 0 0 0 0 0 0 0 0 0 0 0 0 0 0 0 0 0 0 0 0 0 0 0 0 0 0 0 0 0 0 0 0 0 0 0 0 0 0
0.183733 8.18774e-07 3.53238e-07 4.65536e-07 0.568577 0.00667218 0 0 0 0 0 0 0 0 0 0 0 0 0 0 0 0 0 0 0 0 0 0 0 0 0 0 0 0 0 0 0 0 0 0 0 0 0 0 0 0 0 0
0.193164 8.20929e-07 3.32312e-07 4.88617e-07 0.5952 0.00556038 0 0 0 0 0 0 0 0 0 0 0 0 0 0 0 0 0 0 0 0 0 0 0 0 0 0 0 0 0 0 0 0 0 0 0 0 0 0 0 0 0 0
0.203079 8.24201e-07 3.06306e-07 5.17895e-07 0.62836 0.00446034 0 0 0 0 0 0 0 0 0 0 0 0 0 0 0 0 0 0 0 0 0 0 0 0 0 0 0 0 0 0 0 0 0 0 0 0 0 0 0 0 0 0
0.213503 8.28199e-07 2.82465e-07 5.45735e-07 0.658941 0.00342932 0 0 0 0 0 0 0 0 0 0 0 0 0 0 0 0 0 0 0 0 0 0 0 0 0 0 0 0 0 0 0 0 0 0 0 0 0 0 0 0 0 0
0.224463 8.32581e-07 2.65795e-07 5.66786e-07 0.680758 0.00254317 0 0 0 0 0 0 0 0 0 0 0 0 0 0 0 0 0 0 0 0 0 0 0 0 0 0 0 0 0 0 0 0 0 0 0 0 0 0 0 0 0 0
0.235984 8.37022e-07 2.57288e-07 5.79733e-07 0.692614 0.00182186 0 0 0 0 0 0 0 0 0 0 0 0 0 0 0 0 0 0 0 0 0 0 0 0 0 0 0 0 0 0 0 0 0 0 0 0 0 0 0 0 0 0
0.248097 8.40989e-07 2.55696e-07 5.85293e-07 0.695958 0.00138916 0 0 0 0 0 0 0 0 0 0 0 0 0 0 0 0 0 0 0 0 0 0 0 0 0 0 0 0 0 0 0 0 0 0 0 0 0 0 0 0 0 0
0.260832 8.43396e-07 2.60056e-07 5.8334e-07 0.691656 0.00141961 0 0 0 0 0 0 0 0 0 0 0 0 0 0 0 0 0 0 0 0 0 0 0 0 0 0 0 0 0 0 0 0 0 0 0 0 0 0 0 0 0 0
0.274221 8.4343e-07 2.69576e-07 5.73853e-07 0.680381 0.00187131 0 0 0 0 0 0 0 0 0 0 0 0 0 0 0 0 0 0 0 0 0 0 0 0 0 0 0 0 0 0 0 0 0 0 0 0 0 0 0 0 0 0
0.288297 8.42084e-07 2.8233e-07 5.59755e-07 0.664725 0.00251556 0 0 0 0 0 0 0 0 0 0 0 0 0 0 0 0 0 0 0 0 0 0 0 0 0 0 0 0 0 0 0 0 0 0 0 0 0 0 0 0 0 0
0.303095 8.41192e-07 2.95081e-07 5.4611e-07 0.649211 0.0028362 0 0 0 0 0 0 0 0 0 0 0 0 0 0 0 0 0 0 0 0 0 0 0 0 0 0 0 0 0 0 0 0 0 0 0 0 0 0 0 0 0 0
0.318653 8.41288e-07 3.05639e-07 5.35649e-07 0.636701 0.00297223 0 0 0 0 0 0 0 0 0 0 0 0 0 0 0 0 0 0 0 0 0 0 0 0 0 0 0 0 0 0 0 0 0 0 0 0 0 0 0 0 0 0
0.335009 8.42164e-07 3.13439e-07 5.28725e-07 0.627817 0.00293231 0 0 0 0 0 0 0 0 0 0 0 0 0 0 0 0 0 0 0 0 0 0 0 0 0 0 0 0 0 0 0 0 0 0 0 0 0 0 0 0 0 0
0.352205 8.43502e-07 3.18766e-07 5.24736e-07 0.622092 0.00278811 0 0 0 0 0 0 0 0 0 0 0 0 0 0 0 0 0 0 0 0 0 0 0 0 0 0 0 0 0 0 0 0 0 0 0 0 0 0 0 0 0 0
0.370284 8.45135e-07 3.22139e-07 5.22995e-07 0.618831 0.00261033 0 0 0 0 0 0 0 0 0 0 0 0 0 0 0 0 0 0 0 0 0 0 0 0 0 0 0 0 0 0 0 0 0 0 0 0 0 0 0 0 0 0
0.389291 8.46962e-07 3.24095e-07 5.22867e-07 0.617344 0.00243645 0 0 0 0 0 0 0 0 0 0 0 0 0 0 0 0 0 0 0 0 0 0 0 0 0 0 0 0 0 0 0 0 0 0 0 0 0 0 0 0 0 0
0.409273 8.48909e-07 3.25192e-07 5.23717e-07 0.61693 0.00226652 0 0 0 0 0 0 0 0 0 0 0 0 0 0 0 0 0 0 0 0 0 0 0 0 0 0 0 0 0 0 0 0 0 0 0 0 0 0 0 0 0 0
0.430281 8.50866e-07 3.25879e-07 5.24987e-07 0.617003 0.00210471 0 0 0 0 0 0 0 0 0 0 0 0 0 0 0 0 0 0 0 0 0 0 0 0 0 0 0 0 0 0 0 0 0 0 0 0 0 0 0 0 0 0
0.452368 8.52888e-07 3.26484e-07 5.26404e-07 0.617202 0.00193723 0 0 0 0 0 0 0 0 0 0 0 0 0 0 0 0 0 0 0 0 0 0 0 0 0 0 0 0 0 0 0 0 0 0 0 0 0 0 0 0 0 0
0.475588 8.54883e-07 3.27164e-07 5.27719e-07 0.6173 0.00177642 0 0 0 0 0 0 0 0 0 0 0 0 0 0 0 0 0 0 0 0 0 0 0 0 0 0 0 0 0 0 0 0 0 0 0 0 0 0 0 0 0 0
0.5 8.56945e-07 3.27977e-07 5.28968e-07 0.617271 0.00162159 0 0 0 0 0 0 0 0 0 0 0 0 0 0 0 0 0 0 0 0 0 0 0 0 0 0 0 0 0 0 0 0 0 0 0 0 0 0 0 0 0 0
0.525665 8.59039e-07 3.28903e-07 5.30136e-07 0.617127 0.0014751 0 0 0 0 0 0 0 0 0 0 0 0 0 0 0 0 0 0 0 0 0 0 0 0 0 0 0 0 0 0 0 0 0 0 0 0 0 0 0 0 0 0
0.552648 8.61223e-07 3.29884e-07 5.31339e-07 0.616958 0.00134175 0 0 0 0 0 0 0 0 0 0 0 0 0 0 0 0 0 0 0 0 0 0 0 0 0 0 0 0 0 0 0 0 0 0 0 0 0 0 0 0 0 0
0.581015 8.63516e-07 3.30872e-07 5.32644e-07 0.616832 0.00121775 0 0 0 0 0 0 0 0 0 0 0 0 0 0 0 0 0 0 0 0 0 0 0 0 0 0 0 0 0 0 0 0 0 0 0 0 0 0 0 0 0 0
0.610839 8.65894e-07 3.318e-07 5.34094e-07 0.616812 0.00110516 0 0 0 0 0 0 0 0 0 0 0 0 0 0 0 0 0 0 0 0 0 0 0 0 0 0 0 0 0 0 0 0 0 0 0 0 0 0 0 0 0 0
0.642193 8.68401e-07 3.32633e-07 5.35769e-07 0.61696 0.00100302 0 0 0 0 0 0 0 0 0 0 0 0 0 0 0 0 0 0 0 0 0 0 0 0 0 0 0 0 0 0 0 0 0 0 0 0 0 0 0 0 0 0
0.675157 8.71018e-07 3.33335e-07 5.37684e-07 0.617305 0.000910957 0 0 0 0 0 0 0 0 0 0 0 0 0 0 0 0 0 0 0 0 0 0 0 0 0 0 0 0 0 0 0 0 0 0 0 0 0 0 0 0 0 0
0.709813 8.73748e-07 3.33889e-07 5.39859e-07 0.617866 0.00082817 0 0 0 0 0 0 0 0 0 0 0 0 0 0 0 0 0 0 0 0 0 0 0 0 0 0 0 0 0 0 0 0 0 0 0 0 0 0 0 0 0 0
0.746248 8.76593e-07 3.34297e-07 5.42296e-07 0.618641 0.000754183 0 0 0 0 0 0 0 0 0 0 0 0 0 0 0 0 0 0 0 0 0 0 0 0 0 0 0 0 0 0 0 0 0 0 0 0 0 0 0 0 0 0
0.784553 8.79547e-07 3.34549e-07 5.44998e-07 0.619635 0.000686995 0 0 0 0 0 0 0 0 0 0 0 0 0 0 0 0 0 0 0 0 0 0 0 0 0 0 0 0 0 0 0 0 0 0 0 0 0 0 0 0 0 0
0.824824 8.82599e-07 3.34671e-07 5.47928e-07 0.620812 0.000626788 0 0 0 0 0 0 0 0 0 0 0 0 0 0 0 0 0 0 0 0 0 0 0 0 0 0 0 0 0 0 0 0 0 0 0 0 0 0 0 0 0 0
0.867162 8.85714e-07 3.34668e-07 5.51047e-07 0.622149 0.000572518 0 0 0 0 0 0 0 0 0 0 0 0 0 0 0 0 0 0 0 0 0 0 0 0 0 0 0 0 0 0 0 0 0 0 0 0 0 0 0 0 0 0
0.911674 8.88898e-07 3.34547e-07 5.54351e-07 0.623638 0.000523427 0 0 0 0 0 0 0 0 0 0 0 0 0 0 0 0 0 0 0 0 0 0 0 0 0 0 0 0 0 0 0 0 0 0 0 0 0 0 0 0 0 0
0.95847 8.92177e-07 3.34348e-07 5.57829e-07 0.625245 0.00047944 0 0 0 0 0 0 0 0 0 0 0 0 0 0 0 0 0 0 0 0 0 0 0 0 0 0 0 0 0 0 0 0 0 0 0 0 0 0 0 0 0 0
1.00767 8.9546e-07 3.3406e-07 5.614e-07 0.62694 0.0004395 0 0 0 0 0 0 0 0 0 0 0 0 0 0 0 0 0 0 0 0 0 0 0 0 0 0 0 0 0 0 0 0 0 0 0 0 0 0 0 0 0 0
1.05939 8.98769e-07 3.33713e-07 5.65056e-07 0.6287 0.000403275 0 0 0 0 0 0 0 0 0 0 0 0 0 0 0 0 0 0 0 0 0 0 0 0 0 0 0 0 0 0 0 0 0 0 0 0 0 0 0 0 0 0
1.11377 9.02094e-07 3.33327e-07 5.68767e-07 0.630497 0.000370298 0 0 0 0 0 0 0 0 0 0 0 0 0 0 0 0 0 0 0 0 0 0 0 0 0 0 0 0 0 0 0 0 0 0 0 0 0 0 0 0 0 0
1.17094 9.0542e-07 3.32911e-07 5.7251e-07 0.632314 0.000339515 0 0 0 0 0 0 0 0 0 0 0 0 0 0 0 0 0 0 0 0 0 0 0 0 0 0 0 0 0 0 0 0 0 0 0 0 0 0 0 0 0 0
1.23105 9.08723e-07 3.32465e-07 5.76258e-07 0.63414 0.000311294 0 0 0 0 0 0 0 0 0 0 0 0 0 0 0 0 0 0 0 0 0 0 0 0 0 0 0 0 0 0 0 0 0 0 0 0 0 0 0 0 0 0
1.29424 9.12005e-07 3.32011e-07 5.79994e-07 0.635955 0.000285362 0 0 0 0 0 0 0 0 0 0 0 0 0 0 0 0 0 0 0 0 0 0 0 0 0 0 0 0 0 0 0 0 0 0 0 0 0 0 0 0 0 0
1.36067 9.15263e-07 3.31563e-07 5.83699e-07 0.63774 0.000261742 0 0 0 0 0 0 0 0 0 0 0 0 0 0 0 0 0 0 0 0 0 0 0 0 0 0 0 0 0 0 0 0 0 0 0 0 0 0 0 0 0 0
1.43051 9.18475e-07 3.31117e-07 5.87358e-07 0.639493 0.000240209 0 0 0 0 0 0 0 0 0 0 0 0 0 0 0 0 0 0 0 0 0 0 0 0 0 0 0 0 0 0 0 0 0 0 0 0 0 0 0 0 0 0
1.50394 9.21637e-07 3.30698e-07 5.9094e-07 0.641185 0.000220279 0 0 0 0 0 0 0 0 0 0 0 0 0 0 0 0 0 0 0 0 0 0 0 0 0 0 0 0 0 0 0 0 0 0 0 0 0 0 0 0 0 0
1.58114 9.24766e-07 3.30302e-07 5.94464e-07 0.642827 0.000201732 0 0 0 0 0 0 0 0 0 0 0 0 0 0 0 0 0 0 0 0 0 0 0 0 0 0 0 0 0 0 0 0 0 0 0 0 0 0 0 0 0 0
1.6623 9.27851e-07 3.29941e-07 5.9791e-07 0.644403 0.000184534 0 0 0 0 0 0 0 0 0 0 0 0 0 0 0 0 0 0 0 0 0 0 0 0 0 0 0 0 0 0 0 0 0 0 0 0 0 0 0 0 0 0
1.74763 9.30884e-07 3.29631e-07 6.01253e-07 0.645895 0.000169005 0 0 0 0 0 0 0 0 0 0 0 0 0 0 0 0 0 0 0 0 0 0 0 0 0 0 0 0 0 0 0 0 0 0 0 0 0 0 0 0 0 0
1.83733 9.3391e-07 3.29375e-07 6.04534e-07 0.647316 0.000154804 0 0 0 0 0 0 0 0 0 0 0 0 0 0 0 0 0 0 0 0 0 0 0 0 0 0 0 0 0 0 0 0 0 0 0 0 0 0 0 0 0 0
1.93164 9.36879e-07 3.29178e-07 6.077e-07 0.648644 0.000141793 0 0 0 0 0 0 0 0 0 0 0 0 0 0 0 0 0 0 0 0 0 0 0 0 0 0 0 0 0 0 0 0 0 0 0 0 0 0 0 0 0 0
2.03079 9.39834e-07 3.2906e-07 6.10774e-07 0.649875 0.000129725 0 0 0 0 0 0 0 0 0 0 0 0 0 0 0 0 0 0 0 0 0 0 0 0 0 0 0 0 0 0 0 0 0 0 0 0 0 0 0 0 0 0
2.13503 9.42787e-07 3.29025e-07 6.13763e-07 0.651009 0.000118657 0 0 0 0 0 0 0 0 0 0 0 0 0 0 0 0 0 0 0 0 0 0 0 0 0 0 0 0 0 0 0 0 0 0 0 0 0 0 0 0 0 0
2.24463 9.45705e-07 3.29079e-07 6.16626e-07 0.652028 0.000108569 0 0 0 0 0 0 0 0 0 0 0 0 0 0 0 0 0 0 0 0 0 0 0 0 0 0 0 0 0 0 0 0 0 0 0 0 0 0 0 0 0 0
2.35984 9.48669e-07 3.29244e-07 6.19424e-07 0.652941 9.92926e-05 0 0 0 0 0 0 0 0 0 0 0 0 0 0 0 0 0 0 0 0 0 0 0 0 0 0 0 0 0 0 0 0 0 0 0 0 0 0 0 0 0 0
2.48097 9.51604e-07 3.2951e-07 6.22094e-07 0.653732 9.07218e-05 0 0 0 0 0 0 0 0 0 0 0 0 0 0 0 0 0 0 0 0 0 0 0 0 0 0 0 0 0 0 0 0 0 0 0 0 0 0 0 0 0 0
2.60832 9.54594e-07 3.29904e-07 6.2469e-07 0.654404 8.27967e-05 0 0 0 0 0 0 0 0 0 0 0 0 0 0 0 0 0 0 0 0 0 0 0 0 0 0 0 0 0 0 0 0 0 0 0 0 0 0 0 0 0 0
2.74221 9.57615e-07 3.30432e-07 6.27183e-07 0.654943 7.55862e-05 0 0 0 0 0 0 0 0 0 0 0 0 0 0 0 0 0 0 0 0 0 0 0 0 0 0 0 0 0 0 0 0 0 0 0 0 0 0 0 0 0 0
2.88297 9.60694e-07 3.31084e-07 6.29611e-07 0.655371 6.90729e-05 0 0 0 0 0 0 0 0 0 0 0 0 0 0 0 0 0 0 0 0 0 0 0 0 0 0 0 0 0 0 0 0 0 0 0 0 0 0 0 0 0 0
3.03095 9.63848e-07 3.31921e-07 6.31927e-07 0.655629 6.31538e-05 0 0 0 0 0 0 0 0 0 0 0 0 0 0 0 0 0 0 0 0 0 0 0 0 0 0 0 0 0 0 0 0 0 0 0 0 0 0 0 0 0 0
3.18653 9.66993e-07 3.32831e-07 6.34162e-07 0.655808 5.76567e-05 0 0 0 0 0 0 0 0 0 0 0 0 0 0 0 0 0 0 0 0 0 0 0 0 0 0 0 0 0 0 0 0 0 0 0 0 0 0 0 0 0 0
3.35009 9.70377e-07 3.34004e-07 6.36374e-07 0.6558 5.2603e-05 0 0 0 0 0 0 0 0 0 0 0 0 0 0 0 0 0 0 0 0 0 0 0 0 0 0 0 0 0 0 0 0 0 0 0 0 0 0 0 0 0 0
3.52205 9.73707e-07 3.35302e-07 6.38405e-07 0.655644 4.80102e-05 0 0 0 0 0 0 0 0 0 0 0 0 0 0 0 0 0 0 0 0 0 0 0 0 0 0 0 0 0 0 0 0 0 0 0 0 0 0 0 0 0 0
3.70284 9.77125e-07 3.36677e-07 6.40448e-07 0.655441 4.38066e-05 0 0 0 0 0 0 0 0 0 0 0 0 0 0 0 0 0 0 0 0 0 0 0 0 0 0 0 0 0 0 0 0 0 0 0 0 0 0 0 0 0 0
3.89291 9.80914e-07 3.38428e-07 6.42485e-07 0.654987 3.9926e-05 0 0 0 0 0 0 0 0 0 0 0 0 0 0 0 0 0 0 0 0 0 0 0 0 0 0 0 0 0 0 0 0 0 0 0 0 0 0 0 0 0 0
4.09273 9.84531e-07 3.40291e-07 6.44241e-07 0.654363 3.62643e-05 0 0 0 0 0 0 0 0 0 0 0 0 0 0 0 0 0 0 0 0 0 0 0 0 0 0 0 0 0 0 0 0 0 0 0 0 0 0 0 0 0 0
4.30281 9.88162e-07 3.42125e-07 6.46037e-07 0.653776 3.29535e-05 0 0 0 0 0 0 0 0 0 0 0 0 0 0 0 0 0 0 0 0 0 0 0 0 0 0 0 0 0 0 0 0 0 0 0 0 0 0 0 0 0 0
4.52368 9.92426e-07 3.44391e-07 6.48035e-07 0.652981 2.99416e-05 0 0 0 0 0 0 0 0 0 0 0 0 0 0 0 0 0 0 0 0 0 0 0 0 0 0 0 0 0 0 0 0 0 0 0 0 0 0 0 0 0 0
4.75588 9.96733e-07 3.47055e-07 6.49678e-07 0.651807 2.71796e-05 0 0 0 0 0 0 0 0 0 0 0 0 0 0 0 0 0 0 0 0 0 0 0 0 0 0 0 0 0 0 0 0 0 0 0 0 0 0 0 0 0 0
5 1.00056e-06 3.4954e-07 6.51021e-07 0.650656 2.45398e-05 0 0 0 0 0 0 0 0 0 0 0 0 0 0 0 0 0 0 0 0 0 0 0 0 0 0 0 0 0 0 0 0 0 0 0 0 0 0 0 0 0 0
5.25665 1.00468e-06 3.5199e-07 6.52687e-07 0.649649 2.21678e-05 0 0 0 0 0 0 0 0 0 0 0 0 0 0 0 0 0 0 0 0 0 0 0 0 0 0 0 0 0 0 0 0 0 0 0 0 0 0 0 0 0 0
5.52648 1.00981e-06 3.55097e-07 6.54714e-07 0.648353 2.00489e-05 0 0 0 0 0 0 0 0 0 0 0 0 0 0 0 0 0 0 0 0 0 0 0 0 0 0 0 0 0 0 0 0 0 0 0 0 0 0 0 0 0 0
5.81015 1.01515e-06 3.58791e-07 6.56362e-07 0.646565 1.8115e-05 0 0 0 0 0 0 0 0 0 0 0 0 0 0 0 0 0 0 0 0 0 0 0 0 0 0 0 0 0 0 0 0 0 0 0 0 0 0 0 0 0 0
6.10839 1.01945e-06 3.62078e-07 6.57371e-07 0.64483 1.63023e-05 0 0 0 0 0 0 0 0 0 0 0 0 0 0 0 0 0 0 0 0 0 0 0 0 0 0 0 0 0 0 0 0 0 0 0 0 0 0 0 0 0 0
6.42193 1.02351e-06 3.66341e-07 6.57164e-07 0.642072 1.48144e-05 0 0 0 0 0 0 0 0 0 0 0 0 0 0 0 0 0 0 0 0 0 0 0 0 0 0 0 0 0 0 0 0 0 0 0 0 0 0 0 0 0 0
6.75157 1.02836e-06 3.69002e-07 6.5936e-07 0.641175 1.32279e-05 0 0 0 0 0 0 0 0 0 0 0 0 0 0 0 0 0 0 0 0 0 0 0 0 0 0 0 0 0 0 0 0 0 0 0 0 0 0 0 0 0 0
7.09813 1.03499e-06 3.73208e-07 6.61783e-07 0.639409 1.18448e-05 0 0 0 0 0 0 0 0 0 0 0 0 0 0 0 0 0 0 0 0 0 0 0 0 0 0 0 0 0 0 0 0 0 0 0 0 0 0 0 0 0 0
7.46248 1.04218e-06 3.78463e-07 6.63716e-07 0.636854 1.05694e-05 0 0 0 0 0 0 0 0 0 0 0 0 0 0 0 0 0 0 0 0 0 0 0 0 0 0 0 0 0 0 0 0 0 0 0 0 0 0 0 0 0 0
7.84553 1.04796e-06 3.83817e-07 6.64144e-07 0.633749 9.34187e-06 0 0 0 0 0 0 0 0 0 0 0 0 0 0 0 0 0 0 0 0 0 0 0 0 0 0 0 0 0 0 0 0 0 0 0 0 0 0 0 0 0 0
8.24824 1.05168e-06 3.88349e-07 6.6333e-07 0.630734 8.19911e-06 0 0 0 0 0 0 0 0 0 0 0 0 0 0 0 0 0 0 0 0 0 0 0 0 0 0 0 0 0 0 0 0 0 0 0 0 0 0 0 0 0 0
8.67162 1.05446e-06 3.91959e-07 6.62499e-07 0.628284 7.20916e-06 0 0 0 0 0 0 0 0 0 0 0 0 0 0 0 0 0 0 0 0 0 0 0 0 0 0 0 0 0 0 0 0 0 0 0 0 0 0 0 0 0 0
9.11674 1.05861e-06 3.95484e-07 6.63124e-07 0.626411 6.32492e-06 0 0 0 0 0 0 0 0 0 0 0 0 0 0 0 0 0 0 0 0 0 0 0 0 0 0 0 0 0 0 0 0 0 0 0 0 0 0 0 0 0 0
9.5847 1.06612e-06 4.00135e-07 6.65984e-07 0.624681 5.52644e-06 0 0 0 0 0 0 0 0 0 0 0 0 0 0 0 0 0 0 0 0 0 0 0 0 0 0 0 0 0 0 0 0 0 0 1.4013e-45 0 4.2039e-45 0 9.80909e-45 0 2.8026e-44 0
10.0767 1.07703e-06 4.0666e-07 6.70365e-07 0.622423 4.78203e-06 0 0 0 0 0 0 0 0 0 0 0 0 0 0 0 0 0 0 0 0 0 0 0 0 0 0 1.4013e-45 0 8.40779e-45 0 2.8026e-44 0 8.82818e-44 0 2.60642e-43 0 7.03452e-43 0 1.77825e-42 0 4.4281e-42 0
10.5939 1.08848e-06 4.14697e-07 6.73784e-07 0.619013 4.06995e-06 0 0 0 0 0 0 0 0 0 0 0 0 0 0 0 0 0 0 0 0 2.8026e-45 0 1.96182e-44 0 9.3887e-44 0 3.74147e-43 0 1.38168e-42 0 4.51779e-42 0 1.34651e-41 0 3.75646e-41 0 9.63561e-41 0 2.32997e-40 0 5.54794e-40 0
11.1377 1.09706e-06 4.23903e-07 6.73161e-07 0.613602 3.40803e-06 0 0 0 0 0 0 0 0 0 0 0 0 0 0 1.4013e-45 0 1.12104e-44 0 9.66896e-44 0 6.08164e-43 0 3.1333e-42 0 1.40046e-41 0 5.24366e-41 0 1.81687e-40 0 5.60624e-40 0 1.58399e-39 0 4.20303e-39 0 1.02965e-38 0 2.38472e-38 0 5.4428e-38 0
11.7094 1.09712e-06 4.23356e-07 6.73768e-07 0.614122 2.82232e-06 0 0 0 0 0 0 0 0 0 0 0 0 1.12104e-44 0 1.8357e-43 0 1.84691e-42 0 1.38953e-41 0 8.03434e-41 0 3.82326e-40 0 1.58872e-39 0 5.57715e-39 0 1.81864e-38 0 5.31134e-38 0 1.42647e-37 0 3.60893e-37 0 8.46266e-37 0 1.88125e-36 0 4.12414e-36 0
12.3105 1.09773e-06 4.34124e-07 6.63607e-07 0.604526 2.20615e-06 0 0 0 0 0 0 0 0 1.4013e-45 0 7.84727e-44 0 1.91978e-42 0 2.61048e-41 0 2.34659e-40 0 1.59937e-39 0 8.48814e-39 0 3.74299e-38 0 1.45087e-37 0 4.79033e-37 0 1.47448e-36 0 4.08667e-36 0 1.04587e-35 0 2.5288e-35 0 5.68814e-35 0 1.2161e-34 0 2.56575e-34 0
12.9424 1.09434e-06 4.39233e-07 6.55111e-07 0.598633 1.60871e-06 0 0 0 0 0 0 1.4013e-45 0 2.4803e-43 0 1.13968e-41 0 2.37524e-40 0 2.84334e-39 0 2.29599e-38 0 1.42491e-37 0 6.97045e-37 0 2.85893e-36 0 1.03726e-35 0 3.2307e-35 0 9.41302e-35 0 2.48224e-34 0 6.06775e-34 0 1.40521e-33 0 3.03816e-33 0 6.25891e-33 0 1.27324e-32 0
13.6067 1.09034e-06 4.42399e-07 6.47945e-07 0.594257 1.1081e-06 0 0 0 0 0 0 2.4803e-43 0 3.33943e-41 0 1.27184e-39 0 2.2854e-38 0 2.42351e-37 0 1.76724e-36 0 1.00324e-35 0 4.54166e-35 0 1.73873e-34 0 5.92363e-34 0 1.74545e-33 0 4.82686e-33 0 1.214e-32 0 2.84087e-32 0 6.31478e-32 0 1.31485e-31 0 2.61481e-31 0 5.13801e-31 0
14.3051 1.08883e-06 4.44516e-07 6.44318e-07 0.591751 6.74396e-07 0 0 0 0 3.08286e-44 0 3.29039e-41 0 3.48599e-39 0 1.11149e-37 0 1.73454e-36 0 1.63908e-35 0 1.08473e-34 0 5.65733e-34 0 2.37905e-33 0 8.53012e-33 0 2.73728e-32 0 7.65112e-32 0 2.01332e-31 0 4.84074e-31 0 1.08672e-30 0 2.3232e-30 0 4.66716e-30 0 8.97509e-30 0 1.70636e-29 0
15.0394 1.09477e-06 4.47546e-07 6.47225e-07 0.591197 2.84373e-07 0 0 0 0 4.51358e-42 0 3.40314e-39 0 2.87138e-37 0 7.7314e-36 0 1.05506e-34 0 8.93447e-34 0 5.39164e-33 0 2.59412e-32 0 1.01701e-31 0 3.42611e-31 0 1.03859e-30 0 2.76091e-30 0 6.9299e-30 0 1.59633e-29 0 3.44492e-29 0 7.09642e-29 0 1.37789e-28 0 2.56646e-28 0 4.72872e-28 0
15.8114 1.11133e-06 4.52804e-07 6.58522e-07 0.592555 -8.11128e-08 0 0 4.2039e-45 0 5.10797e-40 0 2.78686e-37 0 1.89357e-35 0 4.34132e-34 0 5.21464e-33 0 3.97848e-32 0 2.19915e-31 0 9.79969e-31 0 3.59401e-30 0 1.14104e-29 0 3.27663e-29 0 8.30437e-29 0 1.99281e-28 0 4.40727e-28 0 9.16043e-28 0 1.82159e-27 0 3.42418e-27 0 6.18713e-27 0 1.10647e-26 0
16.623 1.1366e-06 4.60222e-07 6.76379e-07 0.595089 -4.4917e-07 0 0 5.94151e-43 0 4.5564e-38 0 1.82753e-35 0 1.01059e-33 0 1.98838e-32 0 2.11539e-31 0 1.4615e-30 0 7.43158e-30 0 3.07861e-29 0 1.05966e-28 0 3.17975e-28 0 8.67263e-28 0 2.10044e-27 0 4.82959e-27 0 1.0275e-26 0 2.06071e-26 0 3.96256e-26 0 7.22268e-26 0 1.2679e-25 0 2.204e-25 0
