# 2.58886e-07 1 19 : grain size, compostion index, size index
# Heating and cooling timescale: 4304.23 10.9274
# Ratio of heating to cooling to determine stochastic cutoff: 100
# Equilibrium emission is recorded even for those grains in the stochastic regime.
# Emission spectrum was computed for: 
# Type: IRSF
# Scales: 0.25 0.5 1 1.5 2 2.5 3 3.5 4 4.5 5 5.5 6 6.5 7 7.5 8 8.5 9 9.5 10
# StochasticallyHeated: 1 1 1 1 1 1 1 1 1 1 1 1 1 1 1 1 1 1 1 1 1
# Temperature: -1
# Wavelength  CExt  CAbs  CSca  Albedo G EqEm1 StEm1 EqEm2 StEm2 EqEm3 StEm3 EqEm4 StEm4 EqEm5 StEm5 EqEm6 StEm6 EqEm7 StEm7 EqEm8 StEm8 EqEm9 StEm9 EqEm10 StEm10 EqEm11 StEm11 EqEm12 StEm12 EqEm13 StEm13 EqEm14 StEm14 EqEm15 StEm15 EqEm16 StEm16 EqEm17 StEm17 EqEm18 StEm18 EqEm19 StEm19 EqEm20 StEm20 EqEm21 StEm21
0.05 7.06129e-14 6.97251e-14 8.87788e-16 0.0125726 0.015058 0 0 0 0 0 0 0 0 0 0 0 0 0 0 0 0 0 0 0 0 0 0 0 0 0 0 0 0 0 0 0 0 0 0 0 0 0 0 0 0 0 0
0.0525665 8.17433e-14 8.0788e-14 9.55261e-16 0.0116861 0.0134085 0 0 0 0 0 0 0 0 0 0 0 0 0 0 0 0 0 0 0 0 0 0 0 0 0 0 0 0 0 0 0 0 0 0 0 0 0 0 0 0 0 0
0.0552647 9.43457e-14 9.33189e-14 1.02681e-15 0.0108835 0.0119321 0 0 0 0 0 0 0 0 0 0 0 0 0 0 0 0 0 0 0 0 0 0 0 0 0 0 0 0 0 0 0 0 0 0 0 0 0 0 0 0 0 0
0.0581015 1.07046e-13 1.05959e-13 1.08653e-15 0.0101502 0.010609 0 0 0 0 0 0 0 0 0 0 0 0 0 0 0 0 0 0 0 0 0 0 0 0 0 0 0 0 0 0 0 0 0 0 0 0 0 0 0 0 0 0
0.0610839 1.21381e-13 1.2022e-13 1.16087e-15 0.00956386 0.00933848 0 0 0 0 0 0 0 0 0 0 0 0 0 0 0 0 0 0 0 0 0 0 0 0 0 0 0 0 0 0 0 0 0 0 0 0 0 0 0 0 0 0
0.0642193 1.42135e-13 1.40832e-13 1.30306e-15 0.00916771 0.00807821 0 0 0 0 0 0 0 0 0 0 0 0 0 0 0 0 0 0 0 0 0 0 0 0 0 0 0 0 0 0 0 0 0 0 0 0 0 0 0 0 0 0
0.0675157 1.74623e-13 1.73072e-13 1.55088e-15 0.00888129 0.00680369 0 0 0 0 0 0 0 0 0 0 0 0 0 0 0 0 0 0 0 0 0 0 0 0 0 0 0 0 0 0 0 0 0 0 0 0 0 0 0 0 0 0
0.0709813 1.97417e-13 1.95781e-13 1.63628e-15 0.00828844 0.00568176 0 0 0 0 0 0 0 0 0 0 0 0 0 0 0 0 0 0 0 0 0 0 0 0 0 0 0 0 0 0 0 0 0 0 0 0 0 0 0 0 0 0
0.0746248 1.91629e-13 1.90166e-13 1.46267e-15 0.00763282 0.00487239 0 0 0 0 0 0 0 0 0 0 0 0 0 0 0 0 0 0 0 0 0 0 0 0 0 0 0 0 0 0 0 0 0 0 0 0 0 0 0 0 0 0
0.0784553 1.6588e-13 1.64725e-13 1.15474e-15 0.0069613 0.00433251 0 0 0 0 0 0 0 0 0 0 0 0 0 0 0 0 0 0 0 0 0 0 0 0 0 0 0 0 0 0 0 0 0 0 0 0 0 0 0 0 0 0
0.0824824 1.34066e-13 1.33247e-13 8.18863e-16 0.0061079 0.00402666 0 0 0 0 0 0 0 0 0 0 0 0 0 0 0 0 0 0 0 0 0 0 0 0 0 0 0 0 0 0 0 0 0 0 0 0 0 0 0 0 0 0
0.0867162 1.17036e-13 1.16405e-13 6.30833e-16 0.00539007 0.0038463 0 0 0 0 0 0 0 0 0 0 0 0 0 0 0 0 0 0 0 0 0 0 0 0 0 0 0 0 0 0 0 0 0 0 0 0 0 0 0 0 0 0
0.0911674 1.03385e-13 1.02855e-13 5.30136e-16 0.00512779 0.00371667 0 0 0 0 0 0 0 0 0 0 0 0 0 0 0 0 0 0 0 0 0 0 0 0 0 0 0 0 0 0 0 0 0 0 0 0 0 0 0 0 0 0
0.095847 8.16196e-14 8.11971e-14 4.22506e-16 0.00517652 0.00390244 0 0 0 0 0 0 0 0 0 0 0 0 0 0 0 0 0 0 0 0 0 0 0 0 0 0 0 0 0 0 0 0 0 0 0 0 0 0 0 0 0 0
0.100767 5.64082e-14 5.61197e-14 2.88482e-16 0.0051142 0.00455248 0 0 0 0 0 0 0 0 0 0 0 0 0 0 0 0 0 0 0 0 0 0 0 0 0 0 0 0 0 0 0 0 0 0 0 0 0 0 0 0 0 0
0.105939 3.70293e-14 3.68296e-14 1.99759e-16 0.00539462 0.00492278 0 0 0 0 0 0 0 0 0 0 0 0 0 0 0 0 0 0 0 0 0 0 0 0 0 0 0 0 0 0 0 0 0 0 0 0 0 0 0 0 0 0
0.111377 2.23965e-14 2.22748e-14 1.2178e-16 0.00543747 0.00563641 0 0 0 0 0 0 0 0 0 0 0 0 0 0 0 0 0 0 0 0 0 0 0 0 0 0 0 0 0 0 0 0 0 0 0 0 0 0 0 0 0 0
0.117094 1.69752e-14 1.68996e-14 7.56457e-17 0.00445624 0.00518858 0 0 0 0 0 0 0 0 0 0 0 0 0 0 0 0 0 0 0 0 0 0 0 0 0 0 0 0 0 0 0 0 0 0 0 0 0 0 0 0 0 0
0.123105 1.32162e-14 1.3167e-14 4.91712e-17 0.00372052 0.00445594 0 0 0 0 0 0 0 0 0 0 0 0 0 0 0 0 0 0 0 0 0 0 0 0 0 0 0 0 0 0 0 0 0 0 0 0 0 0 0 0 0 0
0.129424 1.10343e-14 1.10027e-14 3.15692e-17 0.00286101 0.00374841 0 0 0 0 0 0 0 0 0 0 0 0 0 0 0 0 0 0 0 0 0 0 0 0 0 0 0 0 0 0 0 0 0 0 0 0 0 0 0 0 0 0
0.136067 1.04098e-14 1.03893e-14 2.04244e-17 0.00196205 0.00317215 0 0 0 0 0 0 0 0 0 0 0 0 0 0 0 0 0 0 0 0 0 0 0 0 0 0 0 0 0 0 0 0 0 0 0 0 0 0 0 0 0 0
0.143051 1.07611e-14 1.07477e-14 1.34015e-17 0.00124537 0.00270663 0 0 0 0 0 0 0 0 0 0 0 0 0 0 0 0 0 0 0 0 0 0 0 0 0 0 0 0 0 0 0 0 0 0 0 0 0 0 0 0 0 0
0.150394 1.23816e-14 1.23725e-14 9.12089e-18 0.000736648 0.00231113 0 0 0 0 0 0 0 0 0 0 0 0 0 0 0 0 0 0 0 0 0 0 0 0 0 0 0 0 0 0 0 0 0 0 0 0 0 0 0 0 0 0
0.158114 1.49983e-14 1.49914e-14 6.88983e-18 0.000459374 0.00197964 0 0 0 0 0 0 0 0 0 0 0 0 0 0 0 0 0 0 0 0 0 0 0 0 0 0 0 0 0 0 0 0 0 0 0 0 0 0 0 0 0 0
0.16623 1.87555e-14 1.87492e-14 6.35491e-18 0.000338829 0.00170233 0 0 0 0 0 0 0 0 0 0 0 0 0 0 0 0 0 0 0 0 0 0 0 0 0 0 0 0 0 0 0 0 0 0 0 0 0 0 0 0 0 0
0.174762 2.45171e-14 2.45095e-14 7.64312e-18 0.000311746 0.00146416 0 0 0 0 0 0 0 0 0 0 0 0 0 0 0 0 0 0 0 0 0 0 0 0 0 0 0 0 0 0 0 0 0 0 0 0 0 0 0 0 0 0
0.183733 3.28796e-14 3.28687e-14 1.08972e-17 0.000331428 0.00124738 0 0 0 0 0 0 0 0 0 0 0 0 0 0 0 0 0 0 0 0 0 0 0 0 0 0 0 0 0 0 0 0 0 0 0 0 0 0 0 0 0 0
0.193164 4.56329e-14 4.56156e-14 1.7303e-17 0.000379178 0.00103823 0 0 0 0 0 0 0 0 0 0 0 0 0 0 0 0 0 0 0 0 0 0 0 0 0 0 0 0 0 0 0 0 0 0 0 0 0 0 0 0 0 0
0.203079 6.04302e-14 6.04037e-14 2.64637e-17 0.000437922 0.000832568 0 0 0 0 0 0 0 0 0 0 0 0 0 0 0 0 0 0 0 0 0 0 0 0 0 0 0 0 0 0 0 0 0 0 0 0 0 0 0 0 0 0
0.213503 6.55222e-14 6.54896e-14 3.26211e-17 0.000497864 0.000640276 0 0 0 0 0 0 0 0 0 0 0 0 0 0 0 0 0 0 0 0 0 0 0 0 0 0 0 0 0 0 0 0 0 0 0 0 0 0 0 0 0 0
0.224463 5.04919e-14 5.04647e-14 2.71968e-17 0.000538637 0.000474183 0 0 0 0 0 0 0 0 0 0 0 0 0 0 0 0 0 0 0 0 0 0 0 0 0 0 0 0 0 0 0 0 0 0 0 0 0 0 0 0 0 0
0.235984 3.44229e-14 3.44045e-14 1.84517e-17 0.00053603 0.000338619 0 0 0 0 0 0 0 0 0 0 0 0 0 0 0 0 0 0 0 0 0 0 0 0 0 0 0 0 0 0 0 0 0 0 0 0 0 0 0 0 0 0
0.248097 2.44123e-14 2.44004e-14 1.19298e-17 0.000488678 0.000259122 0 0 0 0 0 0 0 0 0 0 0 0 0 0 0 0 0 0 0 0 0 0 0 0 0 0 0 0 0 0 0 0 0 0 0 0 0 0 0 0 0 0
0.260832 1.92809e-14 1.92727e-14 8.18409e-18 0.000424466 0.000268676 0 0 0 0 0 0 0 0 0 0 0 0 0 0 0 0 0 0 0 0 0 0 0 0 0 0 0 0 0 0 0 0 0 0 0 0 0 0 0 0 0 0
0.274221 1.59052e-14 1.58993e-14 5.89818e-18 0.000370833 0.000358428 0 0 0 0 0 0 0 0 0 0 0 0 0 0 0 0 0 0 0 0 0 0 0 0 0 0 0 0 0 0 0 0 0 0 0 0 0 0 0 0 0 0
0.288297 1.37408e-14 1.37364e-14 4.39357e-18 0.000319747 0.000481292 0 0 0 0 0 0 0 0 0 0 0 0 0 0 0 0 0 0 0 0 0 0 0 0 0 0 0 0 0 0 0 0 0 0 0 0 0 0 0 0 0 0
0.303095 1.20802e-14 1.20768e-14 3.38425e-18 0.000280148 0.000540205 0 0 0 0 0 0 0 0 0 0 0 0 0 0 0 0 0 0 0 0 0 0 0 0 0 0 0 0 0 0 0 0 0 0 0 0 0 0 0 0 0 0
0.318653 1.06598e-14 1.06572e-14 2.63434e-18 0.000247129 0.000564117 0 0 0 0 0 0 0 0 0 0 0 0 0 0 0 0 0 0 0 0 0 0 0 0 0 0 0 0 0 0 0 0 0 0 0 0 0 0 0 0 0 0
0.335009 9.55349e-15 9.55142e-15 2.07438e-18 0.000217133 0.00055507 0 0 0 0 0 0 0 0 0 0 0 0 0 0 0 0 0 0 0 0 0 0 0 0 0 0 0 0 0 0 0 0 0 0 0 0 0 0 0 0 0 0
0.352205 8.69878e-15 8.69712e-15 1.65369e-18 0.000190106 0.00052689 0 0 0 0 0 0 0 0 0 0 0 0 0 0 0 0 0 0 0 0 0 0 0 0 0 0 0 0 0 0 0 0 0 0 0 0 0 0 0 0 0 0
0.370284 7.98503e-15 7.9837e-15 1.33002e-18 0.000166564 0.000492713 0 0 0 0 0 0 0 0 0 0 0 0 0 0 0 0 0 0 0 0 0 0 0 0 0 0 0 0 0 0 0 0 0 0 0 0 0 0 0 0 0 0
0.389291 7.31437e-15 7.31329e-15 1.07796e-18 0.000147375 0.000459457 0 0 0 0 0 0 0 0 0 0 0 0 0 0 0 0 0 0 0 0 0 0 0 0 0 0 0 0 0 0 0 0 0 0 0 0 0 0 0 0 0 0
0.409273 6.67381e-15 6.67293e-15 8.76292e-19 0.000131303 0.000427145 0 0 0 0 0 0 0 0 0 0 0 0 0 0 0 0 0 0 0 0 0 0 0 0 0 0 0 0 0 0 0 0 0 0 0 0 0 0 0 0 0 0
0.430281 6.06093e-15 6.06022e-15 7.13072e-19 0.000117651 0.000396432 0 0 0 0 0 0 0 0 0 0 0 0 0 0 0 0 0 0 0 0 0 0 0 0 0 0 0 0 0 0 0 0 0 0 0 0 0 0 0 0 0 0
0.452368 5.53376e-15 5.53318e-15 5.80175e-19 0.000104843 0.000364686 0 0 0 0 0 0 0 0 0 0 0 0 0 0 0 0 0 0 0 0 0 0 0 0 0 0 0 0 0 0 0 0 0 0 0 0 0 0 0 0 0 0
0.475588 5.05669e-15 5.05622e-15 4.72365e-19 9.34139e-05 0.000334271 0 0 0 0 0 0 0 0 0 0 0 0 0 0 0 0 0 0 0 0 0 0 0 0 0 0 0 0 0 0 0 0 0 0 0 0 0 0 0 0 0 0
0.5 4.65305e-15 4.65266e-15 3.85606e-19 8.28717e-05 0.000305083 0 0 0 0 0 0 0 0 0 0 0 0 0 0 0 0 0 0 0 0 0 0 0 0 0 0 0 0 0 0 0 0 0 0 0 0 0 0 0 0 0 0
0.525665 4.30468e-15 4.30436e-15 3.15122e-19 7.32045e-05 0.00027748 0 0 0 0 0 0 0 0 0 0 0 0 0 0 0 0 0 0 0 0 0 0 0 0 0 0 0 0 0 0 0 0 0 0 0 0 0 0 0 0 0 0
0.552648 3.97612e-15 3.97586e-15 2.57618e-19 6.47915e-05 0.00025233 0 0 0 0 0 0 0 0 0 0 0 0 0 0 0 0 0 0 0 0 0 0 0 0 0 0 0 0 0 0 0 0 0 0 0 0 0 0 0 0 0 0
0.581015 3.70321e-15 3.703e-15 2.11638e-19 5.71497e-05 0.000228955 0 0 0 0 0 0 0 0 0 0 0 0 0 0 0 0 0 0 0 0 0 0 0 0 0 0 0 0 0 0 0 0 0 0 0 0 0 0 0 0 0 0
0.610839 3.44294e-15 3.44277e-15 1.73915e-19 5.05135e-05 0.00020778 0 0 0 0 0 0 0 0 0 0 0 0 0 0 0 0 0 0 0 0 0 0 0 0 0 0 0 0 0 0 0 0 0 0 0 0 0 0 0 0 0 0
0.642193 3.19444e-15 3.1943e-15 1.42893e-19 4.47316e-05 0.00018857 0 0 0 0 0 0 0 0 0 0 0 0 0 0 0 0 0 0 0 0 0 0 0 0 0 0 0 0 0 0 0 0 0 0 0 0 0 0 0 0 0 0
0.675157 2.9644e-15 2.96428e-15 1.17539e-19 3.96502e-05 0.000171217 0 0 0 0 0 0 0 0 0 0 0 0 0 0 0 0 0 0 0 0 0 0 0 0 0 0 0 0 0 0 0 0 0 0 0 0 0 0 0 0 0 0
0.709813 2.75184e-15 2.75175e-15 9.68481e-20 3.51939e-05 0.000155652 0 0 0 0 0 0 0 0 0 0 0 0 0 0 0 0 0 0 0 0 0 0 0 0 0 0 0 0 0 0 0 0 0 0 0 0 0 0 0 0 0 0
0.746248 2.55221e-15 2.55213e-15 7.98137e-20 3.12723e-05 0.000141745 0 0 0 0 0 0 0 0 0 0 0 0 0 0 0 0 0 0 0 0 0 0 0 0 0 0 0 0 0 0 0 0 0 0 0 0 0 0 0 0 0 0
0.784553 2.3627e-15 2.36264e-15 6.57554e-20 2.78306e-05 0.000129114 0 0 0 0 0 0 0 0 0 0 0 0 0 0 0 0 0 0 0 0 0 0 0 0 0 0 0 0 0 0 0 0 0 0 0 0 0 0 0 0 0 0
0.824824 2.18563e-15 2.18557e-15 5.41613e-20 2.47807e-05 0.000117779 0 0 0 0 0 0 0 0 0 0 0 0 0 0 0 0 0 0 0 0 0 0 0 0 0 0 0 0 0 0 0 0 0 0 0 0 0 0 0 0 0 0
0.867162 2.02003e-15 2.01999e-15 4.4628e-20 2.20927e-05 0.000107579 0 0 0 0 0 0 0 0 0 0 0 0 0 0 0 0 0 0 0 0 0 0 0 0 0 0 0 0 0 0 0 0 0 0 0 0 0 0 0 0 0 0
0.911674 1.8645e-15 1.86446e-15 3.67533e-20 1.97122e-05 9.8352e-05 0 0 0 0 0 0 0 0 0 0 0 0 0 0 0 0 0 0 0 0 0 0 0 0 0 0 0 0 0 0 0 0 0 0 0 0 0 0 0 0 0 0
0.95847 1.72045e-15 1.72042e-15 3.0243e-20 1.75785e-05 9.00822e-05 0 0 0 0 0 0 0 0 0 0 0 0 0 0 0 0 0 0 0 0 0 0 0 0 0 0 0 0 0 0 0 0 0 0 0 0 0 0 0 0 0 0
1.00767 1.58584e-15 1.58581e-15 2.48878e-20 1.56938e-05 8.25728e-05 0 0 0 0 0 0 0 0 0 0 0 0 0 0 0 0 0 0 0 0 0 0 0 0 0 0 0 0 0 0 0 0 0 0 0 0 0 0 0 0 0 0
1.05939 1.46329e-15 1.46326e-15 2.04722e-20 1.39906e-05 7.57613e-05 0 0 0 0 0 0 0 0 0 0 0 0 0 0 0 0 0 0 0 0 0 0 0 0 0 0 0 0 0 0 0 0 0 0 0 0 0 0 0 0 0 0
1.11377 1.34815e-15 1.34813e-15 1.68349e-20 1.24875e-05 6.95601e-05 0 0 0 0 0 0 0 0 0 0 0 0 0 1.4013e-45 0 1.4013e-45 0 1.4013e-45 0 1.4013e-45 0 2.8026e-45 0 2.8026e-45 0 2.8026e-45 0 4.2039e-45 0 4.2039e-45 0 5.60519e-45 0 5.60519e-45 0 7.00649e-45 0 8.40779e-45 0 8.40779e-45 0 9.80909e-45
1.17094 1.24598e-15 1.24596e-15 1.38379e-20 1.11061e-05 6.37711e-05 0 0 0 0 0 2.8026e-45 0 7.00649e-45 0 1.12104e-44 0 1.82169e-44 0 2.66247e-44 0 3.50325e-44 0 4.62428e-44 0 5.88545e-44 0 7.28675e-44 0 8.82818e-44 0 1.05097e-43 0 1.24716e-43 0 1.44334e-43 0 1.66755e-43 0 1.91978e-43 0 2.17201e-43 0 2.45227e-43 0 2.74654e-43 0 3.05483e-43
1.23105 1.15179e-15 1.15178e-15 1.13796e-20 9.87995e-06 5.84712e-05 0 4.2039e-45 0 1.82169e-44 0 7.70714e-44 0 1.7236e-43 0 3.05483e-43 0 4.73639e-43 0 6.83834e-43 0 9.31863e-43 0 1.22053e-42 0 1.54843e-42 0 1.90997e-42 0 2.31635e-42 0 2.76476e-42 0 3.25382e-42 0 3.79472e-42 0 4.36925e-42 0 5.00404e-42 0 5.66685e-42 0 6.40113e-42 0 7.15643e-42 0 7.95517e-42
1.29424 1.06447e-15 1.06446e-15 9.36111e-21 8.79412e-06 5.35956e-05 0 9.94922e-44 0 4.27396e-43 0 1.73901e-42 0 3.87179e-42 0 6.85936e-42 0 1.06106e-41 0 1.52812e-41 0 2.08191e-41 0 2.72286e-41 0 3.45182e-41 0 4.25504e-41 0 5.1593e-41 0 6.1531e-41 0 7.23715e-41 0 8.43203e-41 0 9.70329e-41 0 1.11e-40 0 1.25639e-40 0 1.41711e-40 0 1.58336e-40 0 1.7594e-40
1.36067 9.83745e-16 9.83737e-16 7.69614e-21 7.82331e-06 4.91544e-05 0 2.31495e-42 0 8.93328e-42 0 3.45364e-41 0 7.57598e-41 0 1.33172e-40 0 2.05161e-40 0 2.94504e-40 0 4.00249e-40 0 5.22466e-40 0 6.61347e-40 0 8.14484e-40 0 9.86503e-40 0 1.17541e-39 0 1.38135e-39 0 1.60746e-39 0 1.84849e-39 0 2.11186e-39 0 2.38888e-39 0 2.69076e-39 0 3.00465e-39 0 3.33683e-39
1.43051 9.09247e-16 9.0924e-16 6.32439e-21 6.95563e-06 4.5108e-05 0 5.1146e-41 0 1.72196e-40 0 6.15038e-40 0 1.31406e-39 0 2.27737e-39 0 3.48081e-39 0 4.966e-39 0 6.71875e-39 0 8.74006e-39 0 1.10329e-38 0 1.3562e-38 0 1.63949e-38 0 1.95026e-38 0 2.28874e-38 0 2.65906e-38 0 3.05433e-38 0 3.48422e-38 0 3.93754e-38 0 4.42857e-38 0 4.94111e-38 0 5.48313e-38
1.50394 8.41611e-16 8.41606e-16 5.19902e-21 6.17746e-06 4.1368e-05 0 1.07945e-39 0 3.14679e-39 0 1.01197e-38 0 2.07455e-38 0 3.51243e-38 0 5.29438e-38 0 7.4742e-38 0 1.00337e-37 0 1.29741e-37 0 1.62994e-37 0 1.99648e-37 0 2.4056e-37 0 2.8536e-37 0 3.34082e-37 0 3.87199e-37 0 4.43924e-37 0 5.05358e-37 0 5.70242e-37 0 6.40164e-37 0 7.13342e-37 0 7.90659e-37
1.58114 7.79873e-16 7.79869e-16 4.27397e-21 5.48034e-06 3.7881e-05 0 2.13913e-38 0 5.50233e-38 0 1.57496e-37 0 3.05595e-37 0 5.00401e-37 0 7.38402e-37 0 1.02563e-36 0 1.36009e-36 0 1.74187e-36 0 2.17146e-36 0 2.64392e-36 0 3.16868e-36 0 3.74166e-36 0 4.36328e-36 0 5.03834e-36 0 5.75886e-36 0 6.53592e-36 0 7.35705e-36 0 8.23782e-36 0 9.16093e-36 0 1.0135e-35
1.6623 7.22774e-16 7.2277e-16 3.51388e-21 4.86165e-06 3.46467e-05 0 3.87444e-37 0 9.08817e-37 0 2.33739e-36 0 4.26858e-36 0 6.7126e-36 0 9.63494e-36 0 1.30945e-35 0 1.70724e-35 0 2.15686e-35 0 2.6589e-35 0 3.20853e-35 0 3.81487e-35 0 4.47393e-35 0 5.18621e-35 0 5.95603e-35 0 6.77615e-35 0 7.65655e-35 0 8.5862e-35 0 9.57868e-35 0 1.06191e-34 0 1.17149e-34
1.74763 6.69034e-16 6.69031e-16 2.88927e-21 4.31857e-06 3.17322e-05 0 6.27086e-36 0 1.38444e-35 0 3.27499e-35 0 5.65697e-35 0 8.53888e-35 0 1.18909e-34 0 1.57631e-34 0 2.01402e-34 0 2.50211e-34 0 3.04121e-34 0 3.62714e-34 0 4.26765e-34 0 4.9593e-34 0 5.70263e-34 0 6.50112e-34 0 7.34881e-34 0 8.25385e-34 0 9.20743e-34 0 1.02202e-33 0 1.12806e-33 0 1.23945e-33
1.83733 6.19427e-16 6.19425e-16 2.37545e-21 3.83491e-06 2.90682e-05 0 8.97442e-35 0 1.9086e-34 0 4.2594e-34 0 7.04055e-34 0 1.02583e-33 0 1.38897e-33 0 1.79722e-33 0 2.24951e-33 0 2.74563e-33 0 3.28619e-33 0 3.86797e-33 0 4.49679e-33 0 5.16999e-33 0 5.88811e-33 0 6.65372e-33 0 7.46224e-33 0 8.31983e-33 0 9.22003e-33 0 1.01704e-32 0 1.11628e-32 0 1.22016e-32
1.93164 5.73468e-16 5.73466e-16 1.95225e-21 3.40428e-06 2.66223e-05 0 1.1303e-33 0 2.3504e-33 0 5.05004e-33 0 8.08968e-33 0 1.14734e-32 0 1.51854e-32 0 1.92499e-32 0 2.36611e-32 0 2.84156e-32 0 3.35195e-32 0 3.89501e-32 0 4.47463e-32 0 5.08891e-32 0 5.73839e-32 0 6.42484e-32 0 7.14488e-32 0 7.90294e-32 0 8.69453e-32 0 9.52466e-32 0 1.03881e-31 0 1.12875e-31
2.03079 5.31349e-16 5.31347e-16 1.60408e-21 3.01888e-06 2.43527e-05 0 1.25426e-32 0 2.57321e-32 0 5.39784e-32 0 8.4668e-32 0 1.17824e-31 0 1.53349e-31 0 1.91376e-31 0 2.31884e-31 0 2.74835e-31 0 3.20282e-31 0 3.6808e-31 0 4.18458e-31 0 4.71293e-31 0 5.26634e-31 0 5.84597e-31 0 6.44937e-31 0 7.07964e-31 0 7.73378e-31 0 8.41491e-31 0 9.11983e-31 0 9.85023e-31
2.13503 4.92148e-16 4.92147e-16 1.31903e-21 2.68015e-06 2.22765e-05 0 1.2284e-31 0 2.49957e-31 0 5.16508e-31 0 7.99117e-31 0 1.0979e-30 0 1.41231e-30 0 1.74294e-30 0 2.0898e-30 0 2.45253e-30 0 2.83156e-30 0 3.22601e-30 0 3.63711e-30 0 4.06409e-30 0 4.50735e-30 0 4.96765e-30 0 5.44324e-30 0 5.93623e-30 0 6.44467e-30 0 6.97044e-30 0 7.51164e-30 0 8.06928e-30
2.24463 4.55567e-16 4.55566e-16 1.08414e-21 2.37977e-06 2.03845e-05 0 1.06606e-30 0 2.15821e-30 0 4.4174e-30 0 6.77368e-30 0 9.22749e-30 0 1.17761e-29 0 1.44213e-29 0 1.71642e-29 0 2.00016e-29 0 2.29369e-29 0 2.59651e-29 0 2.90919e-29 0 3.23128e-29 0 3.56309e-29 0 3.90508e-29 0 4.25608e-29 0 4.61746e-29 0 4.98797e-29 0 5.36874e-29 0 5.75865e-29 0 6.1583e-29
2.35984 4.22043e-16 4.22042e-16 8.90748e-22 2.11056e-06 1.86404e-05 0 8.24906e-30 0 1.6646e-29 0 3.38622e-29 0 5.16217e-29 0 6.9926e-29 0 8.87626e-29 0 1.0813e-28 0 1.28042e-28 0 1.48475e-28 0 1.69451e-28 0 1.90944e-28 0 2.12977e-28 0 2.35524e-28 0 2.58608e-28 0 2.82257e-28 0 3.06392e-28 0 3.31102e-28 0 3.56309e-28 0 3.82079e-28 0 4.08347e-28 0 4.35147e-28
2.48097 3.91118e-16 3.91117e-16 7.31721e-22 1.87085e-06 1.70296e-05 0 5.71728e-29 0 1.15126e-28 0 2.33248e-28 0 3.54195e-28 0 4.77969e-28 0 6.04516e-28 0 7.33776e-28 0 8.65853e-28 0 1.00058e-27 0 1.13812e-27 0 1.27832e-27 0 1.42127e-27 0 1.56682e-27 0 1.71513e-27 0 1.86633e-27 0 2.01997e-27 0 2.17657e-27 0 2.33568e-27 0 2.49764e-27 0 2.66213e-27 0 2.82931e-27
2.60832 3.62262e-16 3.62262e-16 6.01592e-22 1.66065e-06 1.55432e-05 0 3.56395e-28 0 7.16632e-28 0 1.44792e-27 0 2.19289e-27 0 2.95152e-27 0 3.72359e-27 0 4.50854e-27 0 5.30705e-27 0 6.11816e-27 0 6.94275e-27 0 7.7801e-27 0 8.63041e-27 0 9.49303e-27 0 1.03687e-26 0 1.12583e-26 0 1.21592e-26 0 1.30743e-26 0 1.40011e-26 0 1.49415e-26 0 1.58936e-26 0 1.68584e-26
2.74221 3.3511e-16 3.3511e-16 4.94437e-22 1.47545e-06 1.41905e-05 0 2.00655e-27 0 4.03075e-27 0 8.12839e-27 0 1.22877e-26 0 1.65086e-26 0 2.07901e-26 0 2.51286e-26 0 2.9528e-26 0 3.3983e-26 0 3.84983e-26 0 4.30706e-26 0 4.77e-26 0 5.23832e-26 0 5.71245e-26 0 6.19281e-26 0 6.67802e-26 0 7.16958e-26 0 7.66622e-26 0 8.16886e-26 0 8.67662e-26 0 9.18994e-26
2.88297 3.10014e-16 3.10014e-16 4.06055e-22 1.3098e-06 1.29664e-05 0 1.02658e-26 0 2.06072e-26 0 4.14997e-26 0 6.2652e-26 0 8.40633e-26 0 1.0573e-25 0 1.27633e-25 0 1.49791e-25 0 1.72178e-25 0 1.94818e-25 0 2.17695e-25 0 2.40807e-25 0 2.6414e-25 0 2.87713e-25 0 3.11547e-25 0 3.35575e-25 0 3.59869e-25 0 3.84369e-25 0 4.09117e-25 0 4.34073e-25 0 4.59257e-25
3.03095 2.86526e-16 2.86525e-16 3.33528e-22 1.16404e-06 1.18548e-05 0 4.78967e-26 0 9.60961e-26 0 1.93328e-25 0 2.91582e-25 0 3.90854e-25 0 4.91132e-25 0 5.92323e-25 0 6.94513e-25 0 7.97589e-25 0 9.01652e-25 0 1.00663e-24 0 1.11252e-24 0 1.21926e-24 0 1.32693e-24 0 1.43561e-24 0 1.54503e-24 0 1.65548e-24 0 1.76671e-24 0 1.87891e-24 0 1.99189e-24 0 2.10574e-24
3.18653 2.64896e-16 2.64896e-16 2.74004e-22 1.03438e-06 1.08234e-05 0 2.04945e-25 0 4.11022e-25 0 8.26271e-25 0 1.24529e-24 0 1.66805e-24 0 2.09452e-24 0 2.5243e-24 0 2.95774e-24 0 3.39439e-24 0 3.83465e-24 0 4.27825e-24 0 4.72514e-24 0 5.17506e-24 0 5.62835e-24 0 6.08538e-24 0 6.54497e-24 0 7.00837e-24 0 7.47453e-24 0 7.94418e-24 0 8.41662e-24 0 8.8922e-24
3.35009 2.44883e-16 2.44882e-16 2.25029e-22 9.18925e-07 9.87511e-06 0 8.0733e-25 0 1.61862e-24 0 3.25197e-24 0 4.89833e-24 0 6.5576e-24 0 8.22964e-24 0 9.91294e-24 0 1.16088e-23 0 1.33156e-23 0 1.50348e-23 0 1.67653e-23 0 1.8507e-23 0 2.02589e-23 0 2.20223e-23 0 2.37985e-23 0 2.55831e-23 0 2.73808e-23 0 2.91878e-23 0 3.10066e-23 0 3.28347e-23 0 3.46733e-23
3.52205 2.263e-16 2.263e-16 1.84718e-22 8.16253e-07 9.0122e-06 0 2.93875e-24 0 5.89048e-24 0 1.1829e-23 0 1.78096e-23 0 2.3832e-23 0 2.98956e-23 0 3.59951e-23 0 4.21353e-23 0 4.83101e-23 0 5.45247e-23 0 6.07759e-23 0 6.70624e-23 0 7.33812e-23 0 7.97367e-23 0 8.61336e-23 0 9.25565e-23 0 9.90215e-23 0 1.05515e-22 0 1.12047e-22 0 1.18608e-22 0 1.25202e-22
3.70284 2.09133e-16 2.09133e-16 1.51695e-22 7.25352e-07 8.22325e-06 0 9.9267e-24 0 1.98933e-23 0 3.99336e-23 0 6.01018e-23 0 8.03968e-23 0 1.00817e-22 0 1.21345e-22 0 1.41996e-22 0 1.62751e-22 0 1.83626e-22 0 2.04611e-22 0 2.25702e-22 0 2.46888e-22 0 2.68186e-22 0 2.89608e-22 0 3.11106e-22 0 3.32732e-22 0 3.54442e-22 0 3.76267e-22 0 3.98177e-22 0 4.20187e-22
3.89291 1.93391e-16 1.93391e-16 1.2453e-22 6.43932e-07 7.49497e-06 0 3.12486e-23 0 6.26124e-23 0 1.25648e-22 0 1.89049e-22 0 2.52813e-22 0 3.16934e-22 0 3.8136e-22 0 4.46137e-22 0 5.11206e-22 0 5.76619e-22 0 6.42342e-22 0 7.08365e-22 0 7.74657e-22 0 8.41261e-22 0 9.08221e-22 0 9.75391e-22 0 1.04292e-21 0 1.11069e-21 0 1.17878e-21 0 1.24711e-21 0 1.31572e-21
4.09273 1.78867e-16 1.78867e-16 1.02216e-22 5.71463e-07 6.80762e-06 0 9.1953e-23 0 1.84219e-22 0 3.69586e-22 0 5.55936e-22 0 7.43264e-22 0 9.31554e-22 0 1.12066e-21 0 1.31071e-21 0 1.50153e-21 0 1.69328e-21 0 1.88586e-21 0 2.07924e-21 0 2.27332e-21 0 2.46825e-21 0 2.66413e-21 0 2.86055e-21 0 3.05795e-21 0 3.25598e-21 0 3.45486e-21 0 3.65437e-21 0 3.85462e-21
