# 2.09184e-05 0 61 : grain size, compostion index, size index
# Heating and cooling timescale: 0.00508448 179461
# Ratio of heating to cooling to determine stochastic cutoff: 100
# Equilibrium emission is recorded even for those grains in the stochastic regime.
# Emission spectrum was computed for: 
# Type: ISRF
# Scales: 0.25 0.5 1 1.5 2 2.5 3 3.5 4 4.5 5 5.5 6 6.5 7 7.5 8 8.5 9 9.5 10
# StochasticallyHeated: 0 0 0 0 0 0 0 0 0 0 0 0 0 0 0 0 0 0 0 0 0
# Temperature: -1
# Wavelength  CExt  CAbs  CSca  Albedo G EqEm1 StEm1 EqEm2 StEm2 EqEm3 StEm3 EqEm4 StEm4 EqEm5 StEm5 EqEm6 StEm6 EqEm7 StEm7 EqEm8 StEm8 EqEm9 StEm9 EqEm10 StEm10 EqEm11 StEm11 EqEm12 StEm12 EqEm13 StEm13 EqEm14 StEm14 EqEm15 StEm15 EqEm16 StEm16 EqEm17 StEm17 EqEm18 StEm18 EqEm19 StEm19 EqEm20 StEm20 EqEm21 StEm21
0.05 2.60309e-09 1.27783e-09 1.32526e-09 0.50911 0.98471 0 0 0 0 0 0 0 0 0 0 0 0 0 0 0 0 0 0 0 0 0 0 0 0 0 0 0 0 0 0 0 0 0 0 0 0 0 0 0 0 0 0
0.0525665 2.68118e-09 1.2843e-09 1.39688e-09 0.520996 0.97719 0 0 0 0 0 0 0 0 0 0 0 0 0 0 0 0 0 0 0 0 0 0 0 0 0 0 0 0 0 0 0 0 0 0 0 0 0 0 0 0 0 0
0.0552647 2.70829e-09 1.3011e-09 1.40719e-09 0.519586 0.972798 0 0 0 0 0 0 0 0 0 0 0 0 0 0 0 0 0 0 0 0 0 0 0 0 0 0 0 0 0 0 0 0 0 0 0 0 0 0 0 0 0 0
0.0581015 2.72885e-09 1.31723e-09 1.41162e-09 0.517294 0.96962 0 0 0 0 0 0 0 0 0 0 0 0 0 0 0 0 0 0 0 0 0 0 0 0 0 0 0 0 0 0 0 0 0 0 0 0 0 0 0 0 0 0
0.0610839 2.74509e-09 1.33167e-09 1.41342e-09 0.514889 0.967115 0 0 0 0 0 0 0 0 0 0 0 0 0 0 0 0 0 0 0 0 0 0 0 0 0 0 0 0 0 0 0 0 0 0 0 0 0 0 0 0 0 0
0.0642193 2.75871e-09 1.34382e-09 1.41489e-09 0.51288 0.964843 0 0 0 0 0 0 0 0 0 0 0 0 0 0 0 0 0 0 0 0 0 0 0 0 0 0 0 0 0 0 0 0 0 0 0 0 0 0 0 0 0 0
0.0675157 2.77132e-09 1.35364e-09 1.41769e-09 0.511556 0.962472 0 0 0 0 0 0 0 0 0 0 0 0 0 0 0 0 0 0 0 0 0 0 0 0 0 0 0 0 0 0 0 0 0 0 0 0 0 0 0 0 0 0
0.0709813 2.78465e-09 1.36221e-09 1.42244e-09 0.510813 0.959818 0 0 0 0 0 0 0 0 0 0 0 0 0 0 0 0 0 0 0 0 0 0 0 0 0 0 0 0 0 0 0 0 0 0 0 0 0 0 0 0 0 0
0.0746248 2.79959e-09 1.37078e-09 1.42881e-09 0.510364 0.956871 0 0 0 0 0 0 0 0 0 0 0 0 0 0 0 0 0 0 0 0 0 0 0 0 0 0 0 0 0 0 0 0 0 0 0 0 0 0 0 0 0 0
0.0784553 2.8155e-09 1.37998e-09 1.43553e-09 0.509864 0.953788 0 0 0 0 0 0 0 0 0 0 0 0 0 0 0 0 0 0 0 0 0 0 0 0 0 0 0 0 0 0 0 0 0 0 0 0 0 0 0 0 0 0
0.0824824 2.8321e-09 1.38988e-09 1.44222e-09 0.509242 0.950627 0 0 0 0 0 0 0 0 0 0 0 0 0 0 0 0 0 0 0 0 0 0 0 0 0 0 0 0 0 0 0 0 0 0 0 0 0 0 0 0 0 0
0.0867162 2.84932e-09 1.40031e-09 1.44901e-09 0.508546 0.947377 0 0 0 0 0 0 0 0 0 0 0 0 0 0 0 0 0 0 0 0 0 0 0 0 0 0 0 0 0 0 0 0 0 0 0 0 0 0 0 0 0 0
0.0911674 2.86742e-09 1.41143e-09 1.45599e-09 0.50777 0.944019 0 0 0 0 0 0 0 0 0 0 0 0 0 0 0 0 0 0 0 0 0 0 0 0 0 0 0 0 0 0 0 0 0 0 0 0 0 0 0 0 0 0
0.095847 2.88662e-09 1.42343e-09 1.46319e-09 0.506886 0.940564 0 0 0 0 0 0 0 0 0 0 0 0 0 0 0 0 0 0 0 0 0 0 0 0 0 0 0 0 0 0 0 0 0 0 0 0 0 0 0 0 0 0
0.100767 2.90706e-09 1.43662e-09 1.47044e-09 0.505816 0.937065 0 0 0 0 0 0 0 0 0 0 0 0 0 0 0 0 0 0 0 0 0 0 0 0 0 0 0 0 0 0 0 0 0 0 0 0 0 0 0 0 0 0
0.105939 2.92924e-09 1.4522e-09 1.47703e-09 0.504239 0.933721 0 0 0 0 0 0 0 0 0 0 0 0 0 0 0 0 0 0 0 0 0 0 0 0 0 0 0 0 0 0 0 0 0 0 0 0 0 0 0 0 0 0
0.111377 2.95025e-09 1.46935e-09 1.4809e-09 0.501958 0.930882 0 0 0 0 0 0 0 0 0 0 0 0 0 0 0 0 0 0 0 0 0 0 0 0 0 0 0 0 0 0 0 0 0 0 0 0 0 0 0 0 0 0
0.117094 2.96797e-09 1.48628e-09 1.4817e-09 0.499228 0.928494 0 0 0 0 0 0 0 0 0 0 0 0 0 0 0 0 0 0 0 0 0 0 0 0 0 0 0 0 0 0 0 0 0 0 0 0 0 0 0 0 0 0
0.123105 2.98611e-09 1.5026e-09 1.48351e-09 0.496803 0.925816 0 0 0 0 0 0 0 0 0 0 0 0 0 0 0 0 0 0 0 0 0 0 0 0 0 0 0 0 0 0 0 0 0 0 0 0 0 0 0 0 0 0
0.129424 3.00612e-09 1.52122e-09 1.48489e-09 0.493957 0.923351 0 0 0 0 0 0 0 0 0 0 0 0 0 0 0 0 0 0 0 0 0 0 0 0 0 0 0 0 0 0 0 0 0 0 0 0 0 0 0 0 0 0
0.136067 3.02048e-09 1.54042e-09 1.48006e-09 0.490007 0.921927 0 0 0 0 0 0 0 0 0 0 0 0 0 0 0 0 0 0 0 0 0 0 0 0 0 0 0 0 0 0 0 0 0 0 0 0 0 0 0 0 0 0
0.143051 3.03259e-09 1.55683e-09 1.47577e-09 0.486635 0.919971 0 0 0 0 0 0 0 0 0 0 0 0 0 0 0 0 0 0 0 0 0 0 0 0 0 0 0 0 0 0 0 0 0 0 0 0 0 0 0 0 0 0
0.150394 3.04894e-09 1.5787e-09 1.47025e-09 0.482216 0.918872 0 0 0 0 0 0 0 0 0 0 0 0 0 0 0 0 0 0 0 0 0 0 0 0 0 0 0 0 0 0 0 0 0 0 0 0 0 0 0 0 0 0
0.158114 3.03156e-09 1.59446e-09 1.43711e-09 0.474048 0.921277 0 0 0 0 0 0 0 0 0 0 0 0 0 0 0 0 0 0 0 0 0 0 0 0 0 0 0 0 0 0 0 0 0 0 0 0 0 0 0 0 0 0
0.16623 2.98441e-09 1.5868e-09 1.3976e-09 0.468302 0.920151 0 0 0 0 0 0 0 0 0 0 0 0 0 0 0 0 0 0 0 0 0 0 0 0 0 0 0 0 0 0 0 0 0 0 0 0 0 0 0 0 0 0
0.174762 2.96169e-09 1.57583e-09 1.38586e-09 0.46793 0.914163 0 0 0 0 0 0 0 0 0 0 0 0 0 0 0 0 0 0 0 0 0 0 0 0 0 0 0 0 0 0 0 0 0 0 0 0 0 0 0 0 0 0
0.183733 2.96382e-09 1.56772e-09 1.3961e-09 0.471048 0.905532 0 0 0 0 0 0 0 0 0 0 0 0 0 0 0 0 0 0 0 0 0 0 0 0 0 0 0 0 0 0 0 0 0 0 0 0 0 0 0 0 0 0
0.193164 2.9925e-09 1.56174e-09 1.43076e-09 0.478114 0.893553 0 0 0 0 0 0 0 0 0 0 0 0 0 0 0 0 0 0 0 0 0 0 0 0 0 0 0 0 0 0 0 0 0 0 0 0 0 0 0 0 0 0
0.203079 3.0521e-09 1.57038e-09 1.48171e-09 0.485473 0.880101 0 0 0 0 0 0 0 0 0 0 0 0 0 0 0 0 0 0 0 0 0 0 0 0 0 0 0 0 0 0 0 0 0 0 0 0 0 0 0 0 0 0
0.213503 3.10863e-09 1.58652e-09 1.52211e-09 0.489639 0.868411 0 0 0 0 0 0 0 0 0 0 0 0 0 0 0 0 0 0 0 0 0 0 0 0 0 0 0 0 0 0 0 0 0 0 0 0 0 0 0 0 0 0
0.224463 3.16278e-09 1.60583e-09 1.55695e-09 0.492274 0.857534 0 0 0 0 0 0 0 0 0 0 0 0 0 0 0 0 0 0 0 0 0 0 0 0 0 0 0 0 0 0 0 0 0 0 0 0 0 0 0 0 0 0
0.235984 3.21582e-09 1.62497e-09 1.59085e-09 0.494694 0.846486 0 0 0 0 0 0 0 0 0 0 0 0 0 0 0 0 0 0 0 0 0 0 0 0 0 0 0 0 0 0 0 0 0 0 0 0 0 0 0 0 0 0
0.248097 3.28014e-09 1.64648e-09 1.63365e-09 0.498044 0.833991 0 0 0 0 0 0 0 0 0 0 0 0 0 0 0 0 0 0 0 0 0 0 0 0 0 0 0 0 0 0 0 0 0 0 0 0 0 0 0 0 0 0
0.260832 3.3466e-09 1.6747e-09 1.67191e-09 0.499583 0.822786 0 0 0 0 0 0 0 0 0 0 0 0 0 0 0 0 0 0 0 0 0 0 0 0 0 0 0 0 0 0 0 0 0 0 0 0 0 0 0 0 0 0
0.274221 3.41036e-09 1.70543e-09 1.70493e-09 0.499927 0.81261 0 0 0 0 0 0 0 0 0 0 0 0 0 0 0 0 0 0 0 0 0 0 0 0 0 0 0 0 0 0 0 0 0 0 0 0 0 0 0 0 0 0
0.288297 3.46803e-09 1.73613e-09 1.7319e-09 0.49939 0.803192 0 0 0 0 0 0 0 0 0 0 0 0 0 0 0 0 0 0 0 0 0 0 0 0 0 0 0 0 0 0 0 0 0 0 0 0 0 0 0 0 0 0
0.303095 3.52374e-09 1.76722e-09 1.75652e-09 0.498482 0.793901 0 0 0 0 0 0 0 0 0 0 0 0 0 0 0 0 0 0 0 0 0 0 0 0 0 0 0 0 0 0 0 0 0 0 0 0 0 0 0 0 0 0
0.318653 3.57441e-09 1.79665e-09 1.77776e-09 0.497357 0.784735 0 0 0 0 0 0 0 0 0 0 0 0 0 0 0 0 0 0 0 0 0 0 0 0 0 0 0 0 0 0 0 0 0 0 0 0 0 0 0 0 0 0
0.335009 3.62261e-09 1.8252e-09 1.79741e-09 0.496165 0.775629 0 0 0 0 0 0 0 0 0 0 0 0 0 0 0 0 0 0 0 0 0 0 0 0 0 0 0 0 0 0 0 0 0 0 0 0 0 0 0 0 0 0
0.352205 3.66932e-09 1.85414e-09 1.81518e-09 0.494692 0.766507 0 0 0 0 0 0 0 0 0 0 0 0 0 0 0 0 0 0 0 0 0 0 0 0 0 0 0 0 0 0 0 0 0 0 0 0 0 0 0 0 0 0
0.370284 3.71425e-09 1.8824e-09 1.83185e-09 0.493194 0.756642 0 0 0 0 0 0 0 0 0 0 0 0 0 0 0 0 0 0 0 0 0 0 0 0 0 0 0 0 0 0 0 0 0 0 0 0 0 0 0 0 0 0
0.389291 3.75557e-09 1.90787e-09 1.8477e-09 0.491988 0.745741 0 0 0 0 0 0 0 0 0 0 0 0 0 0 0 0 0 0 0 0 0 0 0 0 0 0 0 0 0 0 0 0 0 0 0 0 0 0 0 0 0 0
0.409273 3.7948e-09 1.93011e-09 1.86469e-09 0.491381 0.734049 0 0 0 0 0 0 0 0 0 0 0 0 0 0 0 0 0 0 0 0 0 0 0 0 0 0 0 0 0 0 0 0 0 0 0 0 0 0 0 0 0 0
0.430281 3.83555e-09 1.95245e-09 1.8831e-09 0.490959 0.722386 0 0 0 0 0 0 0 0 0 0 0 0 0 0 0 0 0 0 0 0 0 0 0 0 0 0 0 0 0 0 0 0 0 0 0 0 0 0 0 0 0 0
0.452368 3.87892e-09 1.97806e-09 1.90086e-09 0.49005 0.711031 0 0 0 0 0 0 0 0 0 0 0 0 0 0 0 0 0 0 0 0 0 0 0 0 0 0 0 0 0 0 0 0 0 0 0 0 0 0 0 0 0 0
0.475588 3.92164e-09 2.0053e-09 1.91634e-09 0.488657 0.698918 0 0 0 0 0 0 0 0 0 0 0 0 0 0 0 0 0 0 0 0 0 0 0 0 0 0 0 0 0 0 0 0 0 0 0 0 0 0 0 0 0 0
0.5 3.95699e-09 2.02936e-09 1.92764e-09 0.487147 0.684822 0 0 0 0 0 0 0 0 0 0 0 0 0 0 0 0 0 0 0 0 0 0 0 0 0 0 0 0 0 0 0 0 0 0 0 0 0 0 0 0 0 0
0.525665 3.98316e-09 2.04634e-09 1.93682e-09 0.486253 0.668091 0 0 0 0 0 0 0 0 0 0 0 0 0 0 0 0 0 0 0 0 0 0 0 0 0 0 0 0 0 0 0 0 0 0 0 0 0 0 0 0 0 0
0.552648 4.00597e-09 2.05842e-09 1.94755e-09 0.486163 0.649729 0 0 0 0 0 0 0 0 0 0 0 0 0 0 0 0 0 0 0 0 0 0 0 0 0 0 0 0 0 0 0 0 0 0 0 0 0 0 0 0 0 0
0.581015 4.03507e-09 2.07278e-09 1.96228e-09 0.486307 0.631766 0 0 0 0 0 0 0 0 0 0 0 0 0 0 0 0 0 0 0 0 0 0 0 0 0 0 0 0 0 0 0 0 0 0 0 0 0 0 0 0 0 0
0.610839 4.0757e-09 2.09576e-09 1.97994e-09 0.485792 0.615724 0 0 0 0 0 0 0 0 0 0 0 0 0 0 0 0 0 0 0 0 0 0 0 0 0 0 0 0 0 0 0 0 0 0 0 0 0 0 0 0 0 0
0.642193 4.12425e-09 2.12847e-09 1.99578e-09 0.483914 0.601655 0 0 0 0 0 0 0 0 0 0 0 0 0 0 0 0 0 0 0 0 0 0 0 0 0 0 0 0 0 0 0 0 0 0 0 0 0 0 0 0 0 0
0.675157 4.17024e-09 2.16526e-09 2.00498e-09 0.480783 0.58779 0 0 0 0 0 0 0 0 0 0 0 0 0 0 0 0 0 0 0 0 0 0 0 0 0 0 0 0 0 0 0 0 0 0 0 0 0 0 0 0 0 0
0.709813 4.20209e-09 2.19704e-09 2.00505e-09 0.477155 0.571314 0 0 0 0 0 0 0 0 0 0 0 0 0 0 0 0 0 0 0 0 0 0 0 0 0 0 0 0 0 0 0 0 0 0 0 0 0 0 0 0 0 0
0.746248 4.21309e-09 2.21589e-09 1.9972e-09 0.474047 0.549392 0 0 0 0 0 0 0 0 0 0 0 0 0 0 0 0 0 0 0 0 0 0 0 0 0 0 0 0 0 0 0 0 0 0 0 0 0 0 0 0 0 0
0.784553 4.2066e-09 2.219e-09 1.9876e-09 0.472495 0.520169 0 0 0 0 0 0 0 0 0 0 0 0 0 0 0 0 0 0 0 0 0 0 0 0 0 0 0 0 0 0 0 0 0 0 0 0 0 0 0 0 0 0
0.824824 4.19486e-09 2.21133e-09 1.98354e-09 0.472849 0.484061 0 0 0 0 0 0 0 0 0 0 0 0 0 0 0 0 0 0 0 0 0 0 0 0 0 0 0 0 0 0 0 0 0 0 0 0 0 0 0 0 0 0
0.867162 4.19414e-09 2.20227e-09 1.99187e-09 0.474918 0.443466 0 0 0 0 0 0 0 0 0 0 0 0 0 0 0 0 0 0 0 0 0 0 0 0 0 0 0 0 0 0 0 0 0 0 0 0 0 0 0 0 0 0
0.911674 4.21733e-09 2.2011e-09 2.01622e-09 0.478081 0.401721 0 0 0 0 0 0 0 0 0 0 0 0 0 0 0 0 0 0 0 0 0 0 0 0 0 0 0 0 0 0 0 0 0 0 0 0 0 0 0 0 0 0
0.95847 4.26779e-09 2.21385e-09 2.05394e-09 0.481265 0.361726 0 0 0 0 0 0 0 0 0 0 0 0 0 0 0 0 0 0 0 0 0 0 0 0 0 0 0 0 0 0 0 0 0 0 0 0 0 0 0 0 0 0
1.00767 4.34169e-09 2.24315e-09 2.09855e-09 0.483348 0.325576 0 0 0 0 0 0 0 0 0 0 0 0 0 0 0 0 0 0 0 0 0 0 0 0 0 0 0 0 0 0 0 0 0 0 0 0 0 0 0 0 0 0
1.05939 4.42586e-09 2.28744e-09 2.13842e-09 0.483166 0.294415 0 0 0 0 0 0 0 0 0 0 0 0 0 0 0 0 0 0 0 0 0 0 0 0 0 0 0 0 0 0 0 0 0 0 0 0 0 0 0 0 0 0
1.11377 4.50141e-09 2.3402e-09 2.16121e-09 0.480119 0.26818 0 0 0 0 0 0 0 0 0 0 0 0 0 0 0 0 0 0 0 0 0 0 0 0 0 0 0 0 0 0 0 0 0 0 0 0 0 0 0 0 0 0
1.17094 4.54649e-09 2.3913e-09 2.15519e-09 0.474033 0.246205 0 0 0 0 0 0 0 0 0 0 0 0 0 0 0 0 0 0 0 0 0 0 0 0 0 0 0 0 0 0 0 0 0 0 0 0 0 0 0 0 0 0
1.23105 4.53894e-09 2.42901e-09 2.10993e-09 0.46485 0.228114 0 0 0 0 0 0 0 0 0 0 0 0 0 0 0 0 0 0 0 0 0 0 0 0 0 0 0 0 0 0 0 0 0 0 0 0 0 0 0 0 0 0
1.29424 4.46179e-09 2.44131e-09 2.02047e-09 0.45284 0.213565 0 0 0 0 0 0 0 0 0 0 0 0 0 0 0 0 0 0 0 0 0 0 0 0 0 0 0 0 0 0 0 0 0 0 0 0 0 0 0 0 0 0
1.36067 4.3018e-09 2.41708e-09 1.88472e-09 0.438124 0.202462 0 0 0 0 0 0 0 0 0 0 0 0 0 0 0 0 0 0 0 0 0 0 0 0 0 0 0 0 0 0 0 0 0 0 0 0 0 0 0 0 0 0
1.43051 4.05854e-09 2.3495e-09 1.70904e-09 0.421097 0.19303 0 0 0 0 0 0 0 0 0 0 0 0 0 0 0 0 0 0 0 0 0 0 0 0 0 0 0 0 0 0 0 0 0 0 0 0 0 0 0 0 0 0
1.50394 3.75835e-09 2.24314e-09 1.51521e-09 0.403158 0.18403 0 0 0 0 0 0 0 0 0 0 0 0 0 0 0 0 0 0 0 0 0 0 0 0 0 0 0 0 0 0 0 0 0 0 0 0 0 0 0 0 0 0
1.58114 3.42086e-09 2.10459e-09 1.31627e-09 0.384776 0.175819 0 0 0 0 0 0 0 0 0 0 0 0 0 0 0 0 0 0 0 0 0 0 0 0 0 0 0 0 0 0 0 0 0 0 0 0 0 0 0 0 0 0
1.6623 3.0646e-09 1.9422e-09 1.12241e-09 0.366249 0.168301 0 0 0 0 0 0 0 0 0 0 0 0 0 0 0 0 0 0 0 0 0 0 0 0 0 0 0 0 0 0 0 0 0 0 0 0 0 0 0 0 0 0
1.74763 2.70813e-09 1.76645e-09 9.41681e-10 0.347724 0.160906 0 0 0 0 0 0 0 0 0 0 0 0 0 0 0 0 0 0 0 0 0 0 0 0 0 0 0 0 0 0 0 0 0 0 0 0 0 0 0 0 0 0
1.83733 2.37174e-09 1.5913e-09 7.80436e-10 0.329056 0.152564 0 0 0 0 0 0 0 0 0 0 0 0 0 0 0 0 0 0 0 0 0 0 0 0 0 0 0 0 0 0 0 0 0 0 0 0 0 0 0 0 0 0
1.93164 2.06825e-09 1.4251e-09 6.43158e-10 0.310967 0.144066 0 0 0 0 0 0 0 0 0 0 0 0 0 0 0 0 0 0 0 0 0 0 0 0 0 0 0 0 0 0 0 0 0 0 0 0 0 0 0 0 0 0
2.03079 1.79318e-09 1.26697e-09 5.26205e-10 0.293449 0.135994 0 0 0 0 0 0 0 0 0 0 0 0 0 0 0 0 0 0 0 0 0 0 0 0 0 0 0 0 0 0 0 0 0 0 0 0 0 0 0 0 0 0
2.13503 1.55154e-09 1.12327e-09 4.28266e-10 0.276027 0.127621 0 0 0 0 0 0 0 0 0 0 0 0 0 0 0 0 0 0 0 0 0 0 0 0 0 0 0 0 0 0 0 0 0 0 0 0 0 0 0 0 0 0
2.24463 1.34296e-09 9.95298e-10 3.47661e-10 0.258877 0.119228 0 0 0 0 0 0 0 0 0 0 0 0 0 0 0 0 0 0 0 0 0 0 0 0 0 0 0 0 0 0 0 0 0 0 0 0 0 0 0 0 0 0
2.35984 1.16545e-09 8.83545e-10 2.81903e-10 0.241884 0.110835 0 0 0 0 0 0 0 0 0 0 0 0 0 0 0 0 0 0 0 0 0 0 0 0 0 0 0 0 0 0 0 0 0 0 0 0 0 0 0 0 0 0
2.48097 1.01389e-09 7.85214e-10 2.28676e-10 0.225544 0.102941 0 0 0 0 0 0 0 0 0 0 0 0 0 0 0 0 0 0 0 0 0 0 0 0 0 0 0 0 0 0 0 0 0 0 0 0 0 0 0 0 0 0
2.60832 8.82483e-10 6.97623e-10 1.8486e-10 0.209477 0.095276 0 0 0 0 0 0 0 0 0 0 0 0 0 0 0 0 0 0 0 0 0 0 0 0 0 0 0 0 0 0 0 0 0 0 0 0 0 0 0 0 0 0
2.74221 7.77886e-10 6.27831e-10 1.50054e-10 0.1929 0.0874236 0 0 0 0 0 0 0 0 0 0 0 0 0 0 0 0 0 0 0 0 0 0 0 0 0 0 0 0 0 0 0 0 0 0 0 0 0 0 0 0 0 0
2.88297 6.85075e-10 5.63131e-10 1.21944e-10 0.178001 0.080716 0 0 0 0 0 0 0 0 0 0 0 0 0 0 0 0 0 0 0 0 0 0 0 0 0 0 0 0 0 0 0 0 0 0 0 0 0 0 0 0 0 0
3.03095 6.06682e-10 5.07703e-10 9.89786e-11 0.163147 0.0741187 0 0 0 0 0 0 0 0 0 0 0 0 0 0 0 0 0 0 0 0 0 0 0 0 0 0 0 0 0 0 0 0 0 0 0 0 0 0 0 0 0 0
3.18653 5.41642e-10 4.60974e-10 8.06683e-11 0.148933 0.0680015 0 0 0 0 0 0 0 0 0 0 0 0 0 0 0 0 0 0 0 0 0 0 0 0 0 0 0 0 0 0 0 0 0 0 0 0 0 0 0 0 0 0
3.35009 4.80425e-10 4.14675e-10 6.57495e-11 0.136857 0.0629777 0 0 0 0 0 0 0 0 0 0 0 0 0 0 0 0 0 0 0 0 0 0 0 0 0 0 0 0 0 0 0 0 0 0 0 0 0 0 0 0 0 0
3.52205 4.31159e-10 3.77673e-10 5.3486e-11 0.124052 0.0576173 0 0 0 0 0 0 0 0 0 0 0 0 0 0 0 0 0 0 0 0 0 0 0 0 0 0 0 0 0 0 0 0 0 0 0 0 0 0 0 0 0 0
3.70284 3.87861e-10 3.44216e-10 4.36447e-11 0.112527 0.0529091 0 0 0 0 0 0 0 0 0 0 0 0 0 0 0 0 0 0 0 0 0 0 0 0 0 0 0 0 0 0 0 0 0 0 0 0 0 0 0 0 0 0
3.89291 3.49036e-10 3.1337e-10 3.5666e-11 0.102184 0.0487426 0 0 0 0 0 0 0 0 0 0 0 0 0 0 0 0 0 0 0 0 0 0 0 0 0 0 0 0 0 0 0 0 0 0 0 0 0 0 0 0 0 0
4.09273 3.1591e-10 2.8677e-10 2.91403e-11 0.0922422 0.0447389 0 0 0 0 0 0 0 0 0 0 0 0 0 0 0 0 0 0 0 0 0 0 0 0 0 0 0 0 0 0 0 0 0 0 0 0 0 0 0 0 0 0
4.30281 2.86272e-10 2.62503e-10 2.37687e-11 0.0830285 0.0410035 0 0 0 0 0 0 0 0 0 0 0 0 0 0 0 0 0 0 0 0 0 0 0 0 0 0 0 0 0 0 0 0 0 0 0 0 0 0 0 0 0 0
4.52368 2.59222e-10 2.3982e-10 1.94026e-11 0.0748492 0.0376817 0 0 0 0 0 0 0 0 0 0 0 0 0 0 0 0 0 0 0 0 0 0 0 0 0 0 0 0 0 0 0 0 0 0 1.4013e-45 0 5.60519e-45 0 1.68156e-44 0 4.48416e-44 0
4.75588 2.36087e-10 2.20223e-10 1.58647e-11 0.0671985 0.0345764 0 0 0 0 0 0 0 0 0 0 0 0 0 0 0 0 0 0 0 0 0 0 0 0 0 0 1.4013e-45 0 7.00649e-45 0 2.52234e-44 0 8.96831e-44 0 2.76056e-43 0 7.9874e-43 0 2.18322e-42 0 5.42583e-42 0
5 2.14211e-10 2.01242e-10 1.29685e-11 0.0605411 0.0318381 0 0 0 0 0 0 0 0 0 0 0 0 0 0 0 0 0 0 0 0 1.4013e-45 0 9.80909e-45 0 5.04467e-44 0 2.20004e-43 0 8.94028e-43 0 3.10528e-42 0 1.00711e-41 0 2.94651e-41 0 8.11674e-41 0 2.11152e-40 0 5.01935e-40 0
5.25665 1.95925e-10 1.85351e-10 1.05744e-11 0.0539717 0.0290818 0 0 0 0 0 0 0 0 0 0 0 0 0 0 0 0 2.8026e-45 0 2.8026e-44 0 2.03188e-43 0 1.18129e-42 0 5.73972e-42 0 2.35684e-41 0 8.94701e-41 0 2.92598e-40 0 8.96074e-40 0 2.48767e-39 0 6.52181e-39 0 1.61925e-38 0 3.68982e-38 0
5.52648 1.80687e-10 1.72064e-10 8.62296e-12 0.0477232 0.0264372 0 0 0 0 0 0 0 0 0 0 0 0 1.4013e-45 0 3.36312e-44 0 3.93765e-43 0 3.3477e-42 0 2.16403e-41 0 1.15749e-40 0 5.20512e-40 0 1.9948e-39 0 7.09524e-39 0 2.18997e-38 0 6.35006e-38 0 1.67717e-37 0 4.19484e-37 0 9.9627e-37 0 2.18074e-36 0
5.81015 1.70332e-10 1.63316e-10 7.01616e-12 0.0411911 0.0236438 0 0 0 0 0 0 0 0 0 0 8.40779e-45 0 2.31214e-43 0 3.89281e-42 0 4.08983e-41 0 3.13671e-40 0 1.85099e-39 0 9.12235e-39 0 3.81192e-38 0 1.36812e-37 0 4.57391e-37 0 1.33617e-36 0 3.67813e-36 0 9.2647e-36 0 2.2158e-35 0 5.04489e-35 0 1.06284e-34 0
6.10839 1.64823e-10 1.5906e-10 5.76323e-12 0.0349662 0.0209958 0 0 0 0 0 0 0 0 1.68156e-44 0 9.83712e-43 0 2.49109e-41 0 3.66105e-40 0 3.42871e-39 0 2.3807e-38 0 1.28823e-37 0 5.87322e-37 0 2.28871e-36 0 7.71749e-36 0 2.43247e-35 0 6.74357e-35 0 1.76679e-34 0 4.25403e-34 0 9.75014e-34 0 2.13248e-33 0 4.33213e-33 0
6.42193 1.55714e-10 1.50909e-10 4.8045e-12 0.0308547 0.0192297 0 0 0 0 0 0 9.80909e-45 0 1.91137e-42 0 9.50781e-41 0 2.05627e-39 0 2.65044e-38 0 2.22541e-37 0 1.40571e-36 0 7.00457e-36 0 2.96548e-35 0 1.08136e-34 0 3.43621e-34 0 1.02402e-33 0 2.70103e-33 0 6.75153e-33 0 1.55735e-32 0 3.42775e-32 0 7.21589e-32 0 1.41605e-31 0
6.75157 1.44757e-10 1.40803e-10 3.95404e-12 0.027315 0.0176169 0 0 0 0 0 0 1.13785e-42 0 1.73332e-40 0 7.12353e-39 0 1.32592e-37 0 1.50851e-36 0 1.14162e-35 0 6.59059e-35 0 3.03639e-34 0 1.19804e-33 0 4.10122e-33 0 1.23171e-32 0 3.48004e-32 0 8.75466e-32 0 2.0926e-31 0 4.63391e-31 0 9.81392e-31 0 1.99223e-30 0 3.78296e-30 0
7.09813 1.37926e-10 1.34667e-10 3.25938e-12 0.0236314 0.0158593 0 0 0 0 8.40779e-44 0 1.0682e-40 0 1.27274e-38 0 4.36275e-37 0 7.0402e-36 0 7.11306e-35 0 4.87657e-34 0 2.5843e-33 0 1.10505e-32 0 4.0775e-32 0 1.31444e-31 0 3.74127e-31 0 1.00478e-30 0 2.41638e-30 0 5.53521e-30 0 1.17907e-29 0 2.40725e-29 0 4.72069e-29 0 8.68762e-29 0
7.46248 1.29692e-10 1.26984e-10 2.70852e-12 0.0208842 0.0145154 0 0 0 0 8.7455e-42 0 7.8048e-39 0 7.36352e-37 0 2.12404e-35 0 2.99237e-34 0 2.70051e-33 0 1.68532e-32 0 8.23288e-32 0 3.27931e-31 0 1.1353e-30 0 3.4565e-30 0 9.34836e-30 0 2.39243e-29 0 5.51222e-29 0 1.21261e-28 0 2.48938e-28 0 4.9084e-28 0 9.31415e-28 0 1.66382e-27 0
7.84553 1.1981e-10 1.17569e-10 2.24055e-12 0.0187009 0.0134376 0 0 2.8026e-45 0 6.98395e-40 0 4.47287e-37 0 3.37984e-35 0 8.27342e-34 0 1.02435e-32 0 8.30288e-32 0 4.7385e-31 0 2.14227e-30 0 7.97629e-30 0 2.59893e-29 0 7.49402e-29 0 1.93071e-28 0 4.71949e-28 0 1.04396e-27 0 2.20984e-27 0 4.38007e-27 0 8.35475e-27 0 1.53658e-26 0 2.66817e-26 0
8.24824 1.10306e-10 1.08449e-10 1.85685e-12 0.0168337 0.0124971 0 0 3.95166e-43 0 4.41521e-38 0 2.06259e-35 0 1.26187e-33 0 2.6424e-32 0 2.89339e-31 0 2.11748e-30 0 1.10994e-29 0 4.66168e-29 0 1.62777e-28 0 5.00658e-28 0 1.3709e-27 0 3.37241e-27 0 7.89163e-27 0 1.67928e-26 0 3.42687e-26 0 6.56918e-26 0 1.21415e-25 0 2.16756e-25 0 3.66379e-25 0
8.67162 1.00627e-10 9.90943e-11 1.53248e-12 0.0152293 0.0116895 0 0 3.51348e-41 0 2.22202e-36 0 7.68911e-34 0 3.84813e-32 0 6.94603e-31 0 6.76702e-30 0 4.49371e-29 0 2.17249e-28 0 8.5069e-28 0 2.79453e-27 0 8.1364e-27 0 2.12099e-26 0 4.99328e-26 0 1.12095e-25 0 2.29894e-25 0 4.53085e-25 0 8.41384e-25 0 1.50914e-24 0 2.61904e-24 0 4.3149e-24 0
9.11674 9.11471e-11 8.98864e-11 1.26066e-12 0.0138311 0.0109821 1.68156e-44 0 2.44595e-39 0 9.01691e-35 0 2.34539e-32 0 9.69657e-31 0 1.5197e-29 0 1.3248e-28 0 8.02071e-28 0 3.59048e-27 0 1.31529e-26 0 4.077e-26 0 1.12669e-25 0 2.80282e-25 0 6.3283e-25 0 1.36565e-24 0 2.70428e-24 0 5.15605e-24 0 9.28982e-24 0 1.6194e-23 0 2.73575e-23 0 4.39865e-23 0
9.5847 8.2397e-11 8.13625e-11 1.0346e-12 0.0125562 0.0103157 1.7236e-42 0 1.35802e-37 0 2.9961e-33 0 5.94012e-31 0 2.04776e-29 0 2.80587e-28 0 2.20062e-27 0 1.22018e-26 0 5.07672e-26 0 1.74551e-25 0 5.11979e-25 0 1.34636e-24 0 3.20352e-24 0 6.95107e-24 0 1.44475e-23 0 2.76707e-23 0 5.11213e-23 0 8.94969e-23 0 1.51835e-22 0 2.50021e-22 0 3.9278e-22 0
10.0767 7.50673e-11 7.42207e-11 8.46632e-13 0.0112783 0.00959901 1.35099e-40 0 6.13963e-36 0 8.31223e-32 0 1.2729e-29 0 3.69159e-28 0 4.45143e-27 0 3.15722e-26 0 1.61015e-25 0 6.24876e-25 0 2.02278e-24 0 5.62937e-24 0 1.41211e-23 0 3.22073e-23 0 6.72902e-23 0 1.34952e-22 0 2.50396e-22 0 4.48945e-22 0 7.6476e-22 0 1.26439e-21 0 2.03193e-21 0 3.12252e-21 0
10.5939 6.95776e-11 6.88862e-11 6.91413e-13 0.00993729 0.00879051 8.56492e-39 0 2.30576e-34 0 1.96186e-30 0 2.34997e-28 0 5.78202e-27 0 6.17409e-26 0 3.97959e-25 0 1.87436e-24 0 6.80813e-24 0 2.08101e-23 0 5.50913e-23 0 1.32127e-22 0 2.89463e-22 0 5.83401e-22 0 1.13094e-21 0 2.03601e-21 0 3.54786e-21 0 5.88849e-21 0 9.49945e-21 0 1.49165e-20 0 2.24467e-20 0
11.1377 6.61135e-11 6.5545e-11 5.68453e-13 0.00859814 0.00794746 4.47423e-37 0 7.32005e-33 0 4.00404e-29 0 3.79679e-27 0 7.98948e-26 0 7.59971e-25 0 4.4725e-24 0 1.95302e-23 0 6.66087e-23 0 1.9279e-22 0 4.86689e-22 0 1.11843e-21 0 2.35821e-21 0 4.593e-21 0 8.62053e-21 0 1.50802e-20 0 2.55751e-20 0 4.14106e-20 0 6.52628e-20 0 1.00246e-19 0 1.47872e-19 0
