# 0.000659502 2 94 : grain size, compostion index, size index
# Heating and cooling timescale: 5.5808e-06 9.60416e+23
# Ratio of heating to cooling to determine stochastic cutoff: 100
# Equilibrium emission is recorded even for those grains in the stochastic regime.
# Emission spectrum was computed for: 
# Type: IRSF
# Scales: 0.25 0.5 1 1.5 2 2.5 3 3.5 4 4.5 5 5.5 6 6.5 7 7.5 8 8.5 9 9.5 10
# StochasticallyHeated: 0 0 0 0 0 0 0 0 0 0 0 0 0 0 0 0 0 0 0 0 0
# Temperature: -1
# Wavelength  CExt  CAbs  CSca  Albedo G EqEm1 StEm1 EqEm2 StEm2 EqEm3 StEm3 EqEm4 StEm4 EqEm5 StEm5 EqEm6 StEm6 EqEm7 StEm7 EqEm8 StEm8 EqEm9 StEm9 EqEm10 StEm10 EqEm11 StEm11 EqEm12 StEm12 EqEm13 StEm13 EqEm14 StEm14 EqEm15 StEm15 EqEm16 StEm16 EqEm17 StEm17 EqEm18 StEm18 EqEm19 StEm19 EqEm20 StEm20 EqEm21 StEm21
0.05 2.75937e-06 1.16447e-06 1.5949e-06 0.577995 0.932139 0 0 0 0 0 0 0 0 0 0 0 0 0 0 0 0 0 0 0 0 0 0 0 0 0 0 0 0 0 0 0 0 0 0 0 0 0 0 0 0 0 0
0.0525665 2.76055e-06 1.15461e-06 1.60594e-06 0.581745 0.926382 0 0 0 0 0 0 0 0 0 0 0 0 0 0 0 0 0 0 0 0 0 0 0 0 0 0 0 0 0 0 0 0 0 0 0 0 0 0 0 0 0 0
0.0552647 2.7618e-06 1.13803e-06 1.62378e-06 0.587941 0.917575 0 0 0 0 0 0 0 0 0 0 0 0 0 0 0 0 0 0 0 0 0 0 0 0 0 0 0 0 0 0 0 0 0 0 0 0 0 0 0 0 0 0
0.0581015 2.76331e-06 1.1128e-06 1.65051e-06 0.597295 0.90388 0 0 0 0 0 0 0 0 0 0 0 0 0 0 0 0 0 0 0 0 0 0 0 0 0 0 0 0 0 0 0 0 0 0 0 0 0 0 0 0 0 0
0.0610839 2.76507e-06 1.08755e-06 1.67753e-06 0.606685 0.888526 0 0 0 0 0 0 0 0 0 0 0 0 0 0 0 0 0 0 0 0 0 0 0 0 0 0 0 0 0 0 0 0 0 0 0 0 0 0 0 0 0 0
0.0642193 2.76694e-06 1.07019e-06 1.69675e-06 0.613222 0.876043 0 0 0 0 0 0 0 0 0 0 0 0 0 0 0 0 0 0 0 0 0 0 0 0 0 0 0 0 0 0 0 0 0 0 0 0 0 0 0 0 0 0
0.0675157 2.76887e-06 1.06077e-06 1.7081e-06 0.616894 0.86724 0 0 0 0 0 0 0 0 0 0 0 0 0 0 0 0 0 0 0 0 0 0 0 0 0 0 0 0 0 0 0 0 0 0 0 0 0 0 0 0 0 0
0.0709813 2.77083e-06 1.05781e-06 1.71302e-06 0.618232 0.861693 0 0 0 0 0 0 0 0 0 0 0 0 0 0 0 0 0 0 0 0 0 0 0 0 0 0 0 0 0 0 0 0 0 0 0 0 0 0 0 0 0 0
0.0746248 2.7728e-06 1.06024e-06 1.71256e-06 0.617628 0.858995 0 0 0 0 0 0 0 0 0 0 0 0 0 0 0 0 0 0 0 0 0 0 0 0 0 0 0 0 0 0 0 0 0 0 0 0 0 0 0 0 0 0
0.0784553 2.7747e-06 1.06872e-06 1.70598e-06 0.614833 0.859637 0 0 0 0 0 0 0 0 0 0 0 0 0 0 0 0 0 0 0 0 0 0 0 0 0 0 0 0 0 0 0 0 0 0 0 0 0 0 0 0 0 0
0.0824824 2.77643e-06 1.08573e-06 1.69071e-06 0.608949 0.865142 0 0 0 0 0 0 0 0 0 0 0 0 0 0 0 0 0 0 0 0 0 0 0 0 0 0 0 0 0 0 0 0 0 0 0 0 0 0 0 0 0 0
0.0867162 2.77789e-06 1.09301e-06 1.68488e-06 0.606532 0.868109 0 0 0 0 0 0 0 0 0 0 0 0 0 0 0 0 0 0 0 0 0 0 0 0 0 0 0 0 0 0 0 0 0 0 0 0 0 0 0 0 0 0
0.0911674 2.77991e-06 1.08406e-06 1.69585e-06 0.610038 0.861655 0 0 0 0 0 0 0 0 0 0 0 0 0 0 0 0 0 0 0 0 0 0 0 0 0 0 0 0 0 0 0 0 0 0 0 0 0 0 0 0 0 0
0.095847 2.78204e-06 1.08379e-06 1.69825e-06 0.610434 0.858386 0 0 0 0 0 0 0 0 0 0 0 0 0 0 0 0 0 0 0 0 0 0 0 0 0 0 0 0 0 0 0 0 0 0 0 0 0 0 0 0 0 0
0.100767 2.784e-06 1.08805e-06 1.69595e-06 0.609177 0.857919 0 0 0 0 0 0 0 0 0 0 0 0 0 0 0 0 0 0 0 0 0 0 0 0 0 0 0 0 0 0 0 0 0 0 0 0 0 0 0 0 0 0
0.105939 2.7857e-06 1.09993e-06 1.68577e-06 0.605151 0.861801 0 0 0 0 0 0 0 0 0 0 0 0 0 0 0 0 0 0 0 0 0 0 0 0 0 0 0 0 0 0 0 0 0 0 0 0 0 0 0 0 0 0
0.111377 2.78725e-06 1.11198e-06 1.67527e-06 0.601046 0.866828 0 0 0 0 0 0 0 0 0 0 0 0 0 0 0 0 0 0 0 0 0 0 0 0 0 0 0 0 0 0 0 0 0 0 0 0 0 0 0 0 0 0
0.117094 2.78891e-06 1.12013e-06 1.66878e-06 0.598362 0.86998 0 0 0 0 0 0 0 0 0 0 0 0 0 0 0 0 0 0 0 0 0 0 0 0 0 0 0 0 0 0 0 0 0 0 0 0 0 0 0 0 0 0
0.123105 2.79066e-06 1.12596e-06 1.6647e-06 0.596526 0.871964 0 0 0 0 0 0 0 0 0 0 0 0 0 0 0 0 0 0 0 0 0 0 0 0 0 0 0 0 0 0 0 0 0 0 0 0 0 0 0 0 0 0
0.129424 2.79247e-06 1.12989e-06 1.66258e-06 0.595381 0.872927 0 0 0 0 0 0 0 0 0 0 0 0 0 0 0 0 0 0 0 0 0 0 0 0 0 0 0 0 0 0 0 0 0 0 0 0 0 0 0 0 0 0
0.136067 2.79437e-06 1.13171e-06 1.66266e-06 0.595004 0.872681 0 0 0 0 0 0 0 0 0 0 0 0 0 0 0 0 0 0 0 0 0 0 0 0 0 0 0 0 0 0 0 0 0 0 0 0 0 0 0 0 0 0
0.143051 2.79631e-06 1.1302e-06 1.66611e-06 0.595823 0.870361 0 0 0 0 0 0 0 0 0 0 0 0 0 0 0 0 0 0 0 0 0 0 0 0 0 0 0 0 0 0 0 0 0 0 0 0 0 0 0 0 0 0
0.150394 2.79792e-06 1.13489e-06 1.66303e-06 0.59438 0.871563 0 0 0 0 0 0 0 0 0 0 0 0 0 0 0 0 0 0 0 0 0 0 0 0 0 0 0 0 0 0 0 0 0 0 0 0 0 0 0 0 0 0
0.158114 2.79942e-06 1.1475e-06 1.65192e-06 0.590093 0.877948 0 0 0 0 0 0 0 0 0 0 0 0 0 0 0 0 0 0 0 0 0 0 0 0 0 0 0 0 0 0 0 0 0 0 0 0 0 0 0 0 0 0
0.16623 2.80119e-06 1.16182e-06 1.63937e-06 0.585242 0.885715 0 0 0 0 0 0 0 0 0 0 0 0 0 0 0 0 0 0 0 0 0 0 0 0 0 0 0 0 0 0 0 0 0 0 0 0 0 0 0 0 0 0
0.174762 2.80323e-06 1.17474e-06 1.62849e-06 0.580932 0.892766 0 0 0 0 0 0 0 0 0 0 0 0 0 0 0 0 0 0 0 0 0 0 0 0 0 0 0 0 0 0 0 0 0 0 0 0 0 0 0 0 0 0
0.183733 2.80544e-06 1.18643e-06 1.61901e-06 0.577096 0.899069 0 0 0 0 0 0 0 0 0 0 0 0 0 0 0 0 0 0 0 0 0 0 0 0 0 0 0 0 0 0 0 0 0 0 0 0 0 0 0 0 0 0
0.193164 2.80782e-06 1.19662e-06 1.6112e-06 0.573827 0.904416 0 0 0 0 0 0 0 0 0 0 0 0 0 0 0 0 0 0 0 0 0 0 0 0 0 0 0 0 0 0 0 0 0 0 0 0 0 0 0 0 0 0
0.203079 2.81031e-06 1.20557e-06 1.60474e-06 0.571018 0.908957 0 0 0 0 0 0 0 0 0 0 0 0 0 0 0 0 0 0 0 0 0 0 0 0 0 0 0 0 0 0 0 0 0 0 0 0 0 0 0 0 0 0
0.213503 2.81291e-06 1.21373e-06 1.59918e-06 0.568515 0.912945 0 0 0 0 0 0 0 0 0 0 0 0 0 0 0 0 0 0 0 0 0 0 0 0 0 0 0 0 0 0 0 0 0 0 0 0 0 0 0 0 0 0
0.224463 2.81562e-06 1.22086e-06 1.59476e-06 0.566397 0.916244 0 0 0 0 0 0 0 0 0 0 0 0 0 0 0 0 0 0 0 0 0 0 0 0 0 0 0 0 0 0 0 0 0 0 0 0 0 0 0 0 0 0
0.235984 2.81842e-06 1.22688e-06 1.59154e-06 0.564693 0.918804 0 0 0 0 0 0 0 0 0 0 0 0 0 0 0 0 0 0 0 0 0 0 0 0 0 0 0 0 0 0 0 0 0 0 0 0 0 0 0 0 0 0
0.248097 2.82131e-06 1.23194e-06 1.58937e-06 0.563345 0.920724 0 0 0 0 0 0 0 0 0 0 0 0 0 0 0 0 0 0 0 0 0 0 0 0 0 0 0 0 0 0 0 0 0 0 0 0 0 0 0 0 0 0
0.260832 2.82428e-06 1.23644e-06 1.58784e-06 0.562211 0.922253 0 0 0 0 0 0 0 0 0 0 0 0 0 0 0 0 0 0 0 0 0 0 0 0 0 0 0 0 0 0 0 0 0 0 0 0 0 0 0 0 0 0
0.274221 2.82736e-06 1.24062e-06 1.58675e-06 0.561211 0.923526 0 0 0 0 0 0 0 0 0 0 0 0 0 0 0 0 0 0 0 0 0 0 0 0 0 0 0 0 0 0 0 0 0 0 0 0 0 0 0 0 0 0
0.288297 2.83054e-06 1.24452e-06 1.58602e-06 0.560325 0.924575 0 0 0 0 0 0 0 0 0 0 0 0 0 0 0 0 0 0 0 0 0 0 0 0 0 0 0 0 0 0 0 0 0 0 0 0 0 0 0 0 0 0
0.303095 2.83382e-06 1.24821e-06 1.58561e-06 0.55953 0.925442 0 0 0 0 0 0 0 0 0 0 0 0 0 0 0 0 0 0 0 0 0 0 0 0 0 0 0 0 0 0 0 0 0 0 0 0 0 0 0 0 0 0
0.318653 2.83721e-06 1.2518e-06 1.58541e-06 0.55879 0.926181 0 0 0 0 0 0 0 0 0 0 0 0 0 0 0 0 0 0 0 0 0 0 0 0 0 0 0 0 0 0 0 0 0 0 0 0 0 0 0 0 0 0
0.335009 2.84069e-06 1.2553e-06 1.5854e-06 0.558102 0.926797 0 0 0 0 0 0 0 0 0 0 0 0 0 0 0 0 0 0 0 0 0 0 0 0 0 0 0 0 0 0 0 0 0 0 0 0 0 0 0 0 0 0
0.352205 2.84435e-06 1.25876e-06 1.5856e-06 0.557454 0.927331 0 0 0 0 0 0 0 0 0 0 0 0 0 0 0 0 0 0 0 0 0 0 0 0 0 0 0 0 0 0 0 0 0 0 0 0 0 0 0 0 0 0
0.370284 2.84804e-06 1.2622e-06 1.58584e-06 0.556817 0.927785 0 0 0 0 0 0 0 0 0 0 0 0 0 0 0 0 0 0 0 0 0 0 0 0 0 0 0 0 0 0 0 0 0 0 0 0 0 0 0 0 0 0
0.389291 2.85202e-06 1.26561e-06 1.58641e-06 0.556241 0.928152 0 0 0 0 0 0 0 0 0 0 0 0 0 0 0 0 0 0 0 0 0 0 0 0 0 0 0 0 0 0 0 0 0 0 0 0 0 0 0 0 0 0
0.409273 2.85599e-06 1.26902e-06 1.58697e-06 0.555664 0.928444 0 0 0 0 0 0 0 0 0 0 0 0 0 0 0 0 0 0 0 0 0 0 0 0 0 0 0 0 0 0 0 0 0 0 0 0 0 0 0 0 0 0
0.430281 2.86001e-06 1.27251e-06 1.5875e-06 0.555068 0.928704 0 0 0 0 0 0 0 0 0 0 0 0 0 0 0 0 0 0 0 0 0 0 0 0 0 0 0 0 0 0 0 0 0 0 0 0 0 0 0 0 0 0
0.452368 2.86414e-06 1.27597e-06 1.58816e-06 0.5545 0.928876 0 0 0 0 0 0 0 0 0 0 0 0 0 0 0 0 0 0 0 0 0 0 0 0 0 0 0 0 0 0 0 0 0 0 0 0 0 0 0 0 0 0
0.475588 2.86836e-06 1.27951e-06 1.58885e-06 0.553922 0.929011 0 0 0 0 0 0 0 0 0 0 0 0 0 0 0 0 0 0 0 0 0 0 0 0 0 0 0 0 0 0 0 0 0 0 0 0 0 0 0 0 0 0
0.5 2.87289e-06 1.28312e-06 1.58977e-06 0.553369 0.929116 0 0 0 0 0 0 0 0 0 0 0 0 0 0 0 0 0 0 0 0 0 0 0 0 0 0 0 0 0 0 0 0 0 0 0 0 0 0 0 0 0 0
0.525665 2.87759e-06 1.2868e-06 1.59078e-06 0.552818 0.929188 0 0 0 0 0 0 0 0 0 0 0 0 0 0 0 0 0 0 0 0 0 0 0 0 0 0 0 0 0 0 0 0 0 0 0 0 0 0 0 0 0 0
0.552648 2.88275e-06 1.2906e-06 1.59215e-06 0.552303 0.929258 0 0 0 0 0 0 0 0 0 0 0 0 0 0 0 0 0 0 0 0 0 0 0 0 0 0 0 0 0 0 0 0 0 0 0 0 0 0 0 0 0 0
0.581015 2.88878e-06 1.29434e-06 1.59444e-06 0.551941 0.929256 0 0 0 0 0 0 0 0 0 0 0 0 0 0 0 0 0 0 0 0 0 0 0 0 0 0 0 0 0 0 0 0 0 0 0 0 0 0 0 0 0 0
0.610839 2.89405e-06 1.29819e-06 1.59586e-06 0.551428 0.929195 0 0 0 0 0 0 0 0 0 0 0 0 0 0 0 0 0 0 0 0 0 0 0 0 0 0 0 0 0 0 0 0 0 0 0 0 0 0 0 0 0 0
0.642193 2.8972e-06 1.30212e-06 1.59509e-06 0.550561 0.92901 0 0 0 0 0 0 0 0 0 0 0 0 0 0 0 0 0 0 0 0 0 0 0 0 0 0 0 0 0 0 0 0 0 0 0 0 0 0 0 0 0 0
0.675157 2.90296e-06 1.30608e-06 1.59688e-06 0.550086 0.928881 0 0 0 0 0 0 0 0 0 0 0 0 0 0 0 0 0 0 0 0 0 0 0 0 0 0 0 0 0 0 0 0 0 0 0 0 0 0 0 0 0 0
0.709813 2.91259e-06 1.31004e-06 1.60255e-06 0.550216 0.928854 0 0 0 0 0 0 0 0 0 0 0 0 0 0 0 0 0 0 0 0 0 0 0 0 0 0 0 0 0 0 0 0 0 0 0 0 0 0 0 0 0 0
0.746248 2.91314e-06 1.31405e-06 1.59909e-06 0.548924 0.928376 0 0 0 0 0 0 0 0 0 0 0 0 0 0 0 0 0 0 0 0 0 0 0 0 0 0 0 0 0 0 0 0 0 0 0 0 0 0 0 0 0 0
0.784553 2.92289e-06 1.31807e-06 1.60482e-06 0.549053 0.928252 0 0 0 0 0 0 0 0 0 0 0 0 0 0 0 0 0 0 0 0 0 0 0 0 0 0 0 0 0 0 0 0 0 0 0 0 0 0 0 0 0 0
0.824824 2.92924e-06 1.32198e-06 1.60726e-06 0.548695 0.927877 0 0 0 0 0 0 0 0 0 0 0 0 0 0 0 0 0 0 0 0 0 0 0 0 0 0 0 0 0 0 0 0 0 0 0 0 0 0 0 0 0 0
0.867162 2.93197e-06 1.32574e-06 1.60623e-06 0.547832 0.927265 0 0 0 0 0 0 0 0 0 0 0 0 0 0 0 0 0 0 0 0 0 0 0 0 0 0 0 0 0 0 0 0 0 0 0 0 0 0 0 0 0 0
0.911674 2.94505e-06 1.32953e-06 1.61551e-06 0.548553 0.927 0 0 0 0 0 0 0 0 0 0 0 0 0 0 0 0 0 0 0 0 0 0 0 0 0 0 0 0 0 0 0 0 0 0 0 0 0 0 0 0 0 0
0.95847 2.94486e-06 1.33292e-06 1.61194e-06 0.547375 0.926027 0 0 0 0 0 0 0 0 0 0 0 0 0 0 0 0 0 0 0 0 0 0 0 0 0 0 0 0 0 0 0 0 0 0 0 0 0 0 0 0 0 0
1.00767 2.95733e-06 1.33643e-06 1.6209e-06 0.548094 0.925562 0 0 0 0 0 0 0 0 0 0 0 0 0 0 0 0 0 0 0 0 0 0 0 0 0 0 0 0 0 0 0 0 0 0 0 0 0 0 0 0 0 0
1.05939 2.96672e-06 1.33978e-06 1.62694e-06 0.548398 0.924881 0 0 0 0 0 0 0 0 0 0 0 0 0 0 0 0 0 0 0 0 0 0 0 0 0 0 0 0 0 0 0 0 0 0 0 0 0 0 0 0 0 0
1.11377 2.9598e-06 1.34272e-06 1.61708e-06 0.546348 0.923192 0 0 0 0 0 0 0 0 0 0 0 0 0 0 0 0 0 0 0 0 0 0 0 0 0 0 0 0 0 0 0 0 0 0 0 0 0 0 0 0 0 0
1.17094 2.99828e-06 1.34487e-06 1.65341e-06 0.551453 0.923478 0 0 0 0 0 0 0 0 0 0 0 0 0 0 0 0 0 0 0 0 0 0 0 0 0 0 0 0 0 0 0 0 0 0 0 0 0 0 0 0 0 0
1.23105 2.96889e-06 1.34688e-06 1.62201e-06 0.546335 0.920453 0 0 0 0 0 0 0 0 0 0 0 0 0 0 0 0 0 0 0 0 0 0 0 0 0 0 0 0 0 0 0 0 0 0 0 0 0 0 0 0 0 0
1.29424 2.998e-06 1.34974e-06 1.64826e-06 0.549786 0.92033 0 0 0 0 0 0 0 0 0 0 0 0 0 0 0 0 0 0 0 0 0 0 0 0 0 0 0 0 0 0 0 0 0 0 0 0 0 0 0 0 0 0
1.36067 3.02772e-06 1.35101e-06 1.67671e-06 0.553786 0.919922 0 0 0 0 0 0 0 0 0 0 0 0 0 0 0 0 0 0 0 0 0 0 0 0 0 0 0 0 0 0 0 0 0 0 0 0 0 0 0 0 0 0
1.43051 2.98365e-06 1.35331e-06 1.63034e-06 0.546426 0.91544 0 0 0 0 0 0 0 0 0 0 0 0 0 0 0 0 0 0 0 0 0 0 0 0 0 0 0 0 0 0 0 0 0 0 0 0 0 0 0 0 0 0
1.50394 3.02139e-06 1.35436e-06 1.66703e-06 0.551743 0.914962 0 0 0 0 0 0 0 0 0 0 0 0 0 0 0 0 0 0 0 0 0 0 0 0 0 0 0 0 0 0 0 0 0 0 0 0 0 0 0 0 0 0
1.58114 3.07488e-06 1.35394e-06 1.72093e-06 0.559676 0.915197 0 0 0 0 0 0 0 0 0 0 0 0 0 0 0 0 0 0 0 0 0 0 0 0 0 0 0 0 0 0 0 0 0 0 0 0 0 0 0 0 0 0
1.6623 3.02199e-06 1.35375e-06 1.66824e-06 0.552034 0.910455 0 0 0 0 0 0 0 0 0 0 0 0 0 0 0 0 0 0 0 0 0 0 0 0 0 0 0 0 0 0 0 0 0 0 0 0 0 0 0 0 0 0
1.74763 3.00509e-06 1.35571e-06 1.64937e-06 0.54886 0.906733 0 0 0 0 0 0 0 0 0 0 0 0 0 0 0 0 0 0 0 0 0 0 0 0 0 0 0 0 0 0 0 0 0 0 0 0 0 0 0 0 0 0
1.83733 3.09916e-06 1.35674e-06 1.74242e-06 0.562223 0.908659 0 0 0 0 0 0 0 0 0 0 0 0 0 0 0 0 0 0 0 0 0 0 0 0 0 0 0 0 0 0 0 0 0 0 0 0 0 0 0 0 0 0
1.93164 3.1339e-06 1.35548e-06 1.77842e-06 0.567478 0.906883 0 0 0 0 0 0 0 0 0 0 0 0 0 0 0 0 0 0 0 0 0 0 0 0 0 0 0 0 0 0 0 0 0 0 0 0 0 0 0 0 0 0
2.03079 3.0596e-06 1.35634e-06 1.70326e-06 0.556693 0.899197 0 0 0 0 0 0 0 0 0 0 0 0 0 0 0 0 0 0 0 0 0 0 0 0 0 0 0 0 0 0 0 0 0 0 0 0 0 0 0 0 0 0
2.13503 3.01507e-06 1.35272e-06 1.66235e-06 0.551348 0.892581 0 0 0 0 0 0 0 0 0 0 0 0 0 0 0 0 0 0 0 0 0 0 0 0 0 0 0 0 0 0 0 0 0 0 0 0 0 0 0 0 0 0
2.24463 3.11242e-06 1.35016e-06 1.76226e-06 0.566203 0.895368 0 0 0 0 0 0 0 0 0 0 0 0 0 0 0 0 0 0 0 0 0 0 0 0 0 0 0 0 0 0 0 0 0 0 0 0 0 0 0 0 0 0
2.35984 3.22945e-06 1.35424e-06 1.87521e-06 0.580659 0.89967 0 0 0 0 0 0 0 0 0 0 0 0 0 0 0 0 0 0 0 0 0 0 0 0 0 0 0 0 0 0 0 0 0 0 0 0 0 0 0 0 0 0
2.48097 3.20788e-06 1.35587e-06 1.85201e-06 0.577332 0.896387 0 0 0 0 0 0 0 0 0 0 0 0 0 0 0 0 0 0 0 0 0 0 0 0 0 0 0 0 0 0 0 0 0 0 0 0 0 0 0 0 0 0
2.60832 3.087e-06 1.35305e-06 1.73395e-06 0.561694 0.884668 0 0 0 0 0 0 0 0 0 0 0 0 0 0 0 0 0 0 0 0 0 0 0 0 0 0 0 0 0 0 0 0 0 0 0 0 0 0 0 0 0 0
2.74221 3.02376e-06 1.35164e-06 1.67212e-06 0.552993 0.873772 0 0 0 0 0 0 0 0 0 0 0 0 0 0 0 0 0 0 0 0 0 0 0 0 0 0 0 0 0 0 0 0 0 0 0 0 0 0 0 0 0 0
2.88297 3.1044e-06 1.34759e-06 1.75681e-06 0.56591 0.87221 0 0 0 0 0 0 0 0 0 0 0 0 0 0 0 0 0 0 0 0 0 0 0 0 0 0 0 0 0 0 0 0 0 0 0 0 0 0 0 0 0 0
3.03095 3.27268e-06 1.34466e-06 1.92801e-06 0.589124 0.877298 0 0 0 0 0 0 0 0 0 0 0 0 0 0 0 0 0 0 0 0 0 0 0 0 0 0 0 0 0 0 0 0 0 0 0 0 0 0 0 0 0 0
3.18653 3.38313e-06 1.3459e-06 2.03723e-06 0.602173 0.877935 0 0 0 0 0 0 0 0 0 0 0 0 0 0 0 0 0 0 0 0 0 0 0 0 0 0 0 0 0 0 0 0 0 0 0 0 0 0 0 0 0 0
3.35009 3.35013e-06 1.34674e-06 2.00339e-06 0.598003 0.868197 0 0 0 0 0 0 0 0 0 0 0 0 0 0 0 0 0 0 0 0 0 0 0 0 0 0 0 0 0 0 0 0 0 0 0 0 0 0 0 0 0 0
3.52205 3.21043e-06 1.34984e-06 1.86059e-06 0.579546 0.854074 0 0 0 0 0 0 0 0 0 0 0 0 0 0 0 0 0 0 0 0 0 0 0 0 0 0 0 0 0 0 0 0 0 0 0 0 0 0 0 0 0 0
3.70284 3.07952e-06 1.34769e-06 1.73184e-06 0.562371 0.842408 0 0 0 0 0 0 0 0 0 0 0 0 0 0 0 0 0 0 0 0 0 0 0 0 0 0 0 0 0 0 0 0 0 0 0 0 0 0 0 0 0 0
3.89291 3.05906e-06 1.33735e-06 1.72171e-06 0.562823 0.834362 0 0 0 0 0 0 0 0 0 0 0 0 0 0 0 0 0 0 0 0 0 0 0 0 0 0 0 0 0 0 0 0 0 0 0 0 0 0 0 0 0 0
4.09273 3.17659e-06 1.33422e-06 1.84237e-06 0.579983 0.847027 0 0 0 0 0 0 0 0 0 0 0 0 0 0 0 0 0 0 0 0 0 0 0 0 0 0 0 0 0 0 0 0 0 0 0 0 0 0 0 0 0 0
4.30281 3.39692e-06 1.33707e-06 2.05985e-06 0.606388 0.862855 0 0 0 0 0 0 0 0 0 0 0 0 0 0 0 0 0 0 0 0 0 0 0 0 0 0 0 0 0 0 0 0 0 0 0 0 0 0 0 0 0 0
4.52368 3.63366e-06 1.34675e-06 2.2869e-06 0.629367 0.874433 0 0 0 0 0 0 0 0 0 0 0 0 0 0 0 0 0 0 0 0 0 0 0 0 0 0 0 0 0 0 0 0 0 0 0 0 0 0 0 0 0 0
4.75588 3.75419e-06 1.36007e-06 2.39411e-06 0.637718 0.870104 0 0 0 0 0 0 0 0 0 0 0 0 0 0 0 0 0 0 0 0 0 0 0 0 0 0 0 0 0 0 0 0 0 0 0 0 0 0 0 0 0 0
5 3.62448e-06 1.36659e-06 2.2579e-06 0.622957 0.858085 0 0 0 0 0 0 0 0 0 0 0 0 0 0 0 0 0 0 0 0 0 0 0 0 0 0 0 0 0 0 0 0 0 0 0 0 0 0 0 0 0 0
5.25665 3.42091e-06 1.38879e-06 2.03212e-06 0.594029 0.821444 0 0 0 0 0 0 0 0 0 0 0 0 0 0 0 0 0 0 0 0 0 0 0 0 0 0 0 0 0 0 0 0 0 0 0 0 0 0 0 0 0 0
5.52648 3.11879e-06 1.36421e-06 1.75458e-06 0.562584 0.772478 0 0 0 0 0 0 0 0 0 0 0 0 0 0 0 0 0 0 0 0 0 0 0 0 0 0 0 0 0 0 0 0 0 0 0 0 0 0 0 0 0 0
5.81015 2.99732e-06 1.42295e-06 1.57437e-06 0.525259 0.714723 0 0 0 0 0 0 0 0 0 0 0 0 0 0 0 0 0 0 0 0 0 0 0 0 0 0 0 0 0 0 0 0 0 0 0 0 0 0 0 0 0 0
6.10839 3.04143e-06 1.37573e-06 1.6657e-06 0.547671 0.714621 0 0 0 0 0 0 0 0 0 0 0 0 0 0 0 0 0 0 0 0 0 0 0 0 0 0 0 0 0 0 0 0 0 0 0 0 0 0 0 0 0 0
6.42193 3.37711e-06 1.40204e-06 1.97507e-06 0.584839 0.734627 0 0 0 0 0 0 0 0 0 0 0 0 0 0 0 0 0 0 0 0 0 0 0 0 0 0 0 0 0 0 0 0 0 0 0 0 0 0 0 0 0 0
6.75157 3.91531e-06 1.33893e-06 2.57638e-06 0.658026 0.79922 0 0 0 0 0 0 0 0 0 0 0 0 0 0 0 0 0 0 0 0 0 0 0 0 0 0 0 0 0 0 0 0 0 0 0 0 0 0 0 0 0 0
7.09813 4.42431e-06 1.27888e-06 3.14543e-06 0.710942 0.841444 0 0 0 0 0 0 0 0 0 0 0 0 0 0 0 0 0 0 0 0 0 0 0 0 0 0 0 0 0 0 0 0 0 0 0 0 0 0 0 0 0 0
7.46248 4.2964e-06 1.29257e-06 3.00383e-06 0.699151 0.891608 0 0 0 0 0 0 0 0 0 0 0 0 0 0 0 0 0 0 0 0 0 0 0 0 0 0 0 0 0 0 0 0 0 0 0 0 0 0 0 0 0 0
7.84553 3.00529e-06 1.47166e-06 1.53363e-06 0.51031 0.913628 0 0 0 0 0 0 0 0 0 0 0 0 0 0 0 0 0 0 0 0 0 0 0 0 0 0 0 0 0 0 0 0 0 0 0 0 0 0 0 0 0 0
8.24824 2.69113e-06 1.61248e-06 1.07864e-06 0.400814 0.902861 0 0 0 0 0 0 0 0 0 0 0 0 0 0 0 0 0 0 0 0 0 0 0 0 0 0 0 0 0 0 0 0 0 0 0 0 0 0 0 0 0 0
8.67162 2.90419e-06 1.6676e-06 1.23659e-06 0.425795 0.876064 0 0 0 0 0 0 0 0 0 0 0 0 0 0 0 0 0 0 0 0 0 0 0 0 0 0 0 0 0 0 0 0 0 0 0 0 0 0 0 0 0 0
9.11674 3.18775e-06 1.70469e-06 1.48306e-06 0.465236 0.835887 0 0 0 0 0 0 0 0 0 0 0 0 0 0 0 0 0 0 0 0 0 0 0 0 0 0 0 0 0 0 0 0 1.4013e-45 0 5.60519e-45 0 1.4013e-44 0 3.50325e-44 0 8.12753e-44 0
9.5847 3.4584e-06 1.77061e-06 1.68779e-06 0.488025 0.804169 0 0 0 0 0 0 0 0 0 0 0 0 0 0 0 0 0 0 0 0 0 0 0 0 2.8026e-45 0 1.12104e-44 0 4.06377e-44 0 1.28919e-43 0 3.71344e-43 0 1.01874e-42 0 2.57419e-42 0 6.14049e-42 0 1.38574e-41 0
10.0767 3.5846e-06 1.81296e-06 1.77164e-06 0.494237 0.787692 0 0 0 0 0 0 0 0 0 0 0 0 0 0 0 0 0 0 4.2039e-45 0 2.66247e-44 0 1.34525e-43 0 5.73131e-43 0 2.09494e-42 0 6.95044e-42 0 2.10545e-41 0 5.72753e-41 0 1.49725e-40 0 3.61735e-40 0 8.27049e-40 0 1.79359e-39 0
10.5939 3.67695e-06 1.83619e-06 1.84076e-06 0.500623 0.770818 0 0 0 0 0 0 0 0 0 0 0 0 1.4013e-45 0 1.26117e-44 0 1.14906e-43 0 8.3097e-43 0 4.6383e-42 0 2.14034e-41 0 8.47407e-41 0 2.90824e-40 0 9.10267e-40 0 2.61204e-39 0 6.76683e-39 0 1.68785e-38 0 3.90598e-38 0 8.577e-38 0 1.79107e-37 0
11.1377 3.71829e-06 1.8678e-06 1.85049e-06 0.497672 0.763711 0 0 0 0 0 0 0 0 0 0 7.00649e-45 0 1.68156e-43 0 2.14679e-42 0 1.83388e-41 0 1.1992e-40 0 6.14986e-40 0 2.63409e-39 0 9.75112e-39 0 3.15097e-38 0 9.328e-38 0 2.54242e-37 0 6.28737e-37 0 1.49981e-36 0 3.33152e-36 0 7.03993e-36 0 1.41819e-35 0
11.7094 3.74811e-06 1.90055e-06 1.84756e-06 0.492932 0.75722 0 0 0 0 0 0 0 0 3.08286e-44 0 1.31862e-42 0 2.59759e-41 0 2.92311e-40 0 2.24893e-39 0 1.34177e-38 0 6.35314e-38 0 2.53459e-37 0 8.80195e-37 0 2.68595e-36 0 7.54101e-36 0 1.95716e-35 0 4.63074e-35 0 1.05873e-34 0 2.26186e-34 0 4.60817e-34 0 8.97105e-34 0
12.3105 3.77059e-06 1.93978e-06 1.83081e-06 0.485551 0.752235 0 0 0 0 0 0 4.34403e-44 0 5.19742e-42 0 1.82385e-40 0 3.10583e-39 0 3.10548e-38 0 2.16269e-37 0 1.18256e-36 0 5.18995e-36 0 1.93528e-35 0 6.32436e-35 0 1.82759e-34 0 4.8789e-34 0 1.20864e-33 0 2.74194e-33 0 6.02085e-33 0 1.23949e-32 0 2.43902e-32 0 4.59627e-32 0
12.9424 3.79497e-06 1.99221e-06 1.80276e-06 0.475039 0.749213 0 0 0 0 7.00649e-45 0 6.98267e-42 0 6.68857e-40 0 1.97293e-38 0 2.92543e-37 0 2.61408e-36 0 1.6559e-35 0 8.3337e-35 0 3.40264e-34 0 1.18984e-33 0 3.66989e-33 0 1.00697e-32 0 2.56234e-32 0 6.07262e-32 0 1.32363e-31 0 2.79698e-31 0 5.55859e-31 0 1.05824e-30 0 1.93347e-30 0
13.6067 3.86115e-06 2.06181e-06 1.79933e-06 0.466009 0.747826 0 0 0 0 1.30321e-42 0 8.82846e-40 0 6.76845e-38 0 1.69241e-36 0 2.19993e-35 0 1.76644e-34 0 1.02252e-33 0 4.75566e-33 0 1.81283e-32 0 5.96331e-32 0 1.74088e-31 0 4.54703e-31 0 1.10547e-30 0 2.51182e-30 0 5.27059e-30 0 1.07378e-29 0 2.06361e-29 0 3.80711e-29 0 6.75413e-29 0
14.3051 4.02158e-06 2.12053e-06 1.90104e-06 0.472711 0.755244 0 0 1.4013e-45 0 1.7585e-40 0 8.66678e-38 0 5.37586e-36 0 1.14871e-34 0 1.31742e-33 0 9.55533e-33 0 5.07675e-32 0 2.19045e-31 0 7.8218e-31 0 2.42766e-30 0 6.72593e-30 0 1.67631e-29 0 3.90242e-29 0 8.51871e-29 0 1.72397e-28 0 3.39233e-28 0 6.31477e-28 0 1.13068e-27 0 1.95055e-27 0
15.0394 3.99752e-06 2.109e-06 1.88852e-06 0.472424 0.755474 0 0 2.81661e-43 0 1.7867e-38 0 6.50574e-36 0 3.29888e-34 0 6.07019e-33 0 6.18e-32 0 4.06907e-31 0 1.9926e-30 0 8.00513e-30 0 2.68629e-29 0 7.88894e-29 0 2.07958e-28 0 4.95693e-28 0 1.10733e-27 0 2.32682e-27 0 4.54957e-27 0 8.66135e-27 0 1.56412e-26 0 2.72208e-26 0 4.57252e-26 0
15.8114 3.87566e-06 2.0921e-06 1.78356e-06 0.460196 0.744791 0 0 3.8645e-41 0 1.42702e-36 0 3.89605e-34 0 1.63097e-32 0 2.60332e-31 0 2.36652e-30 0 1.42119e-29 0 6.44012e-29 0 2.41743e-28 0 7.64659e-28 0 2.13054e-27 0 5.35666e-27 0 1.22381e-26 0 2.62866e-26 0 5.32691e-26 0 1.00801e-25 0 1.85964e-25 0 3.26273e-25 0 5.52666e-25 0 9.05149e-25 0
16.623 3.79895e-06 2.0942e-06 1.70474e-06 0.448741 0.725251 5.1848e-44 0 4.14991e-39 0 9.17016e-35 0 1.90383e-32 0 6.64147e-31 0 9.25992e-30 0 7.55766e-29 0 4.15834e-28 0 1.75033e-27 0 6.15932e-27 0 1.84174e-26 0 4.88117e-26 0 1.17322e-25 0 2.57442e-25 0 5.32707e-25 0 1.04293e-24 0 1.91302e-24 0 3.42529e-24 0 5.84695e-24 0 9.65242e-24 0 1.54324e-23 0
