# 8.19495e-08 4 8 : grain size, compostion index, size index
# This grain was stochastically heated: Yes
# Heating and cooling timescale: 7.12168e+06 0.823979
# Ratio of heating to cooling to determine stochastic cutoff: 100
# Equilibrium emission is recorded even for those grains in the stochastic regime.
# Emission spectrum was computed for: 
# Type: IRSF
# Scale: 1
# Temperature: -1
# Wavelength  CExt  CAbs  CSca  Albedo G EqEmission StEmission
0.05 2.32103e-15 2.32053e-15 5.00635e-19 0.000215695 0.00156642 0 6.48827e-270
0.0525665 2.40024e-15 2.39976e-15 4.77027e-19 0.000198742 0.00140807 0 3.79043e-257
0.0552647 2.51765e-15 2.51718e-15 4.72649e-19 0.000187734 0.00126015 0 5.33008e-245
0.0581015 2.75928e-15 2.75877e-15 5.08459e-19 0.000184272 0.00112005 0 1.99358e-233
0.0610839 3.12599e-15 3.12542e-15 5.71283e-19 0.000182752 0.00099209 0 2.09782e-222
0.0642193 3.47945e-15 3.47883e-15 6.18824e-19 0.000177851 0.000880744 0 6.29008e-212
0.0675157 3.69607e-15 3.69544e-15 6.28019e-19 0.000169915 0.000786844 0 5.54528e-202
0.0709813 3.71053e-15 3.70994e-15 5.94804e-19 0.000160302 0.000710621 0 1.50752e-192
0.0746248 3.51669e-15 3.51616e-15 5.27135e-19 0.000149895 0.000652373 0 1.33359e-183
0.0784553 3.14959e-15 3.14915e-15 4.36475e-19 0.000138582 0.000612926 0 4.04713e-175
0.0824824 2.67088e-15 2.67055e-15 3.3434e-19 0.00012518 0.000591574 0 4.43675e-167
0.0867162 2.44706e-15 2.4468e-15 2.6357e-19 0.000107709 0.000545678 0 2.10083e-159
0.0911674 2.30969e-15 2.30946e-15 2.32824e-19 0.000100803 0.000499115 0 4.28591e-152
0.095847 1.99728e-15 1.99709e-15 1.95164e-19 9.77149e-05 0.000479913 0 3.49461e-145
0.100767 1.68844e-15 1.68828e-15 1.57676e-19 9.33854e-05 0.000466847 0 1.26594e-138
0.105939 1.37014e-15 1.37002e-15 1.21358e-19 8.85731e-05 0.000460728 0 2.07857e-132
0.111377 1.15163e-15 1.15153e-15 9.30582e-20 8.08059e-05 0.000440353 0 1.73143e-126
0.117094 9.84094e-16 9.84021e-16 7.30022e-20 7.41822e-05 0.000415571 0 7.43742e-121
0.123105 8.45882e-16 8.45824e-16 5.80468e-20 6.86228e-05 0.000389823 0 1.68484e-115
0.129424 7.26892e-16 7.26846e-16 4.66837e-20 6.42236e-05 0.000364789 0 2.06456e-110
0.136067 6.20405e-16 6.20367e-16 3.80593e-20 6.1346e-05 0.000341838 0 1.40098e-105
0.143051 5.10993e-16 5.10961e-16 3.16443e-20 6.19272e-05 0.00032415 0 5.26287e-101
0.150394 3.63708e-16 3.63683e-16 2.53231e-20 6.96248e-05 0.000308572 0 1.00703e-96
0.158114 2.39791e-16 2.39772e-16 1.92902e-20 8.0446e-05 0.000282189 0 1.07954e-92
0.16623 1.56843e-16 1.56828e-16 1.44918e-20 9.23973e-05 0.000251034 0 7.11637e-89
0.174762 1.06576e-16 1.06565e-16 1.09252e-20 0.000102511 0.000221574 0 3.09209e-85
0.183733 7.12972e-17 7.12889e-17 8.26544e-21 0.000115929 0.000195493 0 8.58025e-82
0.193164 4.85974e-17 4.85911e-17 6.30346e-21 0.000129708 0.000172924 0 1.60718e-78
0.203079 3.38099e-17 3.3805e-17 4.84329e-21 0.000143251 0.000153423 0 2.07688e-75
0.213503 2.49934e-17 2.49897e-17 3.73732e-21 0.000149532 0.000136402 0 1.96467e-72
0.224463 2.1052e-17 2.10491e-17 2.9055e-21 0.000138015 0.000121615 0 1.48562e-69
0.235984 1.99775e-17 1.99752e-17 2.28272e-21 0.000114264 0.000108803 0 9.0333e-67
0.248097 1.98365e-17 1.98347e-17 1.80989e-21 9.124e-05 9.761e-05 0 4.16986e-64
0.260832 1.9325e-17 1.93236e-17 1.44284e-21 7.46619e-05 8.77135e-05 0 1.39171e-61
0.274221 1.86858e-17 1.86847e-17 1.15456e-21 6.17879e-05 7.89067e-05 0 3.44806e-59
0.288297 1.80024e-17 1.80015e-17 9.27711e-22 5.15326e-05 7.10659e-05 0 6.45689e-57
0.303095 1.73184e-17 1.73176e-17 7.47396e-22 4.31562e-05 6.40493e-05 0 9.28212e-55
0.318653 1.66297e-17 1.66291e-17 6.0317e-22 3.62706e-05 5.77516e-05 0 1.03713e-52
0.335009 1.59468e-17 1.59463e-17 4.87892e-22 3.0595e-05 5.21039e-05 0 9.12141e-51
0.352205 1.52804e-17 1.528e-17 3.95277e-22 2.58683e-05 4.7028e-05 0 6.39169e-49
0.370284 1.46273e-17 1.4627e-17 3.20555e-22 2.19148e-05 4.24565e-05 0 3.60711e-47
0.389291 1.39936e-17 1.39933e-17 2.60308e-22 1.8602e-05 3.83411e-05 0 1.65731e-45
0.409273 1.3373e-17 1.33728e-17 2.11749e-22 1.58341e-05 3.46399e-05 0 6.25845e-44
0.430281 1.27698e-17 1.27696e-17 1.72294e-22 1.34924e-05 3.12979e-05 0 1.96147e-42
0.452368 1.2188e-17 1.21879e-17 1.40362e-22 1.15164e-05 2.82858e-05 0 5.15001e-41
0.475588 1.16277e-17 1.16276e-17 1.14391e-22 9.83782e-06 2.55656e-05 0 1.14256e-39
0.5 1.10928e-17 1.10927e-17 9.33267e-23 8.41329e-06 2.31136e-05 0 2.1603e-38
0.525665 1.05818e-17 1.05817e-17 7.61498e-23 7.19629e-06 2.0897e-05 0 3.50816e-37
0.552647 1.00948e-17 1.00948e-17 6.2118e-23 6.15345e-06 1.88915e-05 0 4.92974e-36
0.581015 9.6244e-18 9.62435e-18 5.07681e-23 5.27494e-06 1.7086e-05 0 6.0329e-35
0.610839 9.17715e-18 9.1771e-18 4.14974e-23 4.52182e-06 1.54537e-05 0 6.47764e-34
0.642193 8.75155e-18 8.75151e-18 3.39074e-23 3.87445e-06 1.39759e-05 0 6.14104e-33
0.675157 8.34702e-18 8.34699e-18 2.7711e-23 3.31987e-06 1.26398e-05 0 5.17209e-32
0.709813 7.96326e-18 7.96324e-18 2.26694e-23 2.84675e-06 1.14344e-05 0 3.89257e-31
0.746248 7.59872e-18 7.5987e-18 1.85431e-23 2.44029e-06 1.03436e-05 0 2.63221e-30
0.784553 7.2518e-18 7.25179e-18 1.51632e-23 2.09096e-06 9.35607e-06 0 1.60748e-29
0.824824 6.91829e-18 6.91828e-18 1.24042e-23 1.79296e-06 8.46345e-06 0 8.90561e-29
0.867162 6.59924e-18 6.59923e-18 1.01557e-23 1.53892e-06 7.65771e-06 0 4.49806e-28
0.911674 6.29472e-18 6.29471e-18 8.31289e-24 1.32061e-06 6.92822e-06 0 2.08079e-27
0.95847 6.00256e-18 6.00255e-18 6.80369e-24 1.13347e-06 6.26786e-06 0 8.85164e-27
1.00767 5.72511e-18 5.72511e-18 5.56986e-24 9.72883e-07 5.67095e-06 0 3.47845e-26
1.05939 5.46292e-18 5.46291e-18 4.56022e-24 8.34758e-07 5.13103e-06 0 1.26796e-25
1.11377 5.2134e-18 5.2134e-18 3.73254e-24 7.15951e-07 4.64211e-06 0 4.30167e-25
1.17094 4.97489e-18 4.97489e-18 3.05384e-24 6.13851e-07 4.19936e-06 8.70684e-310 1.36274e-24
1.23105 4.74793e-18 4.74793e-18 2.49981e-24 5.26505e-07 3.79938e-06 5.95652e-295 4.04553e-24
1.29424 4.54319e-18 4.54319e-18 2.04552e-24 4.50238e-07 3.43726e-06 7.59674e-281 1.13179e-23
1.36067 4.35099e-18 4.35099e-18 1.67443e-24 3.8484e-07 3.10976e-06 1.95742e-267 2.98766e-23
1.43051 4.168e-18 4.168e-18 1.36964e-24 3.28608e-07 2.81296e-06 1.10119e-254 7.45845e-23
1.50394 3.99381e-18 3.99381e-18 1.12113e-24 2.80716e-07 2.54498e-06 1.45693e-242 1.76565e-22
1.58114 3.82699e-18 3.82699e-18 9.17433e-25 2.39727e-07 2.30245e-06 4.8637e-231 3.97292e-22
1.6623 3.66708e-18 3.66708e-18 7.5012e-25 2.04555e-07 2.08251e-06 4.38189e-220 8.51742e-22
1.74762 3.51642e-18 3.51642e-18 6.13467e-25 1.74458e-07 1.88367e-06 1.13664e-209 1.74517e-21
1.83733 3.37885e-18 3.37885e-18 5.01597e-25 1.48452e-07 1.70388e-06 9.03223e-200 3.42942e-21
1.93164 3.25026e-18 3.25026e-18 4.09951e-25 1.26129e-07 1.54107e-06 2.32782e-190 6.47095e-21
2.03079 3.12882e-18 3.12882e-18 3.34998e-25 1.07068e-07 1.39369e-06 2.05493e-181 1.17429e-20
2.13503 3.01374e-18 3.01374e-18 2.7376e-25 9.08371e-08 1.26051e-06 6.54726e-173 2.05312e-20
2.24463 2.90652e-18 2.90652e-18 2.23572e-25 7.69208e-08 1.13977e-06 7.9169e-165 3.46692e-20
2.35984 2.8041e-18 2.80409e-18 1.82495e-25 6.50816e-08 1.0306e-06 3.80632e-157 5.65869e-20
2.48097 2.70724e-18 2.70724e-18 1.48821e-25 5.49714e-08 9.31511e-07 7.61471e-150 8.94542e-20
2.60832 2.61765e-18 2.61765e-18 1.21398e-25 4.63765e-08 8.42244e-07 6.62087e-143 1.37279e-19
2.74221 2.53261e-18 2.53261e-18 9.8978e-26 3.90814e-08 7.61055e-07 2.60396e-136 2.04638e-19
2.88297 2.45366e-18 2.45366e-18 8.05608e-26 3.28329e-08 6.87713e-07 4.8189e-130 2.96942e-19
3.03095 2.37905e-18 2.37905e-18 6.55607e-26 2.75575e-08 6.215e-07 4.3514e-124 4.19753e-19
3.18653 2.3139e-18 2.3139e-18 5.3327e-26 2.30463e-08 5.6149e-07 1.99028e-118 5.8011e-19
3.35009 2.2523e-18 2.2523e-18 4.33189e-26 1.92331e-08 5.07398e-07 4.75665e-113 7.82957e-19
3.52205 2.18545e-18 2.18545e-18 3.51267e-26 1.6073e-08 4.57936e-07 6.10716e-108 1.02913e-18
3.70284 2.11959e-18 2.11959e-18 2.84669e-26 1.34304e-08 4.13468e-07 4.35316e-103 1.32236e-18
3.89291 2.05593e-18 2.05593e-18 2.30236e-26 1.11987e-08 3.73021e-07 1.77388e-98 1.66374e-18
4.09273 1.99561e-18 1.99561e-18 1.85707e-26 9.30575e-09 3.37153e-07 4.24929e-94 2.05297e-18
4.30281 1.93247e-18 1.93247e-18 1.49367e-26 7.72933e-09 3.03236e-07 6.12231e-90 2.47924e-18
4.52368 1.87433e-18 1.87433e-18 1.19817e-26 6.39252e-09 2.73329e-07 5.45998e-86 2.94462e-18
4.75588 1.8239e-18 1.8239e-18 9.57156e-27 5.24786e-09 2.45881e-07 3.09071e-82 3.44842e-18
5 1.78603e-18 1.78603e-18 7.59878e-27 4.25456e-09 2.21166e-07 1.13907e-78 3.99748e-18
5.25665 1.76546e-18 1.76546e-18 5.99397e-27 3.39513e-09 1.98675e-07 2.80062e-75 4.60499e-18
5.52648 1.75976e-18 1.75976e-18 4.6966e-27 2.66889e-09 1.78752e-07 4.6822e-72 5.27041e-18
5.81015 1.77771e-18 1.77771e-18 3.63609e-27 2.04538e-09 1.59689e-07 5.45434e-69 6.02771e-18
6.10839 1.81173e-18 1.81173e-18 2.77909e-27 1.53394e-09 1.44062e-07 4.48781e-66 6.86271e-18
6.42193 1.83863e-18 1.83863e-18 2.08559e-27 1.13432e-09 1.27971e-07 2.61989e-63 7.68293e-18
6.75157 1.84342e-18 1.84342e-18 1.50721e-27 8.17614e-10 1.11712e-07 1.09439e-60 8.39686e-18
7.09813 1.87298e-18 1.87298e-18 1.00937e-27 5.38913e-10 9.84163e-08 3.40925e-58 9.19625e-18
7.46248 2.30787e-18 2.30787e-18 5.68758e-28 2.46443e-10 8.93017e-08 9.62e-56 1.20861e-17
7.84553 4.48547e-18 4.48547e-18 2.84263e-28 6.33743e-11 7.54722e-08 3.24422e-53 2.4807e-17
8.24824 9.33094e-18 9.33094e-18 3.47369e-28 3.72277e-11 6.53201e-08 8.99295e-51 5.39946e-17
8.67162 1.42418e-17 1.42418e-17 6.24826e-28 4.38727e-11 5.57538e-08 1.42297e-48 8.54829e-17
9.11674 2.09964e-17 2.09964e-17 1.21841e-27 5.80295e-11 4.78544e-08 1.71274e-46 1.2967e-16
9.5847 2.36226e-17 2.36226e-17 1.73304e-27 7.3364e-11 4.36195e-08 1.25359e-44 1.48983e-16
10.0767 2.11648e-17 2.11648e-17 1.66643e-27 7.87357e-11 3.99264e-08 5.88659e-43 1.3537e-16
10.5939 1.77543e-17 1.77543e-17 1.51091e-27 8.5101e-11 3.98196e-08 2.10736e-41 1.14425e-16
11.1377 1.39573e-17 1.39573e-17 1.19583e-27 8.56773e-11 3.94298e-08 5.81461e-40 9.01091e-17
11.7094 1.11447e-17 1.11447e-17 9.3973e-28 8.4321e-11 3.89109e-08 1.35301e-38 7.16863e-17
12.3105 8.70256e-18 8.70256e-18 7.20385e-28 8.27785e-11 3.89447e-08 2.5799e-37 5.54979e-17
12.9424 6.79211e-18 6.79211e-18 5.36823e-28 7.90363e-11 3.86191e-08 4.15534e-36 4.27511e-17
13.6067 5.42796e-18 5.42796e-18 3.84428e-28 7.08236e-11 3.33137e-08 5.83987e-35 3.35836e-17
14.3051 4.98543e-18 4.98543e-18 2.63763e-28 5.29068e-11 3.04587e-08 8.10065e-34 3.02096e-17
15.0394 5.54833e-18 5.54833e-18 1.96242e-28 3.53695e-11 2.85056e-08 1.17806e-32 3.28183e-17
15.8114 6.40436e-18 6.40436e-18 1.62637e-28 2.53946e-11 2.47997e-08 1.54831e-31 3.68677e-17
16.623 7.36019e-18 7.36019e-18 1.48704e-28 2.02039e-11 2.239e-08 1.77734e-30 4.11248e-17
17.4762 8.11641e-18 8.11641e-18 1.45298e-28 1.79017e-11 1.65144e-08 1.72836e-29 4.39104e-17
18.3733 8.37798e-18 8.37798e-18 1.43357e-28 1.71112e-11 1.93668e-08 1.39746e-28 4.37898e-17
19.3164 7.98849e-18 7.98849e-18 1.35534e-28 1.69662e-11 2.0442e-08 9.32468e-28 4.02583e-17
20.3079 7.13853e-18 7.13853e-18 1.19441e-28 1.67319e-11 1.24442e-08 5.23834e-27 3.46221e-17
21.3503 6.37618e-18 6.37618e-18 1.01326e-28 1.58914e-11 1.9576e-08 2.65623e-26 2.97107e-17
22.4463 5.70267e-18 5.70267e-18 8.53435e-29 1.49655e-11 1.55069e-08 1.22401e-25 2.54881e-17
23.5984 5.11238e-18 5.11238e-18 7.09957e-29 1.3887e-11 6.92329e-09 5.15528e-25 2.18839e-17
24.8097 4.60099e-18 4.60099e-18 5.91225e-29 1.285e-11 8.35487e-09 1.99663e-24 1.88345e-17
26.0832 4.13267e-18 4.13267e-18 4.88392e-29 1.18178e-11 7.73723e-09 7.09963e-24 1.61552e-17
27.4221 3.70642e-18 3.70642e-18 4.03419e-29 1.08843e-11 1.25473e-08 2.32832e-23 1.38167e-17
28.8297 3.33716e-18 3.33716e-18 3.3316e-29 9.98334e-12 -1.27034e-09 7.10792e-23 1.18465e-17
30.3095 3.00335e-18 3.00335e-18 2.74992e-29 9.15617e-12 5.23159e-09 2.01864e-22 1.01386e-17
31.8653 2.70911e-18 2.70911e-18 2.26068e-29 8.34474e-12 2.03331e-08 5.36648e-22 8.68468e-18
33.5009 2.43937e-18 2.43937e-18 1.86151e-29 7.63111e-12 1.41913e-08 1.33451e-21 7.41577e-18
35.2206 2.21594e-18 2.21594e-18 1.52944e-29 6.90198e-12 5.78236e-09 3.14732e-21 6.37935e-18
37.0284 2.00946e-18 2.00946e-18 1.257e-29 6.25542e-12 1.14518e-08 6.98653e-21 5.4705e-18
38.9291 1.81814e-18 1.81814e-18 1.0342e-29 5.68822e-12 3.00437e-08 1.46326e-20 4.67398e-18
40.9273 1.64107e-18 1.64107e-18 8.51936e-30 5.19136e-12 2.31964e-08 2.89884e-20 3.97816e-18
43.0282 1.48034e-18 1.48034e-18 7.00074e-30 4.72915e-12 6.23976e-09 5.45621e-20 3.37904e-18
45.2368 1.33222e-18 1.33222e-18 5.75078e-30 4.3167e-12 1.37028e-08 9.76408e-20 2.85934e-18
47.5588 1.20098e-18 1.20098e-18 4.71855e-30 3.92892e-12 -1.89236e-08 1.67201e-19 2.42029e-18
50 1.07906e-18 1.07906e-18 3.87413e-30 3.59027e-12 -2.65016e-08 2.73201e-19 2.03895e-18
52.5665 9.7064e-19 9.7064e-19 3.17662e-30 3.27271e-12 -2.41838e-08 4.28787e-19 1.71727e-18
55.2648 8.72491e-19 8.72491e-19 2.60299e-30 2.98341e-12 -7.84664e-09 6.46514e-19 1.44331e-18
58.1015 7.83895e-19 7.83895e-19 2.13384e-30 2.72209e-12 -1.27069e-08 9.38507e-19 1.21082e-18
61.0839 7.04343e-19 7.04343e-19 1.7479e-30 2.4816e-12 -1.43891e-08 1.31475e-18 1.01449e-18
64.2193 6.32441e-19 6.32441e-19 1.43112e-30 2.26285e-12 1.88313e-08 1.77926e-18 8.48299e-19
67.5157 5.68158e-19 5.68158e-19 1.17155e-30 2.06201e-12 -2.03107e-09 2.33259e-18 7.08767e-19
70.9813 5.1044e-19 5.1044e-19 9.59215e-31 1.87919e-12 -3.04844e-08 2.96584e-18 5.91475e-19
74.6248 4.58896e-19 4.58896e-19 7.84919e-31 1.71045e-12 -4.16503e-08 3.66504e-18 4.93321e-19
78.4553 4.12431e-19 4.12431e-19 6.42167e-31 1.55703e-12 -4.02037e-08 4.40381e-18 4.1084e-19
82.4824 3.70807e-19 3.70807e-19 5.25576e-31 1.41738e-12 9.98789e-08 5.15554e-18 3.41879e-19
86.7162 3.33635e-19 3.33635e-19 4.30087e-31 1.28909e-12 -2.38038e-08 5.89045e-18 2.84389e-19
91.1674 3.00235e-19 3.00235e-19 3.51854e-31 1.17193e-12 -2.33658e-08 6.57241e-18 2.36348e-19
95.847 2.70198e-19 2.70198e-19 2.878e-31 1.06514e-12 9.16793e-08 7.16925e-18 1.96233e-19
100.767 2.43351e-19 2.43351e-19 2.35553e-31 9.67954e-13 -1.16693e-08 7.6592e-18 1.62887e-19
105.939 2.19591e-19 2.19591e-19 1.92716e-31 8.77615e-13 6.24757e-08 8.03182e-18 1.35337e-19
111.377 1.97783e-19 1.97783e-19 1.57641e-31 7.9704e-13 -1.18534e-07 8.24468e-18 1.12136e-19
117.094 1.78118e-19 1.78118e-19 1.28986e-31 7.2416e-13 8.41673e-08 8.30676e-18 9.28183e-20
123.105 1.60609e-19 1.60609e-19 1.05562e-31 6.57261e-13 -2.33697e-08 8.23365e-18 7.68607e-20
129.424 1.45069e-19 1.45069e-19 8.63808e-32 5.95448e-13 -1.20405e-07 8.03971e-18 6.37049e-20
136.067 1.3068e-19 1.3068e-19 7.06705e-32 5.40793e-13 -8.58146e-08 7.70608e-18 5.26189e-20
143.051 1.18191e-19 1.18191e-19 5.78358e-32 4.89343e-13 -1.21349e-07 7.30524e-18 4.36054e-20
150.394 1.06463e-19 1.06463e-19 4.7334e-32 4.44604e-13 -1.75406e-07 6.79961e-18 3.59653e-20
158.114 9.65579e-20 9.65579e-20 3.87289e-32 4.01095e-13 -2.27418e-07 6.28688e-18 2.98481e-20
166.23 8.71971e-20 8.71971e-20 3.16829e-32 3.63348e-13 2.16865e-08 5.71421e-18 2.46495e-20
174.763 7.83579e-20 7.83579e-20 2.59373e-32 3.3101e-13 3.26767e-07 5.10604e-18 2.02447e-20
183.733 7.10066e-20 7.10066e-20 2.12288e-32 2.9897e-13 -1.44905e-07 4.54855e-18 1.67576e-20
193.164 6.40885e-20 6.40885e-20 1.73711e-32 2.71049e-13 3.83409e-07 3.99235e-18 1.38085e-20
203.079 5.77511e-20 5.77511e-20 1.42173e-32 2.46181e-13 6.30321e-07 3.46294e-18 1.13543e-20
213.503 5.2258e-20 5.2258e-20 1.16406e-32 2.22752e-13 3.79594e-08 2.98736e-18 9.37081e-21
224.463 4.70565e-20 4.70565e-20 9.52869e-33 2.02495e-13 -7.27389e-08 2.5413e-18 7.69251e-21
235.984 4.25195e-20 4.25195e-20 7.79814e-33 1.83401e-13 7.98845e-07 2.15083e-18 6.33385e-21
248.097 3.8259e-20 3.8259e-20 6.38732e-33 1.66949e-13 -2.06967e-07 1.79817e-18 5.19106e-21
260.832 3.40471e-20 3.40471e-20 5.22928e-33 1.5359e-13 -3.68701e-07 1.47557e-18 4.20593e-21
274.221 3.02507e-20 3.02507e-20 4.27872e-33 1.41442e-13 3.25428e-07 1.20033e-18 3.40092e-21
288.297 2.70129e-20 2.70129e-20 3.49941e-33 1.29546e-13 1.73936e-06 9.74788e-19 2.76269e-21
303.095 2.40766e-20 2.40766e-20 2.86375e-33 1.18943e-13 -1.1675e-06 7.85183e-19 2.23911e-21
318.653 2.16768e-20 2.16768e-20 2.34294e-33 1.08085e-13 -6.26513e-07 6.35093e-19 1.83237e-21
335.009 1.93902e-20 1.93902e-20 1.91629e-33 9.88279e-14 1.49157e-06 5.07553e-19 1.48921e-21
352.206 1.72962e-20 1.72962e-20 1.56764e-33 9.06345e-14 1.00615e-06 4.02386e-19 1.20639e-21
370.284 1.56327e-20 1.56327e-20 1.28285e-33 8.20621e-14 -6.24913e-08 3.21659e-19 9.89771e-22
389.291 1.405e-20 1.405e-20 1.0495e-33 7.46976e-14 -5.6149e-07 2.54518e-19 8.07117e-22
409.273 1.26743e-20 1.26743e-20 8.58383e-34 6.77261e-14 -2.47314e-06 2.0127e-19 6.60275e-22
430.282 1.14825e-20 1.14825e-20 7.02427e-34 6.11734e-14 1.05978e-06 1.59203e-19 5.42187e-22
452.368 1.03741e-20 1.03741e-20 5.74774e-34 5.54045e-14 -1.7918e-06 1.25108e-19 4.43742e-22
475.588 9.44695e-21 9.44695e-21 4.70258e-34 4.97788e-14 2.61199e-06 9.87427e-20 3.65829e-22
500 8.56527e-21 8.56527e-21 3.84683e-34 4.4912e-14 -1.28858e-06 7.73376e-20 3.00096e-22
525.665 7.82573e-21 7.82573e-21 3.14916e-34 4.02411e-14 2.31432e-06 6.08495e-20 2.47904e-22
552.648 7.13421e-21 7.13421e-21 2.57726e-34 3.61254e-14 2.31665e-06 4.76309e-20 2.04187e-22
581.015 6.53467e-21 6.53467e-21 2.1087e-34 3.22694e-14 2.93185e-06 3.73583e-20 1.68847e-22
610.838 5.97997e-21 5.97997e-21 1.72577e-34 2.88592e-14 8.38049e-07 2.91988e-20 1.39381e-22
642.193 5.48849e-21 5.48849e-21 1.41288e-34 2.57425e-14 -5.61232e-07 2.28335e-20 1.15296e-22
675.157 5.04624e-21 5.04624e-21 1.15641e-34 2.29163e-14 3.53096e-06 1.78466e-20 9.54516e-23
709.813 4.64823e-21 4.64823e-21 9.46258e-35 2.03574e-14 3.6805e-06 1.39449e-20 7.90921e-23
746.247 4.28533e-21 4.28533e-21 7.74697e-35 1.80779e-14 -2.38981e-06 1.0884e-20 6.5526e-23
784.553 3.95538e-21 3.95538e-21 6.34193e-35 1.60337e-14 1.01526e-06 8.48885e-21 5.42911e-23
824.824 3.65364e-21 3.65364e-21 5.1907e-35 1.42069e-14 -5.37292e-06 6.61419e-21 4.49659e-23
867.162 3.37152e-21 3.37152e-21 4.24818e-35 1.26002e-14 -3.59688e-06 5.1398e-21 3.71609e-23
911.674 3.10772e-21 3.10772e-21 3.47894e-35 1.11945e-14 8.39979e-06 3.98338e-21 3.06384e-23
958.471 2.8682e-21 2.8682e-21 2.84846e-35 9.9312e-15 2.29672e-06 3.08652e-21 2.52604e-23
1007.67 2.64327e-21 2.64327e-21 2.33156e-35 8.82072e-15 -1.10057e-05 2.38481e-21 2.07686e-23
1059.39 2.44522e-21 2.44522e-21 1.90877e-35 7.80613e-15 -1.22636e-05 1.8472e-21 1.7117e-23
1113.77 2.25694e-21 2.25694e-21 1.563e-35 6.9253e-15 -1.81161e-06 1.42584e-21 1.40563e-23
1170.94 2.07778e-21 2.07778e-21 1.27948e-35 6.15795e-15 3.75493e-06 1.09647e-21 1.14969e-23
1231.05 1.91231e-21 1.91231e-21 1.04728e-35 5.47652e-15 -1.88926e-05 8.42043e-22 9.38752e-24
1294.24 1.76877e-21 1.76877e-21 8.57674e-36 4.84898e-15 -2.83627e-07 6.49202e-22 7.69233e-24
1360.67 1.63376e-21 1.63376e-21 7.0227e-36 4.29848e-15 5.66956e-06 4.99354e-22 6.28564e-24
1430.51 1.50534e-21 1.50534e-21 5.74875e-36 3.81891e-15 -1.87708e-06 3.82795e-22 5.11625e-24
1503.94 1.38421e-21 1.38421e-21 4.70585e-36 3.39965e-15 5.897e-05 2.92601e-22 4.15024e-24
1581.14 1.28354e-21 1.28354e-21 3.85368e-36 3.00239e-15 1.58198e-05 2.25356e-22 3.39024e-24
1662.3 1.18789e-21 1.18789e-21 3.15507e-36 2.65604e-15 1.10243e-05 1.73097e-22 2.76034e-24
1747.63 1.09688e-21 1.09688e-21 2.58229e-36 2.35421e-15 -3.8171e-05 1.32559e-22 2.23941e-24
1837.33 1.0104e-21 1.0104e-21 2.11424e-36 2.09248e-15 6.92597e-07 1.01201e-22 1.81003e-24
1931.64 9.2821e-22 9.2821e-22 1.73135e-36 1.86525e-15 9.2162e-07 7.70014e-23 1.45714e-24
2030.79 8.53408e-22 8.53408e-22 1.4173e-36 1.66075e-15 -4.36536e-05 5.86007e-23 1.17252e-24
2135.03 7.89826e-22 7.89826e-22 1.15992e-36 1.46858e-15 -7.79236e-06 4.48661e-23 9.48541e-25
2244.63 7.29436e-22 7.29436e-22 9.49819e-37 1.30213e-15 -8.86753e-06 3.42594e-23 7.6476e-25
2359.84 6.7199e-22 6.7199e-22 7.77681e-37 1.15728e-15 1.0633e-05 2.60817e-23 6.14275e-25
2480.97 6.17623e-22 6.17623e-22 6.36496e-37 1.03056e-15 -8.59625e-05 1.97998e-23 4.91615e-25
2608.32 5.71344e-22 5.71344e-22 5.21033e-37 9.11944e-16 -1.58906e-05 1.51217e-23 3.95488e-25
2742.21 5.27607e-22 5.27607e-22 4.26721e-37 8.08786e-16 1.2784e-05 1.15237e-23 3.17176e-25
