# 0.000317185 1 87 : grain size, compostion index, size index
# Heating and cooling timescale: 2.58718e-05 2.96754e+15
# Ratio of heating to cooling to determine stochastic cutoff: 100
# Equilibrium emission is recorded even for those grains in the stochastic regime.
# Emission spectrum was computed for: 
# Type: ISRF
# Scales: 0.25 0.5 1 1.5 2 2.5 3 3.5 4 4.5 5 5.5 6 6.5 7 7.5 8 8.5 9 9.5 10
# StochasticallyHeated: 0 0 0 0 0 0 0 0 0 0 0 0 0 0 0 0 0 0 0 0 0
# Temperature: -1
# Wavelength  CExt  CAbs  CSca  Albedo G EqEm1 StEm1 EqEm2 StEm2 EqEm3 StEm3 EqEm4 StEm4 EqEm5 StEm5 EqEm6 StEm6 EqEm7 StEm7 EqEm8 StEm8 EqEm9 StEm9 EqEm10 StEm10 EqEm11 StEm11 EqEm12 StEm12 EqEm13 StEm13 EqEm14 StEm14 EqEm15 StEm15 EqEm16 StEm16 EqEm17 StEm17 EqEm18 StEm18 EqEm19 StEm19 EqEm20 StEm20 EqEm21 StEm21
0.05 6.41655e-07 2.70488e-07 3.71167e-07 0.578453 0.932388 0 0 0 0 0 0 0 0 0 0 0 0 0 0 0 0 0 0 0 0 0 0 0 0 0 0 0 0 0 0 0 0 0 0 0 0 0 0 0 0 0 0
0.0525665 6.42106e-07 2.68287e-07 3.73819e-07 0.582176 0.92667 0 0 0 0 0 0 0 0 0 0 0 0 0 0 0 0 0 0 0 0 0 0 0 0 0 0 0 0 0 0 0 0 0 0 0 0 0 0 0 0 0 0
0.0552647 6.42602e-07 2.64514e-07 3.78088e-07 0.588371 0.917932 0 0 0 0 0 0 0 0 0 0 0 0 0 0 0 0 0 0 0 0 0 0 0 0 0 0 0 0 0 0 0 0 0 0 0 0 0 0 0 0 0 0
0.0581015 6.43205e-07 2.58755e-07 3.8445e-07 0.597709 0.904351 0 0 0 0 0 0 0 0 0 0 0 0 0 0 0 0 0 0 0 0 0 0 0 0 0 0 0 0 0 0 0 0 0 0 0 0 0 0 0 0 0 0
0.0610839 6.43931e-07 2.53048e-07 3.90883e-07 0.607026 0.889127 0 0 0 0 0 0 0 0 0 0 0 0 0 0 0 0 0 0 0 0 0 0 0 0 0 0 0 0 0 0 0 0 0 0 0 0 0 0 0 0 0 0
0.0642193 6.44712e-07 2.49225e-07 3.95487e-07 0.613433 0.876752 0 0 0 0 0 0 0 0 0 0 0 0 0 0 0 0 0 0 0 0 0 0 0 0 0 0 0 0 0 0 0 0 0 0 0 0 0 0 0 0 0 0
0.0675157 6.45509e-07 2.47273e-07 3.98237e-07 0.616934 0.868026 0 0 0 0 0 0 0 0 0 0 0 0 0 0 0 0 0 0 0 0 0 0 0 0 0 0 0 0 0 0 0 0 0 0 0 0 0 0 0 0 0 0
0.0709813 6.46317e-07 2.46846e-07 3.99471e-07 0.618073 0.862529 0 0 0 0 0 0 0 0 0 0 0 0 0 0 0 0 0 0 0 0 0 0 0 0 0 0 0 0 0 0 0 0 0 0 0 0 0 0 0 0 0 0
0.0746248 6.47121e-07 2.47687e-07 3.99434e-07 0.617248 0.859854 0 0 0 0 0 0 0 0 0 0 0 0 0 0 0 0 0 0 0 0 0 0 0 0 0 0 0 0 0 0 0 0 0 0 0 0 0 0 0 0 0 0
0.0784553 6.47889e-07 2.49944e-07 3.97945e-07 0.614218 0.860484 0 0 0 0 0 0 0 0 0 0 0 0 0 0 0 0 0 0 0 0 0 0 0 0 0 0 0 0 0 0 0 0 0 0 0 0 0 0 0 0 0 0
0.0824824 6.4856e-07 2.54169e-07 3.94391e-07 0.608103 0.865924 0 0 0 0 0 0 0 0 0 0 0 0 0 0 0 0 0 0 0 0 0 0 0 0 0 0 0 0 0 0 0 0 0 0 0 0 0 0 0 0 0 0
0.0867162 6.49104e-07 2.56023e-07 3.93081e-07 0.605575 0.868861 0 0 0 0 0 0 0 0 0 0 0 0 0 0 0 0 0 0 0 0 0 0 0 0 0 0 0 0 0 0 0 0 0 0 0 0 0 0 0 0 0 0
0.0911674 6.49905e-07 2.54173e-07 3.95732e-07 0.608908 0.86247 0 0 0 0 0 0 0 0 0 0 0 0 0 0 0 0 0 0 0 0 0 0 0 0 0 0 0 0 0 0 0 0 0 0 0 0 0 0 0 0 0 0
0.095847 6.50749e-07 2.54412e-07 3.96338e-07 0.609048 0.859219 0 0 0 0 0 0 0 0 0 0 0 0 0 0 0 0 0 0 0 0 0 0 0 0 0 0 0 0 0 0 0 0 0 0 0 0 0 0 0 0 0 0
0.100767 6.51501e-07 2.55677e-07 3.95824e-07 0.607557 0.858736 0 0 0 0 0 0 0 0 0 0 0 0 0 0 0 0 0 0 0 0 0 0 0 0 0 0 0 0 0 0 0 0 0 0 0 0 0 0 0 0 0 0
0.105939 6.52114e-07 2.58679e-07 3.93435e-07 0.603322 0.86255 0 0 0 0 0 0 0 0 0 0 0 0 0 0 0 0 0 0 0 0 0 0 0 0 0 0 0 0 0 0 0 0 0 0 0 0 0 0 0 0 0 0
0.111377 6.52669e-07 2.61678e-07 3.90991e-07 0.599065 0.867503 0 0 0 0 0 0 0 0 0 0 0 0 0 0 0 0 0 0 0 0 0 0 0 0 0 0 0 0 0 0 0 0 0 0 0 0 0 0 0 0 0 0
0.117094 6.53266e-07 2.6377e-07 3.89496e-07 0.596228 0.8706 0 0 0 0 0 0 0 0 0 0 0 0 0 0 0 0 0 0 0 0 0 0 0 0 0 0 0 0 0 0 0 0 0 0 0 0 0 0 0 0 0 0
0.123105 6.53895e-07 2.65327e-07 3.88569e-07 0.594237 0.87254 0 0 0 0 0 0 0 0 0 0 0 0 0 0 0 0 0 0 0 0 0 0 0 0 0 0 0 0 0 0 0 0 0 0 0 0 0 0 0 0 0 0
0.129424 6.54555e-07 2.66447e-07 3.88108e-07 0.592934 0.873468 0 0 0 0 0 0 0 0 0 0 0 0 0 0 0 0 0 0 0 0 0 0 0 0 0 0 0 0 0 0 0 0 0 0 0 0 0 0 0 0 0 0
0.136067 6.55244e-07 2.67083e-07 3.88161e-07 0.592392 0.873195 0 0 0 0 0 0 0 0 0 0 0 0 0 0 0 0 0 0 0 0 0 0 0 0 0 0 0 0 0 0 0 0 0 0 0 0 0 0 0 0 0 0
0.143051 6.55946e-07 2.66949e-07 3.88998e-07 0.593033 0.870859 0 0 0 0 0 0 0 0 0 0 0 0 0 0 0 0 0 0 0 0 0 0 0 0 0 0 0 0 0 0 0 0 0 0 0 0 0 0 0 0 0 0
0.150394 6.56494e-07 2.68216e-07 3.88278e-07 0.591442 0.871997 0 0 0 0 0 0 0 0 0 0 0 0 0 0 0 0 0 0 0 0 0 0 0 0 0 0 0 0 0 0 0 0 0 0 0 0 0 0 0 0 0 0
0.158114 6.57018e-07 2.71317e-07 3.85701e-07 0.587048 0.878272 0 0 0 0 0 0 0 0 0 0 0 0 0 0 0 0 0 0 0 0 0 0 0 0 0 0 0 0 0 0 0 0 0 0 0 0 0 0 0 0 0 0
0.16623 6.57658e-07 2.74849e-07 3.82809e-07 0.582079 0.885924 0 0 0 0 0 0 0 0 0 0 0 0 0 0 0 0 0 0 0 0 0 0 0 0 0 0 0 0 0 0 0 0 0 0 0 0 0 0 0 0 0 0
0.174762 6.58417e-07 2.78099e-07 3.80318e-07 0.577625 0.892871 0 0 0 0 0 0 0 0 0 0 0 0 0 0 0 0 0 0 0 0 0 0 0 0 0 0 0 0 0 0 0 0 0 0 0 0 0 0 0 0 0 0
0.183733 6.59248e-07 2.81088e-07 3.7816e-07 0.573624 0.899077 0 0 0 0 0 0 0 0 0 0 0 0 0 0 0 0 0 0 0 0 0 0 0 0 0 0 0 0 0 0 0 0 0 0 0 0 0 0 0 0 0 0
0.193164 6.6014e-07 2.83751e-07 3.76389e-07 0.570165 0.904333 0 0 0 0 0 0 0 0 0 0 0 0 0 0 0 0 0 0 0 0 0 0 0 0 0 0 0 0 0 0 0 0 0 0 0 0 0 0 0 0 0 0
0.203079 6.61083e-07 2.86148e-07 3.74935e-07 0.567152 0.908787 0 0 0 0 0 0 0 0 0 0 0 0 0 0 0 0 0 0 0 0 0 0 0 0 0 0 0 0 0 0 0 0 0 0 0 0 0 0 0 0 0 0
0.213503 6.62058e-07 2.88374e-07 3.73684e-07 0.564427 0.912685 0 0 0 0 0 0 0 0 0 0 0 0 0 0 0 0 0 0 0 0 0 0 0 0 0 0 0 0 0 0 0 0 0 0 0 0 0 0 0 0 0 0
0.224463 6.63131e-07 2.90356e-07 3.72775e-07 0.562144 0.915886 0 0 0 0 0 0 0 0 0 0 0 0 0 0 0 0 0 0 0 0 0 0 0 0 0 0 0 0 0 0 0 0 0 0 0 0 0 0 0 0 0 0
0.235984 6.64082e-07 2.92089e-07 3.71993e-07 0.560161 0.918318 0 0 0 0 0 0 0 0 0 0 0 0 0 0 0 0 0 0 0 0 0 0 0 0 0 0 0 0 0 0 0 0 0 0 0 0 0 0 0 0 0 0
0.248097 6.65292e-07 2.93625e-07 3.71667e-07 0.558653 0.920177 0 0 0 0 0 0 0 0 0 0 0 0 0 0 0 0 0 0 0 0 0 0 0 0 0 0 0 0 0 0 0 0 0 0 0 0 0 0 0 0 0 0
0.260832 6.66291e-07 2.9503e-07 3.71261e-07 0.557205 0.921577 0 0 0 0 0 0 0 0 0 0 0 0 0 0 0 0 0 0 0 0 0 0 0 0 0 0 0 0 0 0 0 0 0 0 0 0 0 0 0 0 0 0
0.274221 6.67222e-07 2.9636e-07 3.70862e-07 0.55583 0.922685 0 0 0 0 0 0 0 0 0 0 0 0 0 0 0 0 0 0 0 0 0 0 0 0 0 0 0 0 0 0 0 0 0 0 0 0 0 0 0 0 0 0
0.288297 6.68432e-07 2.97624e-07 3.70808e-07 0.554743 0.923603 0 0 0 0 0 0 0 0 0 0 0 0 0 0 0 0 0 0 0 0 0 0 0 0 0 0 0 0 0 0 0 0 0 0 0 0 0 0 0 0 0 0
0.303095 6.69584e-07 2.98836e-07 3.70748e-07 0.5537 0.924298 0 0 0 0 0 0 0 0 0 0 0 0 0 0 0 0 0 0 0 0 0 0 0 0 0 0 0 0 0 0 0 0 0 0 0 0 0 0 0 0 0 0
0.318653 6.70867e-07 3.00015e-07 3.70852e-07 0.552796 0.924857 0 0 0 0 0 0 0 0 0 0 0 0 0 0 0 0 0 0 0 0 0 0 0 0 0 0 0 0 0 0 0 0 0 0 0 0 0 0 0 0 0 0
0.335009 6.72798e-07 3.01153e-07 3.71645e-07 0.552387 0.925384 0 0 0 0 0 0 0 0 0 0 0 0 0 0 0 0 0 0 0 0 0 0 0 0 0 0 0 0 0 0 0 0 0 0 0 0 0 0 0 0 0 0
0.352205 6.74539e-07 3.02266e-07 3.72272e-07 0.551892 0.925724 0 0 0 0 0 0 0 0 0 0 0 0 0 0 0 0 0 0 0 0 0 0 0 0 0 0 0 0 0 0 0 0 0 0 0 0 0 0 0 0 0 0
0.370284 6.74568e-07 3.03343e-07 3.71225e-07 0.550315 0.925617 0 0 0 0 0 0 0 0 0 0 0 0 0 0 0 0 0 0 0 0 0 0 0 0 0 0 0 0 0 0 0 0 0 0 0 0 0 0 0 0 0 0
0.389291 6.76543e-07 3.04389e-07 3.72154e-07 0.550082 0.925731 0 0 0 0 0 0 0 0 0 0 0 0 0 0 0 0 0 0 0 0 0 0 0 0 0 0 0 0 0 0 0 0 0 0 0 0 0 0 0 0 0 0
0.409273 6.79339e-07 3.05361e-07 3.73978e-07 0.550503 0.92584 0 0 0 0 0 0 0 0 0 0 0 0 0 0 0 0 0 0 0 0 0 0 0 0 0 0 0 0 0 0 0 0 0 0 0 0 0 0 0 0 0 0
0.430281 6.78053e-07 3.06288e-07 3.71765e-07 0.548283 0.925047 0 0 0 0 0 0 0 0 0 0 0 0 0 0 0 0 0 0 0 0 0 0 0 0 0 0 0 0 0 0 0 0 0 0 0 0 0 0 0 0 0 0
0.452368 6.83613e-07 3.07219e-07 3.76394e-07 0.550595 0.925437 0 0 0 0 0 0 0 0 0 0 0 0 0 0 0 0 0 0 0 0 0 0 0 0 0 0 0 0 0 0 0 0 0 0 0 0 0 0 0 0 0 0
0.475588 6.80203e-07 3.07936e-07 3.72267e-07 0.547288 0.923776 0 0 0 0 0 0 0 0 0 0 0 0 0 0 0 0 0 0 0 0 0 0 0 0 0 0 0 0 0 0 0 0 0 0 0 0 0 0 0 0 0 0
0.5 6.87772e-07 3.08655e-07 3.79116e-07 0.551224 0.924371 0 0 0 0 0 0 0 0 0 0 0 0 0 0 0 0 0 0 0 0 0 0 0 0 0 0 0 0 0 0 0 0 0 0 0 0 0 0 0 0 0 0
0.525665 6.8342e-07 3.09324e-07 3.74096e-07 0.547388 0.922293 0 0 0 0 0 0 0 0 0 0 0 0 0 0 0 0 0 0 0 0 0 0 0 0 0 0 0 0 0 0 0 0 0 0 0 0 0 0 0 0 0 0
0.552648 6.90419e-07 3.09824e-07 3.80595e-07 0.551253 0.922313 0 0 0 0 0 0 0 0 0 0 0 0 0 0 0 0 0 0 0 0 0 0 0 0 0 0 0 0 0 0 0 0 0 0 0 0 0 0 0 0 0 0
0.581015 6.91055e-07 3.10278e-07 3.80777e-07 0.551009 0.92079 0 0 0 0 0 0 0 0 0 0 0 0 0 0 0 0 0 0 0 0 0 0 0 0 0 0 0 0 0 0 0 0 0 0 0 0 0 0 0 0 0 0
0.610839 6.87388e-07 3.10709e-07 3.76679e-07 0.547986 0.91835 0 0 0 0 0 0 0 0 0 0 0 0 0 0 0 0 0 0 0 0 0 0 0 0 0 0 0 0 0 0 0 0 0 0 0 0 0 0 0 0 0 0
0.642193 7.00866e-07 3.10778e-07 3.90088e-07 0.55658 0.919267 0 0 0 0 0 0 0 0 0 0 0 0 0 0 0 0 0 0 0 0 0 0 0 0 0 0 0 0 0 0 0 0 0 0 0 0 0 0 0 0 0 0
0.675157 6.94467e-07 3.11313e-07 3.83155e-07 0.551725 0.915827 0 0 0 0 0 0 0 0 0 0 0 0 0 0 0 0 0 0 0 0 0 0 0 0 0 0 0 0 0 0 0 0 0 0 0 0 0 0 0 0 0 0
0.709813 6.9147e-07 3.11036e-07 3.80434e-07 0.550182 0.912119 0 0 0 0 0 0 0 0 0 0 0 0 0 0 0 0 0 0 0 0 0 0 0 0 0 0 0 0 0 0 0 0 0 0 0 0 0 0 0 0 0 0
0.746248 7.09687e-07 3.10568e-07 3.99119e-07 0.562387 0.913596 0 0 0 0 0 0 0 0 0 0 0 0 0 0 0 0 0 0 0 0 0 0 0 0 0 0 0 0 0 0 0 0 0 0 0 0 0 0 0 0 0 0
0.784553 7.06704e-07 3.10041e-07 3.96663e-07 0.561286 0.910114 0 0 0 0 0 0 0 0 0 0 0 0 0 0 0 0 0 0 0 0 0 0 0 0 0 0 0 0 0 0 0 0 0 0 0 0 0 0 0 0 0 0
0.824824 6.91546e-07 3.09274e-07 3.82272e-07 0.552778 0.903888 0 0 0 0 0 0 0 0 0 0 0 0 0 0 0 0 0 0 0 0 0 0 0 0 0 0 0 0 0 0 0 0 0 0 0 0 0 0 0 0 0 0
0.867162 7.05979e-07 3.09448e-07 3.96531e-07 0.561676 0.904174 0 0 0 0 0 0 0 0 0 0 0 0 0 0 0 0 0 0 0 0 0 0 0 0 0 0 0 0 0 0 0 0 0 0 0 0 0 0 0 0 0 0
0.911674 7.27574e-07 3.08461e-07 4.19113e-07 0.576041 0.904763 0 0 0 0 0 0 0 0 0 0 0 0 0 0 0 0 0 0 0 0 0 0 0 0 0 0 0 0 0 0 0 0 0 0 0 0 0 0 0 0 0 0
0.95847 7.17894e-07 3.07842e-07 4.10052e-07 0.571187 0.897326 0 0 0 0 0 0 0 0 0 0 0 0 0 0 0 0 0 0 0 0 0 0 0 0 0 0 0 0 0 0 0 0 0 0 0 0 0 0 0 0 0 0
1.00767 6.96633e-07 3.05335e-07 3.91298e-07 0.561699 0.886311 0 0 0 0 0 0 0 0 0 0 0 0 0 0 0 0 0 0 0 0 0 0 0 0 0 0 0 0 0 0 0 0 0 0 0 0 0 0 0 0 0 0
1.05939 7.04242e-07 3.05052e-07 3.9919e-07 0.566837 0.884178 0 0 0 0 0 0 0 0 0 0 0 0 0 0 0 0 0 0 0 0 0 0 0 0 0 0 0 0 0 0 0 0 0 0 0 0 0 0 0 0 0 0
1.11377 7.35349e-07 3.02658e-07 4.32691e-07 0.588416 0.888642 0 0 0 0 0 0 0 0 0 0 0 0 0 0 0 0 0 0 0 0 0 0 0 0 0 0 0 0 0 0 0 0 0 0 0 0 0 0 0 0 0 0
1.17094 7.53148e-07 3.00017e-07 4.53131e-07 0.601649 0.888792 0 0 0 0 0 0 0 0 0 0 0 0 0 0 0 0 0 0 0 0 0 0 0 0 0 0 0 0 0 0 0 0 0 0 0 0 0 0 0 0 0 0
1.23105 7.37053e-07 3.00641e-07 4.36412e-07 0.592104 0.880413 0 0 0 0 0 0 0 0 0 0 0 0 0 0 0 0 0 0 0 0 0 0 0 0 0 0 0 0 0 0 0 0 0 0 0 0 0 0 0 0 0 0
1.29424 7.06038e-07 3.00206e-07 4.05832e-07 0.574802 0.86648 0 0 0 0 0 0 0 0 0 0 0 0 0 0 0 0 0 0 0 0 0 0 0 0 0 0 0 0 0 0 0 0 0 0 0 0 0 0 0 0 0 0
1.36067 7.00547e-07 2.9993e-07 4.00617e-07 0.571863 0.85756 0 0 0 0 0 0 0 0 0 0 0 0 0 0 0 0 0 0 0 0 0 0 0 0 0 0 0 0 0 0 0 0 0 0 0 0 0 0 0 0 0 0
1.43051 7.30999e-07 2.98614e-07 4.32384e-07 0.591498 0.857578 0 0 0 0 0 0 0 0 0 0 0 0 0 0 0 0 0 0 0 0 0 0 0 0 0 0 0 0 0 0 0 0 0 0 0 0 0 0 0 0 0 0
1.50394 7.74976e-07 2.95078e-07 4.79897e-07 0.619242 0.859993 0 0 0 0 0 0 0 0 0 0 0 0 0 0 0 0 0 0 0 0 0 0 0 0 0 0 0 0 0 0 0 0 0 0 0 0 0 0 0 0 0 0
1.58114 7.99604e-07 2.90537e-07 5.09068e-07 0.636649 0.860453 0 0 0 0 0 0 0 0 0 0 0 0 0 0 0 0 0 0 0 0 0 0 0 0 0 0 0 0 0 0 0 0 0 0 0 0 0 0 0 0 0 0
1.6623 7.85593e-07 2.84699e-07 5.00894e-07 0.6376 0.850252 0 0 0 0 0 0 0 0 0 0 0 0 0 0 0 0 0 0 0 0 0 0 0 0 0 0 0 0 0 0 0 0 0 0 0 0 0 0 0 0 0 0
1.74763 7.43137e-07 2.81151e-07 4.61986e-07 0.62167 0.825558 0 0 0 0 0 0 0 0 0 0 0 0 0 0 0 0 0 0 0 0 0 0 0 0 0 0 0 0 0 0 0 0 0 0 0 0 0 0 0 0 0 0
1.83733 7.05552e-07 2.83634e-07 4.21918e-07 0.597997 0.808792 0 0 0 0 0 0 0 0 0 0 0 0 0 0 0 0 0 0 0 0 0 0 0 0 0 0 0 0 0 0 0 0 0 0 0 0 0 0 0 0 0 0
1.93164 6.96415e-07 2.82778e-07 4.13637e-07 0.593951 0.796993 0 0 0 0 0 0 0 0 0 0 0 0 0 0 0 0 0 0 0 0 0 0 0 0 0 0 0 0 0 0 0 0 0 0 0 0 0 0 0 0 0 0
2.03079 7.14825e-07 2.8004e-07 4.34785e-07 0.60824 0.802771 0 0 0 0 0 0 0 0 0 0 0 0 0 0 0 0 0 0 0 0 0 0 0 0 0 0 0 0 0 0 0 0 0 0 0 0 0 0 0 0 0 0
2.13503 7.52815e-07 2.78114e-07 4.747e-07 0.630567 0.819032 0 0 0 0 0 0 0 0 0 0 0 0 0 0 0 0 0 0 0 0 0 0 0 0 0 0 0 0 0 0 0 0 0 0 0 0 0 0 0 0 0 0
2.24463 8.13314e-07 2.76616e-07 5.36698e-07 0.65989 0.840534 0 0 0 0 0 0 0 0 0 0 0 0 0 0 0 0 0 0 0 0 0 0 0 0 0 0 0 0 0 0 0 0 0 0 0 0 0 0 0 0 0 0
2.35984 8.76037e-07 2.81582e-07 5.94455e-07 0.678573 0.8427 0 0 0 0 0 0 0 0 0 0 0 0 0 0 0 0 0 0 0 0 0 0 0 0 0 0 0 0 0 0 0 0 0 0 0 0 0 0 0 0 0 0
2.48097 8.87352e-07 2.83808e-07 6.03544e-07 0.680163 0.853 0 0 0 0 0 0 0 0 0 0 0 0 0 0 0 0 0 0 0 0 0 0 0 0 0 0 0 0 0 0 0 0 0 0 0 0 0 0 0 0 0 0
2.60832 8.90653e-07 2.80125e-07 6.10528e-07 0.685484 0.827818 0 0 0 0 0 0 0 0 0 0 0 0 0 0 0 0 0 0 0 0 0 0 0 0 0 0 0 0 0 0 0 0 0 0 0 0 0 0 0 0 0 0
2.74221 8.42246e-07 2.83751e-07 5.58495e-07 0.663102 0.818433 0 0 0 0 0 0 0 0 0 0 0 0 0 0 0 0 0 0 0 0 0 0 0 0 0 0 0 0 0 0 0 0 0 0 0 0 0 0 0 0 0 0
2.88297 7.97619e-07 2.79595e-07 5.18025e-07 0.649464 0.763325 0 0 0 0 0 0 0 0 0 0 0 0 0 0 0 0 0 0 0 0 0 0 0 0 0 0 0 0 0 0 0 0 0 0 0 0 0 0 0 0 0 0
3.03095 7.2539e-07 2.80857e-07 4.44533e-07 0.61282 0.716101 0 0 0 0 0 0 0 0 0 0 0 0 0 0 0 0 0 0 0 0 0 0 0 0 0 0 0 0 0 0 0 0 0 0 0 0 0 0 0 0 0 0
3.18653 7.03714e-07 2.80384e-07 4.23331e-07 0.601566 0.656815 0 0 0 0 0 0 0 0 0 0 0 0 0 0 0 0 0 0 0 0 0 0 0 0 0 0 0 0 0 0 0 0 0 0 0 0 0 0 0 0 0 0
3.35009 6.60817e-07 2.86378e-07 3.74439e-07 0.566631 0.572667 0 0 0 0 0 0 0 0 0 0 0 0 0 0 0 0 0 0 0 0 0 0 0 0 0 0 0 0 0 0 0 0 0 0 0 0 0 0 0 0 0 0
3.52205 6.81669e-07 2.67423e-07 4.14247e-07 0.607694 0.574771 0 0 0 0 0 0 0 0 0 0 0 0 0 0 0 0 0 0 0 0 0 0 0 0 0 0 0 0 0 0 0 0 0 0 0 0 0 0 0 0 0 0
3.70284 7.2294e-07 2.89165e-07 4.33775e-07 0.600015 0.563543 0 0 0 0 0 0 0 0 0 0 0 0 0 0 0 0 0 0 0 0 0 0 0 0 0 0 0 0 0 0 0 0 0 0 0 0 0 0 0 0 0 0
3.89291 7.3951e-07 2.55328e-07 4.84182e-07 0.654734 0.575036 0 0 0 0 0 0 0 0 0 0 0 0 0 0 0 0 0 0 0 0 0 0 0 0 0 0 0 0 0 0 0 0 0 0 0 0 0 0 0 0 0 0
4.09273 8.67529e-07 2.58429e-07 6.09099e-07 0.702109 0.631644 0 0 0 0 0 0 0 0 0 0 0 0 0 0 0 0 0 0 0 0 0 0 0 0 0 0 0 0 0 0 0 0 0 0 0 0 0 0 0 0 0 0
4.30281 9.53092e-07 2.74222e-07 6.7887e-07 0.712281 0.650311 0 0 0 0 0 0 0 0 0 0 0 0 0 0 0 0 0 0 0 0 0 0 0 0 0 0 0 0 0 0 0 0 0 0 0 0 0 0 0 0 0 0
4.52368 9.93865e-07 2.35251e-07 7.58614e-07 0.763297 0.685714 0 0 0 0 0 0 0 0 0 0 0 0 0 0 0 0 0 0 0 0 0 0 0 0 0 0 0 0 0 0 0 0 0 0 0 0 0 0 0 0 0 0
4.75588 1.13469e-06 2.36014e-07 8.98674e-07 0.792001 0.716909 0 0 0 0 0 0 0 0 0 0 0 0 0 0 0 0 0 0 0 0 0 0 0 0 0 0 0 0 0 0 0 0 0 0 0 0 0 0 0 0 0 0
5 1.20825e-06 2.47832e-07 9.60417e-07 0.794883 0.72563 0 0 0 0 0 0 0 0 0 0 0 0 0 0 0 0 0 0 0 0 0 0 0 0 0 0 0 0 0 0 0 0 0 0 0 0 0 0 0 0 0 0
5.25665 1.18432e-06 2.21274e-07 9.63046e-07 0.813164 0.741093 0 0 0 0 0 0 0 0 0 0 0 0 0 0 0 0 0 0 0 0 0 0 0 0 0 0 0 0 0 0 0 0 0 0 0 0 0 0 0 0 0 0
5.52648 1.22536e-06 2.11836e-07 1.01352e-06 0.827124 0.762195 0 0 0 0 0 0 0 0 0 0 0 0 0 0 0 0 0 0 0 0 0 0 0 0 0 0 0 0 0 0 0 0 0 0 0 0 0 0 0 0 0 0
5.81015 1.23679e-06 2.1961e-07 1.01718e-06 0.822436 0.768758 0 0 0 0 0 0 0 0 0 0 0 0 0 0 0 0 0 0 0 0 0 0 0 0 0 0 0 0 0 0 0 0 0 0 0 0 0 0 0 0 0 0
6.10839 1.14242e-06 2.11924e-07 9.30491e-07 0.814495 0.763442 0 0 0 0 0 0 0 0 0 0 0 0 0 0 0 0 0 0 0 0 0 0 0 0 0 0 0 0 0 0 0 0 0 0 0 0 0 0 0 0 0 0
6.42193 1.03422e-06 1.95921e-07 8.38298e-07 0.810561 0.764592 0 0 0 0 0 0 0 0 0 0 0 0 0 0 0 0 0 0 0 0 0 0 0 0 0 0 0 0 0 0 0 0 0 0 0 0 0 0 0 0 0 0
6.75157 9.2818e-07 1.87734e-07 7.40446e-07 0.79774 0.774805 0 0 0 0 0 0 0 0 0 0 0 0 0 0 0 0 0 0 0 0 0 0 0 0 0 0 0 0 0 0 0 0 0 0 0 0 0 0 0 0 0 0
7.09813 7.5429e-07 1.77763e-07 5.76527e-07 0.76433 0.776883 0 0 0 0 0 0 0 0 0 0 0 0 0 0 0 0 0 0 0 0 0 0 0 0 0 0 0 0 0 0 0 0 0 0 0 0 0 0 0 0 0 0
7.46248 5.20834e-07 1.78917e-07 3.41917e-07 0.656481 0.761454 0 0 0 0 0 0 0 0 0 0 0 0 0 0 0 0 0 0 0 0 0 0 0 0 0 0 0 0 0 0 0 0 0 0 0 0 0 0 0 0 0 0
7.84553 3.87546e-07 2.43088e-07 1.44458e-07 0.372751 0.759892 0 0 0 0 0 0 0 0 0 0 0 0 0 0 0 0 0 0 0 0 0 0 0 0 0 0 0 0 0 0 0 0 0 0 1.4013e-45 0 2.8026e-45 0 5.60519e-45 0 1.54143e-44 0
8.24824 4.53162e-07 3.33247e-07 1.19914e-07 0.264617 0.747835 0 0 0 0 0 0 0 0 0 0 0 0 0 0 0 0 0 0 0 0 0 0 0 0 0 0 1.4013e-45 0 7.00649e-45 0 2.52234e-44 0 7.70714e-44 0 2.22806e-43 0 5.91348e-43 0 1.48678e-42 0 3.54809e-42 0
8.67162 5.53824e-07 3.88686e-07 1.65138e-07 0.298178 0.718019 0 0 0 0 0 0 0 0 0 0 0 0 0 0 0 0 0 0 0 0 4.2039e-45 0 2.24208e-44 0 1.05097e-43 0 4.13383e-43 0 1.46015e-42 0 4.73218e-42 0 1.38883e-41 0 3.84586e-41 0 9.72753e-41 0 2.33706e-40 0 5.34518e-40 0
9.11674 6.761e-07 4.38241e-07 2.37859e-07 0.351811 0.67899 0 0 0 0 0 0 0 0 0 0 0 0 0 0 1.4013e-45 0 1.68156e-44 0 1.34525e-43 0 8.29569e-43 0 4.11701e-42 0 1.80431e-41 0 6.65799e-41 0 2.21055e-40 0 6.76475e-40 0 1.88349e-39 0 4.96266e-39 0 1.19962e-38 0 2.76138e-38 0 6.06562e-38 0
9.5847 7.93232e-07 4.8109e-07 3.12143e-07 0.393507 0.650015 0 0 0 0 0 0 0 0 0 0 1.4013e-45 0 2.10195e-44 0 3.15292e-43 0 3.05903e-42 0 2.21223e-41 0 1.24915e-40 0 5.73246e-40 0 2.33724e-39 0 8.09213e-39 0 2.53382e-38 0 7.34196e-38 0 1.94451e-37 0 4.88674e-37 0 1.13145e-36 0 2.50055e-36 0 5.28567e-36 0
10.0767 8.49348e-07 5.00305e-07 3.49043e-07 0.410954 0.629236 0 0 0 0 0 0 0 0 2.8026e-45 0 1.58347e-43 0 3.53548e-42 0 4.67725e-41 0 4.06316e-40 0 2.66739e-39 0 1.38407e-38 0 5.89623e-38 0 2.24459e-37 0 7.31413e-37 0 2.16607e-36 0 5.95869e-36 0 1.50486e-35 0 3.61548e-35 0 8.03487e-35 0 1.70831e-34 0 3.48144e-34 0
10.5939 8.95724e-07 5.12426e-07 3.83298e-07 0.42792 0.606321 0 0 0 0 0 0 4.2039e-45 0 5.57717e-43 0 2.36483e-41 0 4.54398e-40 0 5.30002e-39 0 4.14292e-38 0 2.48102e-37 0 1.18792e-36 0 4.71491e-36 0 1.68148e-35 0 5.17212e-35 0 1.45264e-34 0 3.80346e-34 0 9.18079e-34 0 2.11331e-33 0 4.51693e-33 0 9.25628e-33 0 1.82194e-32 0
11.1377 9.16096e-07 5.17874e-07 3.98222e-07 0.434694 0.586686 0 0 0 0 0 0 6.24979e-43 0 7.6651e-41 0 2.70363e-39 0 4.4968e-38 0 4.65219e-37 0 3.28916e-36 0 1.80491e-35 0 8.00581e-35 0 2.97072e-34 0 9.95674e-34 0 2.89915e-33 0 7.74216e-33 0 1.93408e-32 0 4.47188e-32 0 9.88315e-32 0 2.03549e-31 0 4.02762e-31 0 7.66985e-31 0
11.7094 9.28507e-07 5.18591e-07 4.09916e-07 0.441479 0.561256 0 0 0 0 9.10844e-44 0 8.35818e-41 0 8.10305e-39 0 2.40174e-37 0 3.48233e-36 0 3.21425e-35 0 2.06555e-34 0 1.04305e-33 0 4.30199e-33 0 1.49735e-32 0 4.73078e-32 0 1.30745e-31 0 3.32804e-31 0 7.95036e-31 0 1.76454e-30 0 3.75163e-30 0 7.4589e-30 0 1.42753e-29 0 2.63429e-29 0
12.3105 9.40957e-07 5.14392e-07 4.26565e-07 0.453331 0.531165 0 0 0 0 1.31526e-41 0 8.60985e-39 0 6.67643e-37 0 1.6771e-35 0 2.13403e-34 0 1.7672e-33 0 1.03703e-32 0 4.83869e-32 0 1.86229e-31 0 6.09894e-31 0 1.82168e-30 0 4.79079e-30 0 1.16509e-29 0 2.66743e-29 0 5.6942e-29 0 1.16688e-28 0 2.24342e-28 0 4.15964e-28 0 7.4498e-28 0
12.9424 9.55116e-07 5.04251e-07 4.50865e-07 0.472053 0.501033 0 0 1.4013e-44 0 1.44709e-39 0 6.90258e-37 0 4.32817e-35 0 9.2889e-34 0 1.04394e-32 0 7.79711e-32 0 4.19681e-31 0 1.81633e-30 0 6.54538e-30 0 2.02296e-29 0 5.72801e-29 0 1.43693e-28 0 3.34615e-28 0 7.35725e-28 0 1.51347e-27 0 2.99472e-27 0 5.57672e-27 0 1.0033e-26 0 1.74648e-26 0
13.6067 9.54885e-07 4.88613e-07 4.66271e-07 0.488301 0.485911 0 0 2.01367e-42 0 1.2347e-37 0 4.35812e-35 0 2.23276e-33 0 4.12557e-32 0 4.11997e-31 0 2.78944e-30 0 1.38297e-29 0 5.57216e-29 0 1.88617e-28 0 5.51707e-28 0 1.48475e-27 0 3.56111e-27 0 7.9574e-27 0 1.68358e-26 0 3.34348e-26 0 6.39898e-26 0 1.15598e-25 0 2.02092e-25 0 3.42396e-25 0
14.3051 8.68685e-07 4.64738e-07 4.03947e-07 0.465009 0.483263 1.4013e-45 0 2.29301e-40 0 8.20901e-36 0 2.1759e-33 0 9.19846e-32 0 1.47406e-30 0 1.31562e-29 0 8.11333e-29 0 3.72005e-28 0 1.40026e-27 0 4.46593e-27 0 1.2396e-26 0 3.17859e-26 0 7.30493e-26 0 1.56947e-25 0 3.2013e-25 0 6.14813e-25 0 1.13996e-24 0 2.00073e-24 0 3.40365e-24 0 5.6201e-24 0
15.0394 7.59502e-07 4.47454e-07 3.12048e-07 0.410858 0.443324 2.92871e-43 0 2.06733e-38 0 4.43563e-34 0 8.95338e-32 0 3.15261e-30 0 4.41213e-29 0 3.53875e-28 0 1.99685e-27 0 8.49971e-27 0 2.99888e-26 0 9.03793e-26 0 2.38666e-25 0 5.84491e-25 0 1.28978e-24 0 2.66954e-24 0 5.2589e-24 0 9.78304e-24 0 1.76007e-23 0 3.00539e-23 0 4.98184e-23 0 8.02703e-23 0
