# 5.39371e-08 4 4 : grain size, compostion index, size index
# This grain was stochastically heated: Yes
# Heating and cooling timescale: 2.49925e+07 0.174594
# Ratio of heating to cooling to determine stochastic cutoff: 100
# Equilibrium emission is recorded even for those grains in the stochastic regime.
# Emission spectrum was computed for: 
# Type: IRSF
# Scale: 1
# Temperature: -1
# Wavelength  CExt  CAbs  CSca  Albedo G EqEmission StEmission
0.05 6.62485e-16 6.62444e-16 4.08419e-20 6.16495e-05 0.000677992 0 6.2472e-87
0.0525665 6.85029e-16 6.8499e-16 3.89032e-20 5.67905e-05 0.000609489 0 1.51476e-83
0.0552647 7.18516e-16 7.18477e-16 3.85366e-20 5.36337e-05 0.000545483 0 2.52798e-80
0.0581015 7.87461e-16 7.8742e-16 4.14477e-20 5.26346e-05 0.000484846 0 3.04846e-77
0.0610839 8.91997e-16 8.9195e-16 4.65545e-20 5.21914e-05 0.000429473 0 2.67544e-74
0.0642193 9.92542e-16 9.92491e-16 5.04052e-20 5.0784e-05 0.000381309 0 1.65229e-71
0.0675157 1.05387e-15 1.05382e-15 5.11251e-20 4.85116e-05 0.000340707 0 7.09009e-69
0.0709813 1.05749e-15 1.05744e-15 4.83929e-20 4.5762e-05 0.000307758 0 2.12634e-66
0.0746248 1.00181e-15 1.00176e-15 4.2865e-20 4.27876e-05 0.000282585 0 4.519e-64
0.0784553 8.96945e-16 8.96909e-16 3.54792e-20 3.95556e-05 0.000265542 0 6.90927e-62
0.0824824 7.60487e-16 7.6046e-16 2.7171e-20 3.57285e-05 0.000256324 0 7.71808e-60
0.0867162 6.96825e-16 6.96803e-16 2.14198e-20 3.07391e-05 0.000236436 0 7.28007e-58
0.0911674 6.57681e-16 6.57662e-16 1.89193e-20 2.87666e-05 0.00021627 0 5.59462e-56
0.095847 5.68668e-16 5.68652e-16 1.58571e-20 2.78846e-05 0.000207963 0 3.15117e-54
0.100767 4.80722e-16 4.80709e-16 1.28105e-20 2.66486e-05 0.000202305 0 1.40378e-52
0.105939 3.9011e-16 3.901e-16 9.85995e-21 2.52748e-05 0.000199649 0 4.90705e-51
0.111377 3.27926e-16 3.27918e-16 7.56105e-21 2.30572e-05 0.00019081 0 1.46689e-49
0.117094 2.80247e-16 2.80241e-16 5.93174e-21 2.11661e-05 0.000180065 0 3.71561e-48
0.123105 2.40908e-16 2.40904e-16 4.71672e-21 1.95789e-05 0.000168903 0 7.96154e-47
0.129424 2.07036e-16 2.07032e-16 3.7935e-21 1.83229e-05 0.000158051 0 1.44663e-45
0.136067 1.76717e-16 1.76714e-16 3.09277e-21 1.75013e-05 0.000148104 0 2.23265e-44
0.143051 1.45559e-16 1.45556e-16 2.57151e-21 1.76665e-05 0.000140437 0 2.86599e-43
0.150394 1.03609e-16 1.03607e-16 2.05789e-21 1.98622e-05 0.000133683 0 2.76123e-42
0.158114 6.83147e-17 6.83131e-17 1.56769e-21 2.29481e-05 0.00012225 0 2.15723e-41
0.16623 4.46875e-17 4.46863e-17 1.17778e-21 2.6356e-05 0.000108752 0 1.47779e-40
0.174762 3.03681e-17 3.03672e-17 8.8795e-22 2.92396e-05 9.59893e-05 0 9.43971e-40
0.183733 2.0317e-17 2.03163e-17 6.71799e-22 3.30659e-05 8.46903e-05 0 5.49809e-39
0.193164 1.38491e-17 1.38486e-17 5.12346e-22 3.69949e-05 7.49128e-05 0 3.22138e-38
0.203079 9.63542e-18 9.63502e-18 3.93672e-22 4.08568e-05 6.64642e-05 0 2.08955e-37
0.213503 7.12316e-18 7.12285e-18 3.03782e-22 4.26472e-05 5.90903e-05 0 1.6474e-36
0.224463 6.00011e-18 5.99988e-18 2.36172e-22 3.93613e-05 5.26847e-05 0 1.60628e-35
0.235984 5.69415e-18 5.69396e-18 1.85552e-22 3.25865e-05 4.71338e-05 0 1.74327e-34
0.248097 5.6542e-18 5.65406e-18 1.47119e-22 2.60194e-05 4.22851e-05 0 1.83804e-33
0.260832 5.5086e-18 5.50848e-18 1.17285e-22 2.12912e-05 3.79978e-05 0 1.7195e-32
0.274221 5.32655e-18 5.32645e-18 9.38511e-23 1.76195e-05 3.41826e-05 0 1.43295e-31
0.288297 5.13185e-18 5.13178e-18 7.54118e-23 1.46948e-05 3.07859e-05 0 1.06817e-30
0.303095 4.93697e-18 4.93691e-18 6.07547e-23 1.23061e-05 2.77462e-05 0 7.16076e-30
0.318653 4.74074e-18 4.74069e-18 4.90311e-23 1.03425e-05 2.5018e-05 0 4.33383e-29
0.335009 4.54613e-18 4.54609e-18 3.96603e-23 8.72398e-06 2.25714e-05 0 2.37986e-28
0.352205 4.3562e-18 4.35617e-18 3.21319e-23 7.37612e-06 2.03725e-05 0 1.19183e-27
0.370284 4.17008e-18 4.17006e-18 2.60577e-23 6.24873e-06 1.83921e-05 0 5.46588e-27
0.389291 3.98945e-18 3.98943e-18 2.11604e-23 5.30408e-06 1.66093e-05 0 2.30608e-26
0.409273 3.81256e-18 3.81255e-18 1.72132e-23 4.51485e-06 1.50059e-05 0 8.98261e-26
0.430281 3.64061e-18 3.6406e-18 1.40058e-23 3.8471e-06 1.35582e-05 0 3.24359e-25
0.452368 3.4748e-18 3.47479e-18 1.14101e-23 3.28368e-06 1.22533e-05 0 1.09011e-24
0.475588 3.31506e-18 3.31505e-18 9.29894e-24 2.80506e-06 1.10749e-05 0 3.42179e-24
0.5 3.16257e-18 3.16257e-18 7.58658e-24 2.39886e-06 1.00128e-05 0 1.0069e-23
0.525665 3.01691e-18 3.01691e-18 6.19027e-24 2.05186e-06 9.05249e-06 0 2.78623e-23
0.552647 2.87809e-18 2.87808e-18 5.04962e-24 1.7545e-06 8.18374e-06 0 7.27255e-23
0.581015 2.74398e-18 2.74397e-18 4.12698e-24 1.50402e-06 7.40156e-06 0 1.7945e-22
0.610839 2.61648e-18 2.61647e-18 3.37337e-24 1.28928e-06 6.69447e-06 0 4.20034e-22
0.642193 2.49514e-18 2.49513e-18 2.75637e-24 1.1047e-06 6.05431e-06 0 9.34971e-22
0.675157 2.37982e-18 2.37981e-18 2.25266e-24 9.4657e-07 5.47553e-06 0 1.98414e-21
0.709813 2.27041e-18 2.27041e-18 1.84282e-24 8.11667e-07 4.95334e-06 0 4.02395e-21
0.746248 2.16648e-18 2.16648e-18 1.50739e-24 6.9578e-07 4.48083e-06 0 7.81567e-21
0.784553 2.06757e-18 2.06757e-18 1.23264e-24 5.96177e-07 4.05298e-06 0 1.45675e-20
0.824824 1.97249e-18 1.97249e-18 1.00836e-24 5.1121e-07 3.66636e-06 0 2.6095e-20
0.867162 1.88153e-18 1.88153e-18 8.25572e-25 4.38777e-07 3.31725e-06 0 4.50188e-20
0.911674 1.79471e-18 1.79471e-18 6.75767e-25 3.76533e-07 3.00122e-06 0 7.49398e-20
0.95847 1.71141e-18 1.71141e-18 5.53082e-25 3.23174e-07 2.7153e-06 0 1.20542e-19
1.00767 1.63231e-18 1.63231e-18 4.52782e-25 2.77387e-07 2.45665e-06 0 1.87749e-19
1.05939 1.55755e-18 1.55755e-18 3.70707e-25 2.38006e-07 2.22272e-06 0 2.83657e-19
1.11377 1.48642e-18 1.48642e-18 3.03423e-25 2.04131e-07 2.01095e-06 0 4.16182e-19
1.17094 1.41841e-18 1.41841e-18 2.48252e-25 1.75021e-07 1.81912e-06 2.48245e-310 5.9367e-19
1.23105 1.35371e-18 1.35371e-18 2.03214e-25 1.50116e-07 1.64582e-06 1.6983e-295 8.24602e-19
1.29424 1.29533e-18 1.29533e-18 1.66283e-25 1.28371e-07 1.48906e-06 2.16595e-281 1.11941e-18
1.36067 1.24054e-18 1.24054e-18 1.36117e-25 1.09725e-07 1.347e-06 5.58093e-268 1.48433e-18
1.43051 1.18837e-18 1.18837e-18 1.1134e-25 9.36915e-08 1.21863e-06 3.13968e-255 1.92351e-18
1.50394 1.1387e-18 1.1387e-18 9.1138e-26 8.00367e-08 1.10243e-06 4.15395e-243 2.43863e-18
1.58114 1.09114e-18 1.09114e-18 7.45796e-26 6.83502e-08 9.97508e-07 1.38673e-231 3.02705e-18
1.6623 1.04554e-18 1.04554e-18 6.09784e-26 5.83222e-08 9.02132e-07 1.24935e-220 3.68225e-18
1.74762 1.00259e-18 1.00259e-18 4.98698e-26 4.97411e-08 8.15727e-07 3.24074e-210 4.39699e-18
1.83733 9.63368e-19 9.63368e-19 4.07756e-26 4.23261e-08 7.3783e-07 2.57524e-200 5.16533e-18
1.93164 9.26705e-19 9.26705e-19 3.33256e-26 3.59614e-08 6.67729e-07 6.63701e-191 5.96891e-18
2.03079 8.92078e-19 8.92078e-19 2.72325e-26 3.05271e-08 6.03885e-07 5.85894e-182 6.78777e-18
2.13503 8.59267e-19 8.59267e-19 2.22543e-26 2.58992e-08 5.45995e-07 1.86673e-173 7.60116e-18
2.24463 8.28699e-19 8.28699e-19 1.81746e-26 2.19315e-08 4.93889e-07 2.25724e-165 8.3937e-18
2.35984 7.99492e-19 7.99492e-19 1.48353e-26 1.85559e-08 4.46666e-07 1.08524e-157 9.13815e-18
2.48097 7.71881e-19 7.71881e-19 1.20979e-26 1.56733e-08 4.03102e-07 2.17108e-150 9.81884e-18
2.60832 7.4634e-19 7.4634e-19 9.86863e-27 1.32227e-08 3.64678e-07 1.88773e-143 1.04273e-17
2.74221 7.22089e-19 7.22089e-19 8.04608e-27 1.11428e-08 3.29414e-07 7.4243e-137 1.09418e-17
2.88297 6.9958e-19 6.9958e-19 6.54893e-27 9.36123e-09 2.98071e-07 1.37395e-130 1.13604e-17
3.03095 6.78306e-19 6.78306e-19 5.32954e-27 7.85713e-09 2.69419e-07 1.24066e-124 1.16705e-17
3.18653 6.59733e-19 6.59733e-19 4.33504e-27 6.57091e-09 2.43912e-07 5.67461e-119 1.18968e-17
3.35009 6.42171e-19 6.42171e-19 3.52147e-27 5.4837e-09 2.19463e-07 1.3562e-113 1.20129e-17
3.52205 6.23107e-19 6.23107e-19 2.85552e-27 4.58271e-09 1.98899e-07 1.74125e-108 1.19743e-17
3.70284 6.04329e-19 6.04329e-19 2.31413e-27 3.82925e-09 1.79305e-07 1.24116e-103 1.18204e-17
3.89291 5.86179e-19 5.86179e-19 1.87163e-27 3.19293e-09 1.62561e-07 5.05762e-99 1.15679e-17
4.09273 5.68984e-19 5.68984e-19 1.50964e-27 2.65322e-09 1.46056e-07 1.21155e-94 1.12354e-17
4.30281 5.50981e-19 5.50981e-19 1.21423e-27 2.20377e-09 1.30854e-07 1.74558e-90 1.08018e-17
4.52368 5.34405e-19 5.34405e-19 9.74014e-28 1.82261e-09 1.17092e-07 1.55673e-86 1.03252e-17
4.75588 5.20025e-19 5.20025e-19 7.78089e-28 1.49625e-09 1.06707e-07 8.81216e-83 9.8336e-18
5 5.09229e-19 5.09229e-19 6.17719e-28 1.21305e-09 9.5905e-08 3.24769e-79 9.36347e-18
5.25665 5.03363e-19 5.03363e-19 4.8726e-28 9.6801e-10 8.63754e-08 7.98504e-76 8.94532e-18
5.52648 5.01738e-19 5.01738e-19 3.81794e-28 7.60943e-10 7.7923e-08 1.33498e-72 8.56875e-18
5.81015 5.06855e-19 5.06855e-19 2.95584e-28 5.83172e-10 7.1537e-08 1.55513e-69 8.27476e-18
6.10839 5.16556e-19 5.16556e-19 2.25918e-28 4.37354e-10 6.08588e-08 1.27955e-66 8.02227e-18
6.42193 5.24225e-19 5.24225e-19 1.69542e-28 3.23414e-10 5.48575e-08 7.46976e-64 7.70987e-18
6.75157 5.25591e-19 5.25591e-19 1.22524e-28 2.33116e-10 5.01801e-08 3.12029e-61 7.29007e-18
7.09813 5.34019e-19 5.34019e-19 8.20537e-29 1.53653e-10 4.23223e-08 9.72035e-59 6.95922e-18
7.46248 6.58013e-19 6.58013e-19 4.62353e-29 7.0265e-11 3.28585e-08 2.74283e-56 8.02933e-18
7.84553 1.27888e-18 1.27888e-18 2.31082e-29 1.8069e-11 2.62461e-08 9.24984e-54 1.45677e-17
8.24824 2.66042e-18 2.66042e-18 2.82383e-29 1.06143e-11 2.53834e-08 2.56405e-51 2.82132e-17
8.67162 4.06059e-18 4.06059e-18 5.07932e-29 1.25088e-11 2.39785e-08 4.05714e-49 3.9995e-17
9.11674 5.98646e-18 5.98646e-18 9.90472e-29 1.65452e-11 2.08826e-08 4.88333e-47 5.46534e-17
9.5847 6.7352e-18 6.7352e-18 1.40882e-28 2.09173e-11 1.82077e-08 3.57421e-45 5.68958e-17
10.0767 6.03446e-18 6.03446e-18 1.35466e-28 2.24488e-11 1.64635e-08 1.67837e-43 4.71016e-17
10.5939 5.06205e-18 5.06205e-18 1.22824e-28 2.42637e-11 1.61496e-08 6.00845e-42 3.64672e-17
11.1377 3.97947e-18 3.97947e-18 9.72105e-29 2.4428e-11 1.8179e-08 1.65785e-40 2.64369e-17
11.7094 3.17754e-18 3.17754e-18 7.63922e-29 2.40413e-11 1.84918e-08 3.85767e-39 1.94548e-17
12.3105 2.48125e-18 2.48125e-18 5.85613e-29 2.36016e-11 1.36395e-08 7.35573e-38 1.39959e-17
12.9424 1.93655e-18 1.93655e-18 4.36393e-29 2.25346e-11 1.43011e-08 1.18476e-36 1.00621e-17
13.6067 1.54761e-18 1.54761e-18 3.12508e-29 2.0193e-11 7.48997e-09 1.66505e-35 7.40744e-18
14.3051 1.42143e-18 1.42143e-18 2.14418e-29 1.50846e-11 8.83252e-09 2.30964e-34 6.26856e-18
15.0394 1.58193e-18 1.58193e-18 1.59528e-29 1.00844e-11 1.87015e-08 3.35886e-33 6.42996e-18
15.8114 1.826e-18 1.826e-18 1.3221e-29 7.24044e-12 1.23376e-08 4.4145e-32 6.8438e-18
16.623 2.09851e-18 2.09851e-18 1.20885e-29 5.76049e-12 1.01714e-08 5.06751e-31 7.25629e-18
17.4762 2.31413e-18 2.31413e-18 1.18115e-29 5.10409e-12 1.3734e-08 4.92783e-30 7.38671e-18
18.3733 2.38871e-18 2.38871e-18 1.16537e-29 4.87867e-12 5.38496e-09 3.9844e-29 7.04301e-18
19.3164 2.27766e-18 2.27766e-18 1.10178e-29 4.83735e-12 1.58161e-09 2.65863e-28 6.20713e-18
20.3079 2.03532e-18 2.03532e-18 9.70961e-30 4.77056e-12 1.86931e-08 1.49354e-27 5.12996e-18
21.3503 1.81796e-18 1.81796e-18 8.237e-30 4.53091e-12 1.49314e-08 7.57336e-27 4.24038e-18
22.4463 1.62593e-18 1.62593e-18 6.93771e-30 4.26693e-12 -8.19785e-09 3.48985e-26 3.5116e-18
23.5984 1.45763e-18 1.45763e-18 5.77137e-30 3.95943e-12 -1.14714e-08 1.46986e-25 2.91645e-18
24.8097 1.31182e-18 1.31182e-18 4.80617e-30 3.66375e-12 8.17744e-09 5.69273e-25 2.43263e-18
26.0832 1.17829e-18 1.17829e-18 3.97022e-30 3.36946e-12 3.09277e-08 2.02423e-24 2.02586e-18
27.4221 1.05676e-18 1.05676e-18 3.27945e-30 3.1033e-12 -2.10093e-09 6.63844e-24 1.68505e-18
28.8297 9.51481e-19 9.51481e-19 2.70832e-30 2.84642e-12 4.46775e-09 2.02659e-23 1.40736e-18
30.3095 8.56306e-19 8.56306e-19 2.23545e-30 2.61058e-12 -3.57496e-09 5.75547e-23 1.17506e-18
31.8653 7.7241e-19 7.7241e-19 1.83775e-30 2.37924e-12 5.50668e-08 1.53007e-22 9.83371e-19
33.5009 6.95508e-19 6.95508e-19 1.51326e-30 2.17575e-12 -1.77561e-08 3.80494e-22 8.21471e-19
35.2206 6.31803e-19 6.31803e-19 1.2433e-30 1.96786e-12 -4.98494e-08 8.97357e-22 6.92208e-19
37.0284 5.72932e-19 5.72932e-19 1.02183e-30 1.78352e-12 -2.36561e-08 1.99198e-21 5.8215e-19
38.9291 5.18383e-19 5.18383e-19 8.40716e-31 1.6218e-12 -3.4966e-09 4.172e-21 4.88358e-19
40.9273 4.67896e-19 4.67896e-19 6.92553e-31 1.48014e-12 -1.34208e-08 8.26508e-21 4.08547e-19
43.0282 4.2207e-19 4.2207e-19 5.69102e-31 1.34836e-12 -2.87189e-08 1.55566e-20 3.41432e-19
45.2368 3.79838e-19 3.79838e-19 4.67491e-31 1.23077e-12 3.42426e-09 2.7839e-20 2.84539e-19
47.5588 3.4242e-19 3.4242e-19 3.83578e-31 1.1202e-12 1.24056e-08 4.76718e-20 2.37412e-19
50 3.07659e-19 3.07659e-19 3.14935e-31 1.02365e-12 3.73276e-08 7.78944e-20 1.97319e-19
52.5665 2.76746e-19 2.76746e-19 2.58233e-31 9.33104e-13 9.75927e-08 1.22254e-19 1.64088e-19
55.2648 2.48762e-19 2.48762e-19 2.11601e-31 8.5062e-13 2.01797e-10 1.84332e-19 1.36269e-19
58.1015 2.23502e-19 2.23502e-19 1.73463e-31 7.76115e-13 -4.16179e-08 2.67584e-19 1.1304e-19
61.0839 2.0082e-19 2.0082e-19 1.42089e-31 7.07546e-13 -3.17365e-08 3.74858e-19 9.37129e-20
64.2193 1.80319e-19 1.80319e-19 1.16338e-31 6.45179e-13 -1.90455e-08 5.07295e-19 7.75851e-20
67.5157 1.61992e-19 1.61992e-19 9.52373e-32 5.87915e-13 1.12098e-07 6.65063e-19 6.42197e-20
70.9813 1.45535e-19 1.45535e-19 7.79762e-32 5.3579e-13 1.01092e-09 8.45611e-19 5.31224e-20
74.6248 1.30839e-19 1.30839e-19 6.38074e-32 4.87678e-13 4.07776e-08 1.04497e-18 4.39419e-20
78.4553 1.17592e-19 1.17592e-19 5.22028e-32 4.43933e-13 1.89215e-07 1.2556e-18 3.63115e-20
82.4824 1.05723e-19 1.05723e-19 4.2725e-32 4.04121e-13 -1.44271e-08 1.46993e-18 2.99962e-20
86.7162 9.5125e-20 9.5125e-20 3.49624e-32 3.67542e-13 8.51941e-08 1.67947e-18 2.47812e-20
91.1674 8.56025e-20 8.56025e-20 2.86028e-32 3.34135e-13 1.24891e-07 1.87391e-18 2.04624e-20
95.847 7.70383e-20 7.70383e-20 2.33957e-32 3.0369e-13 -2.14373e-07 2.04408e-18 1.68864e-20
100.767 6.93836e-20 6.93836e-20 1.91485e-32 2.7598e-13 -3.14265e-07 2.18377e-18 1.39371e-20
105.939 6.26092e-20 6.26092e-20 1.56662e-32 2.50223e-13 -1.51132e-07 2.29001e-18 1.15178e-20
111.377 5.63914e-20 5.63914e-20 1.28149e-32 2.2725e-13 -2.09199e-07 2.3507e-18 9.49511e-21
117.094 5.07845e-20 5.07845e-20 1.04855e-32 2.0647e-13 -4.45432e-07 2.3684e-18 7.82211e-21
123.105 4.57923e-20 4.57923e-20 8.58131e-33 1.87396e-13 -1.04936e-07 2.34755e-18 6.44834e-21
129.424 4.13615e-20 4.13615e-20 7.02205e-33 1.69772e-13 1.47368e-08 2.29226e-18 5.32207e-21
136.067 3.72589e-20 3.72589e-20 5.74493e-33 1.54189e-13 -5.03571e-07 2.19713e-18 4.37841e-21
143.051 3.36982e-20 3.36982e-20 4.70157e-33 1.3952e-13 -3.47089e-07 2.08285e-18 3.61475e-21
150.394 3.03545e-20 3.03545e-20 3.84786e-33 1.26764e-13 -4.39007e-07 1.93869e-18 2.97079e-21
158.114 2.75303e-20 2.75303e-20 3.14834e-33 1.14359e-13 6.13536e-07 1.7925e-18 2.45717e-21
166.23 2.48614e-20 2.48614e-20 2.57555e-33 1.03596e-13 -2.60408e-07 1.62922e-18 2.0227e-21
174.763 2.23412e-20 2.23412e-20 2.10848e-33 9.43763e-14 1.54553e-07 1.45582e-18 1.65618e-21
183.733 2.02452e-20 2.02452e-20 1.72573e-33 8.52415e-14 -7.37062e-07 1.29687e-18 1.3669e-21
193.164 1.82727e-20 1.82727e-20 1.41212e-33 7.72804e-14 5.54184e-07 1.13829e-18 1.1232e-21
203.079 1.64659e-20 1.64659e-20 1.15574e-33 7.01902e-14 -1.15627e-06 9.87345e-19 9.21107e-22
213.503 1.48997e-20 1.48997e-20 9.4628e-34 6.351e-14 -9.25149e-07 8.51749e-19 7.58244e-22
224.463 1.34166e-20 1.34166e-20 7.74604e-34 5.77346e-14 -6.38512e-07 7.24568e-19 6.20896e-22
235.984 1.2123e-20 1.2123e-20 6.33925e-34 5.22911e-14 1.54036e-06 6.13236e-19 5.1e-22
248.097 1.09083e-20 1.09083e-20 5.19235e-34 4.75999e-14 -1.27516e-06 5.1269e-19 4.17008e-22
260.832 9.70742e-21 9.70742e-21 4.25097e-34 4.3791e-14 -7.06519e-07 4.20712e-19 3.371e-22
274.221 8.62501e-21 8.62501e-21 3.47824e-34 4.03274e-14 2.50609e-07 3.42236e-19 2.71973e-22
288.297 7.70187e-21 7.70187e-21 2.84472e-34 3.69355e-14 -2.3321e-07 2.77929e-19 2.2045e-22
303.095 6.86465e-21 6.86465e-21 2.32799e-34 3.39127e-14 1.34682e-06 2.23869e-19 1.78287e-22
318.653 6.18042e-21 6.18042e-21 1.90461e-34 3.08168e-14 7.35216e-07 1.81076e-19 1.45591e-22
335.009 5.52848e-21 5.52848e-21 1.55779e-34 2.81775e-14 1.12771e-06 1.44712e-19 1.18076e-22
352.206 4.93145e-21 4.93145e-21 1.27436e-34 2.58414e-14 -1.60062e-06 1.14727e-19 9.54528e-23
370.284 4.45715e-21 4.45715e-21 1.04285e-34 2.33972e-14 -4.59931e-06 9.17104e-20 7.81512e-23
389.291 4.0059e-21 4.0059e-21 8.53156e-35 2.12975e-14 -2.94816e-06 7.25674e-20 6.35975e-23
409.273 3.61366e-21 3.61366e-21 6.97796e-35 1.93099e-14 -1.1594e-07 5.73854e-20 5.19198e-23
430.282 3.27387e-21 3.27387e-21 5.71015e-35 1.74416e-14 3.4797e-07 4.53915e-20 4.25463e-23
452.368 2.95785e-21 2.95785e-21 4.67247e-35 1.57969e-14 4.6227e-06 3.56705e-20 3.47494e-23
475.588 2.69349e-21 2.69349e-21 3.8228e-35 1.41928e-14 1.72174e-06 2.81532e-20 2.8589e-23
500 2.44211e-21 2.44211e-21 3.12715e-35 1.28051e-14 -4.30654e-06 2.20503e-20 2.34036e-23
525.665 2.23125e-21 2.23125e-21 2.56003e-35 1.14735e-14 1.1649e-05 1.73492e-20 1.92932e-23
552.648 2.03409e-21 2.03409e-21 2.09511e-35 1.03e-14 6.99256e-06 1.35804e-20 1.58581e-23
581.015 1.86315e-21 1.86315e-21 1.71422e-35 9.20066e-15 1.24322e-05 1.06515e-20 1.30864e-23
610.838 1.70499e-21 1.70499e-21 1.40291e-35 8.22824e-15 3.12501e-06 8.3251e-21 1.07806e-23
642.193 1.56486e-21 1.56486e-21 1.14854e-35 7.33955e-15 -1.12505e-05 6.51022e-21 8.89964e-24
675.157 1.43877e-21 1.43877e-21 9.40061e-36 6.53379e-15 -2.20404e-06 5.08836e-21 7.35339e-24
709.813 1.32528e-21 1.32528e-21 7.69236e-36 5.80431e-15 1.39245e-05 3.97593e-21 6.08165e-24
746.247 1.22182e-21 1.22182e-21 6.29765e-36 5.1543e-15 -1.94905e-06 3.10322e-21 5.02983e-24
784.553 1.12775e-21 1.12775e-21 5.15536e-36 4.57137e-15 -2.0742e-05 2.42032e-21 4.16117e-24
824.824 1.04172e-21 1.04172e-21 4.21962e-36 4.05064e-15 -2.98997e-06 1.88582e-21 3.44244e-24
867.162 9.61282e-22 9.61282e-22 3.45347e-36 3.59257e-15 1.24829e-05 1.46545e-21 2.84301e-24
911.674 8.86066e-22 8.86066e-22 2.82806e-36 3.1917e-15 -4.0201e-06 1.13573e-21 2.34405e-24
958.471 8.17771e-22 8.17771e-22 2.31553e-36 2.83151e-15 -1.26559e-05 8.80018e-22 1.93444e-24
1007.67 7.53644e-22 7.53644e-22 1.89539e-36 2.51497e-15 1.59451e-06 6.79951e-22 1.59396e-24
1059.39 6.97172e-22 6.97172e-22 1.55164e-36 2.22563e-15 -2.69419e-05 5.26668e-22 1.31868e-24
1113.77 6.43491e-22 6.43491e-22 1.27055e-36 1.97446e-15 -3.35691e-05 4.06529e-22 1.08914e-24
1170.94 5.9241e-22 5.9241e-22 1.04013e-36 1.75575e-15 1.21098e-05 3.12623e-22 8.98113e-25
1231.05 5.45232e-22 5.45232e-22 8.51348e-37 1.56144e-15 -2.2941e-05 2.40081e-22 7.41399e-25
1294.24 5.04307e-22 5.04307e-22 6.97195e-37 1.38248e-15 -3.27672e-05 1.85099e-22 6.16142e-25
1360.67 4.65814e-22 4.65814e-22 5.70882e-37 1.22556e-15 -2.21957e-06 1.42374e-22 5.1239e-25
1430.51 4.29197e-22 4.29197e-22 4.67319e-37 1.08882e-15 -1.40021e-05 1.09141e-22 4.2602e-25
1503.94 3.94663e-22 3.94663e-22 3.82481e-37 9.69132e-16 -0.000115215 8.34257e-23 3.54334e-25
1581.14 3.65959e-22 3.65959e-22 3.1326e-37 8.55998e-16 -2.71127e-05 6.42529e-23 2.97883e-25
1662.3 3.38687e-22 3.38687e-22 2.56469e-37 7.57246e-16 -3.38943e-05 4.93529e-23 2.50484e-25
1747.63 3.1274e-22 3.1274e-22 2.09906e-37 6.71183e-16 -9.8939e-05 3.7795e-23 2.10541e-25
1837.33 2.88083e-22 2.88083e-22 1.71877e-37 5.96625e-16 4.33475e-05 2.88542e-23 1.76793e-25
1931.64 2.64648e-22 2.64648e-22 1.40731e-37 5.31765e-16 -9.34539e-05 2.19544e-23 1.48189e-25
2030.79 2.43322e-22 2.43322e-22 1.15207e-37 4.73476e-16 -0.000111688 1.67081e-23 1.2436e-25
2135.03 2.25193e-22 2.25193e-22 9.42931e-38 4.18721e-16 -1.07248e-08 1.27921e-23 1.05028e-25
2244.63 2.07975e-22 2.07975e-22 7.72315e-38 3.7135e-16 0.000241015 9.76795e-24 8.84423e-26
2359.84 1.91596e-22 1.91596e-22 6.32142e-38 3.29935e-16 -6.50439e-05 7.43633e-24 7.41891e-26
2480.97 1.76095e-22 1.76095e-22 5.17426e-38 2.93834e-16 -7.06354e-05 5.64527e-24 6.19718e-26
2608.32 1.629e-22 1.629e-22 4.23603e-38 2.60039e-16 9.5757e-05 4.31147e-24 5.19833e-26
2742.21 1.5043e-22 1.5043e-22 3.46851e-38 2.30573e-16 -0.000108031 3.2856e-24 4.34121e-26
