# 3.54285e-07 1 22 : grain size, compostion index, size index
# This grain was stochastically heated: Yes
# Heating and cooling timescale: 17239.1 1075.03
# Ratio of heating to cooling to determine stochastic cutoff: 100
# Equilibrium emission is recorded even for those grains in the stochastic regime.
# Emission spectrum was computed for: 
# Type: IRSF
# Scale: 1
# Temperature: -1
# Wavelength  CExt  CAbs  CSca  Albedo G EqEmission StEmission
0.05 1.7497e-13 1.69638e-13 5.33197e-15 0.0304736 0.0289201 0 0
0.0525665 2.02229e-13 1.96478e-13 5.75134e-15 0.0284397 0.0257561 0 0
0.0552647 2.33162e-13 2.26966e-13 6.19589e-15 0.0265733 0.0229177 0 0
0.0581015 2.87013e-13 2.80446e-13 6.56789e-15 0.0228836 0.0203669 0 0
0.0610839 4.1875e-13 4.11712e-13 7.03771e-15 0.0168065 0.0179256 0 0
0.0642193 5.28265e-13 5.20325e-13 7.93978e-15 0.0150299 0.0155158 0 0
0.0675157 6.31926e-13 6.22391e-13 9.53552e-15 0.0150896 0.0130737 0 0
0.0709813 7.25337e-13 7.15093e-13 1.02438e-14 0.0141228 0.010889 0 0
0.0746248 6.77448e-13 6.68088e-13 9.35915e-15 0.0138153 0.00929112 0 0
0.0784553 5.32525e-13 5.24998e-13 7.52726e-15 0.014135 0.00821981 0 0
0.0824824 4.22119e-13 4.16723e-13 5.39576e-15 0.0127825 0.0075975 0 0
0.0867162 3.53254e-13 3.4909e-13 4.16349e-15 0.0117861 0.00722031 0 0
0.0911674 3.08112e-13 3.04604e-13 3.50747e-15 0.0113837 0.00694303 0 0
0.095847 2.75414e-13 2.72604e-13 2.80966e-15 0.0102016 0.00725725 0 0
0.100767 2.4123e-13 2.39308e-13 1.92214e-15 0.00796809 0.00845984 0 0
0.105939 2.09976e-13 2.08644e-13 1.33137e-15 0.0063406 0.0091627 0 0
0.111377 1.7987e-13 1.7906e-13 8.09674e-16 0.00450144 0.0104872 0 0
0.117094 1.52274e-13 1.51773e-13 5.01293e-16 0.00329204 0.00969829 0 0
0.123105 1.27911e-13 1.27585e-13 3.25157e-16 0.00254207 0.00833547 0 0
0.129424 1.07539e-13 1.0733e-13 2.08395e-16 0.00193786 0.00701279 0 0
0.136067 9.74836e-14 9.73489e-14 1.34655e-16 0.00138131 0.00593553 0 0
0.143051 8.84597e-14 8.83714e-14 8.82727e-17 0.000997886 0.00506554 0 1.07295e-311
0.150394 8.35584e-14 8.34983e-14 6.00229e-17 0.000718335 0.00432637 0 4.31369e-297
0.158114 8.26016e-14 8.25563e-14 4.52917e-17 0.000548315 0.00370675 0 3.47318e-283
0.16623 8.59086e-14 8.58668e-14 4.17188e-17 0.000485619 0.00318836 0 6.10307e-270
0.174762 9.41551e-14 9.4105e-14 5.00898e-17 0.000531993 0.00274303 0 2.53186e-257
0.183733 1.08827e-13 1.08756e-13 7.13085e-17 0.000655246 0.00233754 0 2.66992e-245
0.193164 1.34743e-13 1.3463e-13 1.13171e-16 0.000839901 0.00194604 0 7.79292e-234
0.203079 1.76498e-13 1.76325e-13 1.73403e-16 0.000982463 0.0015606 0 6.64361e-223
0.213503 2.17427e-13 2.17212e-13 2.14647e-16 0.000987216 0.00120009 0 1.56631e-212
0.224463 2.08866e-13 2.08686e-13 1.79589e-16 0.000859828 0.000889019 0 8.98966e-203
0.235984 1.61567e-13 1.61445e-13 1.21891e-16 0.000754428 0.000635217 0 1.3729e-193
0.248097 1.22228e-13 1.22149e-13 7.87378e-17 0.000644188 0.000485681 0 7.15351e-185
0.260832 9.80154e-14 9.79615e-14 5.39668e-17 0.000550595 0.000501958 0 1.4512e-176
0.274221 8.35432e-14 8.35043e-14 3.88658e-17 0.000465219 0.000668142 0 1.2071e-168
0.288297 7.45304e-14 7.45014e-14 2.89361e-17 0.000388246 0.000897776 0 4.24807e-161
0.303095 6.76681e-14 6.76459e-14 2.22805e-17 0.000329262 0.00100859 0 6.42921e-154
0.318653 5.93193e-14 5.9302e-14 1.73383e-17 0.000292288 0.00105402 0 4.14138e-147
0.335009 5.22788e-14 5.22652e-14 1.36497e-17 0.000261094 0.00103766 0 1.2308e-140
0.352205 4.57925e-14 4.57816e-14 1.08793e-17 0.000237578 0.000985319 0 1.73363e-134
0.370284 3.98472e-14 3.98384e-14 8.7485e-18 0.000219551 0.000921626 0 1.19971e-128
0.389291 3.4435e-14 3.44279e-14 7.08953e-18 0.000205882 0.000859574 0 4.22199e-123
0.409273 2.95555e-14 2.95497e-14 5.76253e-18 0.000194973 0.000799239 0 7.81054e-118
0.430281 2.51805e-14 2.51758e-14 4.68866e-18 0.000186202 0.000741862 0 7.83474e-113
0.452368 2.12865e-14 2.12827e-14 3.81445e-18 0.000179196 0.000682518 3.0275e-297 4.38977e-108
0.475588 1.78513e-14 1.78482e-14 3.10537e-18 0.000173957 0.000625644 8.43058e-283 1.41349e-103
0.5 1.4854e-14 1.48515e-14 2.5348e-18 0.000170648 0.000571046 4.49714e-269 2.6887e-99
0.525665 1.22542e-14 1.22521e-14 2.07133e-18 0.00016903 0.000519402 4.97602e-256 3.09889e-95
0.552647 1.00203e-14 1.00186e-14 1.69325e-18 0.000168981 0.000472347 1.23225e-243 2.21814e-91
0.581015 8.12344e-15 8.12205e-15 1.39095e-18 0.000171226 0.000428602 7.3472e-232 1.01012e-87
0.610839 6.52867e-15 6.52752e-15 1.14296e-18 0.000175068 0.000388973 1.13005e-220 2.99374e-84
0.642193 5.19883e-15 5.19789e-15 9.3904e-19 0.000180625 0.00035302 4.78534e-210 5.8983e-81
0.675157 4.10172e-15 4.10095e-15 7.72391e-19 0.000188309 0.000320539 5.93925e-200 7.88758e-78
0.709813 3.21003e-15 3.20939e-15 6.364e-19 0.000198253 0.000291404 2.29548e-190 7.31133e-75
0.746248 2.49035e-15 2.48982e-15 5.24447e-19 0.000210592 0.000265372 2.92205e-181 4.78485e-72
0.784553 1.91516e-15 1.91472e-15 4.32057e-19 0.000225599 0.000241729 1.29251e-172 2.25097e-69
0.824824 1.46036e-15 1.46e-15 3.55866e-19 0.000243684 0.00022051 2.09158e-164 7.74642e-67
0.867162 1.10432e-15 1.10402e-15 2.93221e-19 0.000265522 0.000201416 1.30031e-156 1.9827e-64
0.911674 8.23635e-16 8.23393e-16 2.41476e-19 0.000293183 0.000184144 3.23494e-149 3.8127e-62
0.95847 5.95092e-16 5.94893e-16 1.98697e-19 0.000333894 0.000168662 3.30585e-142 5.49151e-60
1.00767 3.98809e-16 3.98645e-16 1.6351e-19 0.000409996 0.000154604 1.38542e-135 5.75334e-58
1.05939 2.81394e-16 2.8126e-16 1.34498e-19 0.000477969 0.000141853 2.81279e-129 5.0457e-56
1.11377 2.18672e-16 2.18561e-16 1.106e-19 0.000505779 0.000130244 3.00584e-123 3.92644e-54
1.17094 1.65063e-16 1.64972e-16 9.09084e-20 0.00055075 0.000119406 1.54583e-117 2.42181e-52
1.23105 1.20798e-16 1.20724e-16 7.47579e-20 0.000618866 0.000109483 3.95182e-112 1.19639e-50
1.29424 9.39033e-17 9.38418e-17 6.14966e-20 0.000654893 0.000100355 5.68456e-107 5.24758e-49
1.36067 7.47137e-17 7.46632e-17 5.0558e-20 0.000676689 9.20399e-05 4.57319e-102 1.9907e-47
1.43051 5.93036e-17 5.9262e-17 4.15462e-20 0.000700569 8.4464e-05 2.0656e-97 6.42822e-46
1.50394 4.66742e-17 4.664e-17 3.41531e-20 0.000731734 7.74616e-05 5.35445e-93 1.77088e-44
1.58114 3.63209e-17 3.62929e-17 2.80761e-20 0.000773 7.09328e-05 8.15789e-89 4.17875e-43
1.6623 2.79274e-17 2.79043e-17 2.30827e-20 0.000826526 6.48769e-05 7.48829e-85 8.48744e-42
1.74762 2.12355e-17 2.12165e-17 1.89796e-20 0.000893768 5.94198e-05 4.24604e-81 1.49176e-40
1.83733 1.5978e-17 1.59624e-17 1.56041e-20 0.000976602 5.44317e-05 1.5227e-77 2.27911e-39
1.93164 1.19067e-17 1.18939e-17 1.28241e-20 0.00107705 4.98521e-05 3.53312e-74 3.04058e-38
2.03079 8.81379e-18 8.80325e-18 1.0537e-20 0.00119551 4.56022e-05 5.4317e-71 3.56612e-37
2.13503 6.528e-18 6.51933e-18 8.66449e-21 0.00132728 4.17145e-05 5.68444e-68 3.71865e-36
2.24463 4.87227e-18 4.86515e-18 7.12152e-21 0.00146164 3.81718e-05 4.15571e-65 3.48751e-35
2.35984 3.71202e-18 3.70617e-18 5.85111e-21 0.00157626 3.4906e-05 2.18874e-62 2.99405e-34
2.48097 2.93978e-18 2.93497e-18 4.80649e-21 0.00163498 3.18896e-05 8.6029e-60 2.40832e-33
2.60832 2.47121e-18 2.46726e-18 3.95168e-21 0.00159909 2.91064e-05 2.61877e-57 1.86296e-32
2.74221 2.24023e-18 2.23699e-18 3.24781e-21 0.00144976 2.65733e-05 6.37016e-55 1.4154e-31
2.88297 2.22269e-18 2.22003e-18 2.66725e-21 0.00120001 2.42812e-05 1.27517e-52 1.07719e-30
3.03095 2.51271e-18 2.51051e-18 2.19084e-21 0.000871903 2.21996e-05 2.21748e-50 8.58808e-30
3.18653 4.82805e-18 4.82625e-18 1.79984e-21 0.000372788 2.02683e-05 5.06422e-48 1.0744e-28
3.35009 1.69468e-17 1.69453e-17 1.47813e-21 8.72217e-05 1.84925e-05 1.65256e-45 2.27372e-27
3.52205 3.56138e-18 3.56017e-18 1.21334e-21 0.000340694 1.68766e-05 2.55492e-44 2.67432e-27
3.70284 3.5675e-18 3.5665e-18 9.96425e-22 0.000279306 1.53992e-05 1.50832e-42 1.39616e-26
3.89291 4.07034e-18 4.06953e-18 8.1799e-22 0.000200964 1.40354e-05 8.2111e-41 7.74242e-26
4.09273 4.84176e-18 4.84109e-18 6.71414e-22 0.000138671 1.27483e-05 3.81191e-39 4.18109e-25
4.30281 5.93372e-18 5.93317e-18 5.50994e-22 9.2858e-05 1.15845e-05 1.506e-37 2.17592e-24
4.52368 7.54172e-18 7.54127e-18 4.52305e-22 5.99738e-05 1.05254e-05 5.14484e-36 1.10009e-23
4.75588 1.01875e-17 1.01872e-17 3.71152e-22 3.64319e-05 9.55442e-06 1.57136e-34 5.54544e-23
5 1.63266e-17 1.63263e-17 3.04469e-22 1.86487e-05 8.62555e-06 4.83031e-33 3.11626e-22
5.25665 5.73378e-17 5.73376e-17 2.49824e-22 4.35706e-06 7.79266e-06 2.78263e-31 3.61215e-21
5.52648 4.7569e-17 4.75688e-17 2.04974e-22 4.30898e-06 7.04752e-06 3.2631e-30 9.32684e-21
5.81015 8.61691e-17 8.61689e-17 1.68068e-22 1.95045e-06 6.36727e-06 7.2526e-29 4.96825e-20
6.10839 3.04111e-16 3.04111e-16 1.37771e-22 4.53027e-07 5.72964e-06 2.74493e-27 4.88135e-19
6.42193 1.99643e-16 1.99643e-16 1.12934e-22 5.65679e-07 5.20754e-06 1.70023e-26 8.46313e-19
6.75157 1.63941e-16 1.63941e-16 9.25877e-23 5.64761e-07 4.6496e-06 1.16623e-25 1.74478e-18
7.09813 1.91878e-16 1.91878e-16 7.58643e-23 3.95378e-07 4.16308e-06 1.01546e-24 4.88392e-18
7.46248 4.73723e-16 4.73723e-16 6.2143e-23 1.3118e-07 3.71502e-06 1.67045e-23 2.75273e-17
7.84553 6.05496e-16 6.05496e-16 5.09222e-23 8.40999e-08 3.28377e-06 1.28109e-22 7.68321e-17
8.24824 2.71286e-16 2.71286e-16 4.17134e-23 1.53762e-07 2.88186e-06 3.11705e-22 7.20449e-17
8.67162 2.1854e-16 2.1854e-16 3.41472e-23 1.56251e-07 2.53378e-06 1.24028e-21 1.16643e-16
9.11674 5.94572e-17 5.94572e-17 2.79533e-23 4.70141e-07 2.22275e-06 1.52294e-21 6.13624e-17
9.5847 3.37484e-17 3.37484e-17 2.28735e-23 6.77767e-07 1.94268e-06 3.5807e-21 6.49138e-17
10.0767 2.52367e-17 2.52366e-17 1.87087e-23 7.41332e-07 1.681e-06 1.02219e-20 8.73521e-17
10.5939 2.40767e-17 2.40767e-17 1.52908e-23 6.35085e-07 1.43044e-06 3.44492e-20 1.45046e-16
11.1377 7.45707e-17 7.45707e-17 1.24877e-23 1.67462e-07 1.19785e-06 3.50076e-19 7.57437e-16
11.7094 4.03936e-17 4.03936e-17 1.02936e-23 2.54834e-07 9.92139e-07 5.79981e-19 6.71167e-16
12.3105 3.96553e-17 3.96553e-17 8.36981e-24 2.11064e-07 7.75819e-07 1.62894e-18 1.04729e-15
12.9424 3.30294e-17 3.30294e-17 6.83437e-24 2.06917e-07 5.65385e-07 3.64255e-18 1.34902e-15
13.6067 2.61944e-17 2.61944e-17 5.58074e-24 2.13051e-07 3.89508e-07 7.3008e-18 1.61196e-15
14.3051 2.04025e-17 2.04025e-17 4.55346e-24 2.23181e-07 2.37395e-07 1.35685e-17 1.84531e-15
15.0394 1.67823e-17 1.67823e-17 3.71306e-24 2.21249e-07 1.00313e-07 2.52141e-17 2.17869e-15
15.8114 1.69353e-17 1.69353e-17 3.02771e-24 1.78781e-07 -2.83643e-08 5.45679e-17 3.08525e-15
16.623 2.26726e-17 2.26726e-17 2.46839e-24 1.08871e-07 -1.57761e-07 1.49114e-16 5.67284e-15
17.4762 1.94691e-17 1.94691e-17 2.01135e-24 1.0331e-07 -2.82461e-07 2.49341e-16 6.55404e-15
18.3733 1.31561e-17 1.31561e-17 1.63806e-24 1.24509e-07 -3.99779e-07 3.13741e-16 5.84277e-15
19.3164 1.11082e-17 1.11082e-17 1.33575e-24 1.20249e-07 -5.19806e-07 4.72708e-16 6.387e-15
20.3079 9.43384e-18 9.43384e-18 1.08994e-24 1.15535e-07 -6.56129e-07 6.87952e-16 6.89746e-15
21.3503 8.13764e-18 8.13764e-18 8.90309e-25 1.09406e-07 -7.55716e-07 9.78496e-16 7.43631e-15
22.4463 7.06044e-18 7.06044e-18 7.29595e-25 1.03336e-07 -8.34562e-07 1.3495e-15 7.93184e-15
23.5984 6.14109e-18 6.14109e-18 6.01467e-25 9.79414e-08 -9.07782e-07 1.80191e-15 8.34806e-15
24.8097 5.35005e-18 5.35005e-18 5.00122e-25 9.34798e-08 -1.00773e-06 2.3313e-15 8.6674e-15
26.0832 4.6691e-18 4.6691e-18 4.2124e-25 9.02185e-08 -1.07353e-06 2.92774e-15 8.88402e-15
27.4221 4.08431e-18 4.08431e-18 3.59701e-25 8.80689e-08 -1.1257e-06 3.57647e-15 9e-15
28.8297 3.58088e-18 3.58088e-18 3.12329e-25 8.72213e-08 -1.14665e-06 4.25573e-15 9.0157e-15
30.3095 3.14623e-18 3.14623e-18 2.74542e-25 8.72604e-08 -1.15571e-06 4.93907e-15 8.93411e-15
31.8653 2.77028e-18 2.77028e-18 2.41217e-25 8.70729e-08 -1.13662e-06 5.59814e-15 8.76221e-15
33.5009 2.44546e-18 2.44546e-18 2.11574e-25 8.65169e-08 -1.11531e-06 6.2071e-15 8.5126e-15
35.2206 2.16295e-18 2.16295e-18 1.8119e-25 8.37698e-08 -1.05254e-06 6.73676e-15 8.19104e-15
37.0284 1.91661e-18 1.91661e-18 1.53262e-25 7.99652e-08 -9.89475e-07 7.16441e-15 7.8088e-15
38.9291 1.70151e-18 1.70151e-18 1.2732e-25 7.48275e-08 -9.04088e-07 7.4742e-15 7.37886e-15
40.9273 1.51336e-18 1.51336e-18 1.04748e-25 6.92158e-08 -8.13287e-07 7.65682e-15 6.91381e-15
43.0282 1.34797e-18 1.34797e-18 8.54555e-26 6.33959e-08 -6.92629e-07 7.70705e-15 6.42328e-15
45.2368 1.20225e-18 1.20225e-18 6.94818e-26 5.77934e-08 -5.59346e-07 7.62862e-15 5.91855e-15
47.5588 1.07387e-18 1.07387e-18 5.63534e-26 5.24771e-08 -3.36958e-07 7.43331e-15 5.41137e-15
50 9.60354e-19 9.60354e-19 4.57135e-26 4.76006e-08 -1.20538e-07 7.13437e-15 4.90974e-15
52.5665 8.59691e-19 8.59691e-19 3.70602e-26 4.31087e-08 1.15827e-07 6.74893e-15 4.42092e-15
55.2648 7.70279e-19 7.70279e-19 3.00508e-26 3.90129e-08 3.31069e-07 6.29695e-15 3.95154e-15
58.1015 6.90966e-19 6.90966e-19 2.44009e-26 3.53141e-08 5.17419e-07 5.80075e-15 3.50796e-15
61.0839 6.20261e-19 6.20261e-19 1.9821e-26 3.19559e-08 6.67174e-07 5.2774e-15 3.09247e-15
64.2193 5.57155e-19 5.57155e-19 1.61074e-26 2.89101e-08 7.88409e-07 4.74481e-15 2.70774e-15
67.5157 5.00826e-19 5.00826e-19 1.30998e-26 2.61564e-08 8.70137e-07 4.21889e-15 2.35558e-15
70.9813 4.50518e-19 4.50518e-19 1.06642e-26 2.3671e-08 9.10551e-07 3.7123e-15 2.03651e-15
74.6248 4.05453e-19 4.05453e-19 8.68386e-27 2.14177e-08 9.26826e-07 3.23378e-15 1.7497e-15
78.4553 3.65045e-19 3.65045e-19 7.07282e-27 1.93752e-08 9.20099e-07 2.79019e-15 1.49419e-15
82.4824 3.28862e-19 3.28862e-19 5.76584e-27 1.75327e-08 8.87083e-07 2.38639e-15 1.26878e-15
86.7162 2.96388e-19 2.96388e-19 4.70224e-27 1.58652e-08 8.2493e-07 2.02387e-15 1.07131e-15
91.1674 2.67196e-19 2.67196e-19 3.83522e-27 1.43536e-08 7.51287e-07 1.70265e-15 8.99543e-16
95.847 2.40944e-19 2.40944e-19 3.12839e-27 1.29839e-08 6.57767e-07 1.42161e-15 7.51264e-16
100.767 2.17384e-19 2.17384e-19 2.55414e-27 1.17494e-08 5.86238e-07 1.17884e-15 6.24329e-16
105.939 1.96165e-19 1.96165e-19 2.0851e-27 1.06294e-08 4.83973e-07 9.70949e-16 5.16207e-16
111.377 1.77045e-19 1.77045e-19 1.70198e-27 9.61327e-09 3.96156e-07 7.9465e-16 4.24709e-16
117.094 1.59832e-19 1.59832e-19 1.38984e-27 8.69563e-09 2.85468e-07 6.46568e-16 3.4781e-16
123.105 1.44337e-19 1.44337e-19 1.13588e-27 7.86963e-09 2.00023e-07 5.23224e-16 2.83574e-16
129.424 1.30357e-19 1.30357e-19 9.29135e-28 7.12763e-09 1.23738e-07 4.21174e-16 2.30171e-16
136.067 1.1774e-19 1.1774e-19 7.60631e-28 6.46024e-09 7.35243e-08 3.37342e-16 1.8602e-16
143.051 1.06377e-19 1.06377e-19 6.23588e-28 5.86207e-09 -4.41656e-09 2.68997e-16 1.49748e-16
150.394 9.61223e-20 9.61223e-20 5.1109e-28 5.31708e-09 -5.1399e-08 2.13574e-16 1.20076e-16
158.114 8.68599e-20 8.68599e-20 4.18267e-28 4.81543e-09 -7.04226e-08 1.68869e-16 9.59109e-17
166.23 7.84941e-20 7.84941e-20 3.42085e-28 4.3581e-09 -1.17281e-07 1.33007e-16 7.63266e-17
174.763 7.09555e-20 7.09555e-20 2.79894e-28 3.94464e-09 -1.59022e-07 1.04409e-16 6.05418e-17
183.733 6.41413e-20 6.41413e-20 2.28898e-28 3.56865e-09 -1.72068e-07 8.1678e-17 4.78567e-17
193.164 5.79818e-20 5.79818e-20 1.87148e-28 3.22771e-09 -1.72254e-07 6.36904e-17 3.77053e-17
203.079 5.24199e-20 5.24199e-20 1.53046e-28 2.91961e-09 -1.74871e-07 4.95195e-17 2.96173e-17
213.503 4.73989e-20 4.73989e-20 1.25207e-28 2.64157e-09 -2.3161e-07 3.83985e-17 2.3198e-17
224.463 4.28581e-20 4.28581e-20 1.02412e-28 2.38956e-09 -2.16547e-07 2.96951e-17 1.81177e-17
235.984 3.87514e-20 3.87514e-20 8.37489e-29 2.16118e-09 -2.32407e-07 2.29066e-17 1.41109e-17
248.097 3.5045e-20 3.5045e-20 6.85245e-29 1.95533e-09 -2.23373e-07 1.76319e-17 1.09637e-17
260.832 3.16942e-20 3.16942e-20 5.60708e-29 1.76912e-09 -2.44781e-07 1.35425e-17 8.49767e-18
274.221 2.86627e-20 2.86627e-20 4.58698e-29 1.60033e-09 -1.94242e-07 1.03795e-17 6.57049e-18
288.297 2.59207e-20 2.59207e-20 3.75198e-29 1.44749e-09 -2.26974e-07 7.93974e-18 5.06887e-18
303.095 2.34462e-20 2.34462e-20 3.07104e-29 1.30982e-09 -2.44223e-07 6.06371e-18 3.90298e-18
318.653 2.12069e-20 2.12069e-20 2.51312e-29 1.18505e-09 -2.15893e-07 4.62276e-18 2.999e-18
335.009 1.91804e-20 1.91804e-20 2.05604e-29 1.07195e-09 -2.78492e-07 3.51836e-18 2.29984e-18
352.206 1.73488e-20 1.73488e-20 1.68244e-29 9.69772e-10 -2.52884e-07 2.67392e-18 1.76058e-18
370.284 1.56939e-20 1.56939e-20 1.37715e-29 8.7751e-10 -2.37511e-07 2.02948e-18 1.34558e-18
389.291 1.41959e-20 1.41959e-20 1.12698e-29 7.93876e-10 -2.55337e-07 1.53819e-18 1.02665e-18
409.273 1.28402e-20 1.28402e-20 9.22027e-30 7.1808e-10 -1.04374e-07 1.16428e-18 7.82039e-19
430.282 1.16158e-20 1.16158e-20 7.54744e-30 6.49757e-10 -2.24171e-07 8.80354e-19 5.94927e-19
452.368 1.05082e-20 1.05082e-20 6.17785e-30 5.87907e-10 -2.23804e-07 6.64922e-19 4.51954e-19
475.588 9.50556e-21 9.50556e-21 5.0555e-30 5.31846e-10 -1.60128e-07 5.01641e-19 3.4286e-19
500 8.59833e-21 8.59833e-21 4.13648e-30 4.81079e-10 -2.66088e-07 3.78067e-19 2.59765e-19
525.665 7.77914e-21 7.77914e-21 3.38667e-30 4.35352e-10 -1.87239e-07 2.84718e-19 1.96611e-19
552.648 7.03749e-21 7.03749e-21 2.772e-30 3.93891e-10 -2.58157e-07 2.14212e-19 1.48632e-19
581.015 6.36609e-21 6.36609e-21 2.26832e-30 3.56312e-10 5.41399e-08 1.61019e-19 1.12234e-19
610.838 5.75915e-21 5.75915e-21 1.85653e-30 3.22361e-10 -9.54799e-09 1.20948e-19 8.46691e-20
642.193 5.2105e-21 5.2105e-21 1.51988e-30 2.91695e-10 -2.84648e-07 9.07878e-20 6.38184e-20
675.157 4.71375e-21 4.71375e-21 1.24394e-30 2.63896e-10 -4.07431e-07 6.8095e-20 4.80547e-20
709.813 4.26406e-21 4.26406e-21 1.01785e-30 2.38704e-10 -4.14754e-07 5.10369e-20 3.61513e-20
746.247 3.85791e-21 3.85791e-21 8.333e-31 2.15998e-10 3.01139e-07 3.82341e-20 2.71788e-20
784.553 3.49037e-21 3.49037e-21 6.82153e-31 1.95439e-10 -3.32753e-08 2.86251e-20 2.04169e-20
824.824 3.1576e-21 3.1576e-21 5.58275e-31 1.76804e-10 -4.21254e-07 2.14174e-20 1.5325e-20
867.162 2.85647e-21 2.85647e-21 4.56842e-31 1.59932e-10 -3.15079e-07 1.60155e-20 1.14947e-20
911.674 2.58451e-21 2.58451e-21 3.74051e-31 1.44728e-10 -9.03195e-08 1.19722e-20 8.61754e-21
958.471 2.33825e-21 2.33825e-21 3.06179e-31 1.30944e-10 -8.04404e-09 8.94457e-21 6.456e-21
1007.67 2.1153e-21 2.1153e-21 2.50555e-31 1.18449e-10 8.08543e-07 6.67911e-21 4.83345e-21
1059.39 1.91373e-21 1.91373e-21 2.05089e-31 1.07167e-10 4.92048e-07 4.98565e-21 3.61691e-21
1113.77 1.7315e-21 1.7315e-21 1.67909e-31 9.6973e-11 -3.63971e-07 3.72031e-21 2.70532e-21
1170.94 1.56649e-21 1.56649e-21 1.37428e-31 8.77299e-11 4.82441e-07 2.77481e-21 2.0223e-21
1231.05 1.4171e-21 1.4171e-21 1.12456e-31 7.93563e-11 8.32467e-08 2.0687e-21 1.51089e-21
1294.24 1.28218e-21 1.28218e-21 9.20719e-32 7.18092e-11 6.12533e-07 1.54201e-21 1.1285e-21
1360.67 1.16006e-21 1.16006e-21 7.53725e-32 6.49732e-11 7.46886e-07 1.149e-21 8.42493e-22
1430.51 1.04948e-21 1.04948e-21 6.16859e-32 5.87774e-11 1.18633e-06 8.55819e-22 6.28666e-22
1503.94 9.49426e-22 9.49426e-22 5.04805e-32 5.31695e-11 6.04604e-07 6.37245e-22 4.68918e-22
1581.14 8.59051e-22 8.59051e-22 4.13336e-32 4.81154e-11 -1.25803e-06 4.74441e-22 3.49694e-22
1662.3 7.77219e-22 7.77219e-22 3.38344e-32 4.35326e-11 -2.13266e-06 3.5311e-22 2.60673e-22
1747.63 7.03121e-22 7.03121e-22 2.76881e-32 3.93789e-11 -3.39292e-07 2.62718e-22 1.94232e-22
1837.33 6.36134e-22 6.36134e-22 2.26641e-32 3.5628e-11 -4.28436e-07 1.95435e-22 1.44692e-22
1931.64 5.75569e-22 5.75569e-22 1.85557e-32 3.2239e-11 -2.77769e-07 1.4536e-22 1.07763e-22
2030.79 5.20724e-22 5.20724e-22 1.51877e-32 2.91666e-11 -7.93597e-07 1.08083e-22 8.023e-23
2135.03 4.7107e-22 4.7107e-22 1.24278e-32 2.63822e-11 7.14611e-07 8.03429e-23 5.97107e-23
2244.63 4.26223e-22 4.26223e-22 1.01754e-32 2.38735e-11 -1.56364e-06 5.97214e-23 4.44359e-23
2359.84 3.85633e-22 3.85633e-22 8.33011e-33 2.16011e-11 3.48228e-06 4.43832e-23 3.30596e-23
2480.97 3.48879e-22 3.48879e-22 6.81749e-33 1.95411e-11 -1.18552e-06 3.29757e-23 2.4588e-23
2608.32 3.15621e-22 3.15621e-22 5.57923e-33 1.7677e-11 -3.62388e-06 2.44957e-23 1.82831e-23
2742.21 2.85579e-22 2.85579e-22 4.56826e-33 1.59965e-11 -1.27277e-06 1.81965e-23 1.35942e-23
2882.96 2.58376e-22 2.58376e-22 3.73948e-33 1.4473e-11 5.66576e-06 1.35141e-23 1.01051e-23
