# 5.9566e-05 1 129 : grain size, compostion index, size index
# Heating and cooling timescale: 0.00099995 3.16883e+07
# Ratio of heating to cooling to determine stochastic cutoff: 100
# Equilibrium emission is recorded even for those grains in the stochastic regime.
# Emission spectrum was computed for: 
# Type: IRSF
# Scales: 0.25 0.5 1 1.5 2 2.5 3 3.5 4 4.5 5 5.5 6 6.5 7 7.5 8 8.5 9 9.5 10
# StochasticallyHeated: 0 0 0 0 0 0 0 0 0 0 0 0 0 0 0 0 0 0 0 0 0
# Temperature: -1
# Wavelength  CExt  CAbs  CSca  Albedo G EqEm1 StEm1 EqEm2 StEm2 EqEm3 StEm3 EqEm4 StEm4 EqEm5 StEm5 EqEm6 StEm6 EqEm7 StEm7 EqEm8 StEm8 EqEm9 StEm9 EqEm10 StEm10 EqEm11 StEm11 EqEm12 StEm12 EqEm13 StEm13 EqEm14 StEm14 EqEm15 StEm15 EqEm16 StEm16 EqEm17 StEm17 EqEm18 StEm18 EqEm19 StEm19 EqEm20 StEm20 EqEm21 StEm21
0.05 6.02251e-09 2.6795e-09 3.34301e-09 0.555086 0.214647 0 0 0 0 0 0 0 0 0 0 0 0 0 0 0 0 0 0 0 0 0 0 0 0 0 0 0 0 0 0 0 0 0 0 0 0 0 0 0 0 0 0
0.0525665 6.65665e-09 2.96164e-09 3.69501e-09 0.555086 0.237249 0 0 0 0 0 0 0 0 0 0 0 0 0 0 0 0 0 0 0 0 0 0 0 0 0 0 0 0 0 0 0 0 0 0 0 0 0 0 0 0 0 0
0.0552647 7.35756e-09 3.27348e-09 4.08408e-09 0.555086 0.26223 0 0 0 0 0 0 0 0 0 0 0 0 0 0 0 0 0 0 0 0 0 0 0 0 0 0 0 0 0 0 0 0 0 0 0 0 0 0 0 0 0 0
0.0581015 8.13228e-09 3.61816e-09 4.51411e-09 0.555086 0.289841 0 0 0 0 0 0 0 0 0 0 0 0 0 0 0 0 0 0 0 0 0 0 0 0 0 0 0 0 0 0 0 0 0 0 0 0 0 0 0 0 0 0
0.0610839 8.98857e-09 3.99914e-09 4.98943e-09 0.555086 0.32036 0 0 0 0 0 0 0 0 0 0 0 0 0 0 0 0 0 0 0 0 0 0 0 0 0 0 0 0 0 0 0 0 0 0 0 0 0 0 0 0 0 0
0.0642193 9.93502e-09 4.42023e-09 5.51479e-09 0.555086 0.354093 0 0 0 0 0 0 0 0 0 0 0 0 0 0 0 0 0 0 0 0 0 0 0 0 0 0 0 0 0 0 0 0 0 0 0 0 0 0 0 0 0 0
0.0675157 1.09811e-08 4.88566e-09 6.09547e-09 0.555086 0.391377 0 0 0 0 0 0 0 0 0 0 0 0 0 0 0 0 0 0 0 0 0 0 0 0 0 0 0 0 0 0 0 0 0 0 0 0 0 0 0 0 0 0
0.0709813 1.21374e-08 5.40009e-09 6.73729e-09 0.555086 0.432587 0 0 0 0 0 0 0 0 0 0 0 0 0 0 0 0 0 0 0 0 0 0 0 0 0 0 0 0 0 0 0 0 0 0 0 0 0 0 0 0 0 0
0.0746248 1.34154e-08 5.9687e-09 7.4467e-09 0.555086 0.478136 0 0 0 0 0 0 0 0 0 0 0 0 0 0 0 0 0 0 0 0 0 0 0 0 0 0 0 0 0 0 0 0 0 0 0 0 0 0 0 0 0 0
0.0784553 1.4828e-08 6.59717e-09 8.2308e-09 0.555086 0.528482 0 0 0 0 0 0 0 0 0 0 0 0 0 0 0 0 0 0 0 0 0 0 0 0 0 0 0 0 0 0 0 0 0 0 0 0 0 0 0 0 0 0
0.0824824 1.63893e-08 7.29182e-09 9.09746e-09 0.555086 0.584128 0 0 0 0 0 0 0 0 0 0 0 0 0 0 0 0 0 0 0 0 0 0 0 0 0 0 0 0 0 0 0 0 0 0 0 0 0 0 0 0 0 0
0.0867162 1.8115e-08 8.05962e-09 1.00554e-08 0.555086 0.645635 0 0 0 0 0 0 0 0 0 0 0 0 0 0 0 0 0 0 0 0 0 0 0 0 0 0 0 0 0 0 0 0 0 0 0 0 0 0 0 0 0 0
0.0911674 2.00224e-08 8.90826e-09 1.11142e-08 0.555086 0.713617 0 0 0 0 0 0 0 0 0 0 0 0 0 0 0 0 0 0 0 0 0 0 0 0 0 0 0 0 0 0 0 0 0 0 0 0 0 0 0 0 0 0
0.095847 2.21307e-08 9.84625e-09 1.22844e-08 0.555086 0.788757 0 0 0 0 0 0 0 0 0 0 0 0 0 0 0 0 0 0 0 0 0 0 0 0 0 0 0 0 0 0 0 0 0 0 0 0 0 0 0 0 0 0
0.100767 2.41039e-08 1.07259e-08 1.3378e-08 0.555016 0.858579 0 0 0 0 0 0 0 0 0 0 0 0 0 0 0 0 0 0 0 0 0 0 0 0 0 0 0 0 0 0 0 0 0 0 0 0 0 0 0 0 0 0
0.105939 2.41976e-08 1.07789e-08 1.34186e-08 0.554545 0.861912 0 0 0 0 0 0 0 0 0 0 0 0 0 0 0 0 0 0 0 0 0 0 0 0 0 0 0 0 0 0 0 0 0 0 0 0 0 0 0 0 0 0
0.111377 2.42912e-08 1.0838e-08 1.34532e-08 0.553831 0.866304 0 0 0 0 0 0 0 0 0 0 0 0 0 0 0 0 0 0 0 0 0 0 0 0 0 0 0 0 0 0 0 0 0 0 0 0 0 0 0 0 0 0
0.117094 2.43865e-08 1.0896e-08 1.34905e-08 0.553195 0.868972 0 0 0 0 0 0 0 0 0 0 0 0 0 0 0 0 0 0 0 0 0 0 0 0 0 0 0 0 0 0 0 0 0 0 0 0 0 0 0 0 0 0
0.123105 2.44812e-08 1.09669e-08 1.35143e-08 0.552028 0.870491 0 0 0 0 0 0 0 0 0 0 0 0 0 0 0 0 0 0 0 0 0 0 0 0 0 0 0 0 0 0 0 0 0 0 0 0 0 0 0 0 0 0
0.129424 2.45731e-08 1.10426e-08 1.35306e-08 0.550624 0.871006 0 0 0 0 0 0 0 0 0 0 0 0 0 0 0 0 0 0 0 0 0 0 0 0 0 0 0 0 0 0 0 0 0 0 0 0 0 0 0 0 0 0
0.136067 2.46714e-08 1.11053e-08 1.35661e-08 0.549872 0.870331 0 0 0 0 0 0 0 0 0 0 0 0 0 0 0 0 0 0 0 0 0 0 0 0 0 0 0 0 0 0 0 0 0 0 0 0 0 0 0 0 0 0
0.143051 2.47694e-08 1.11904e-08 1.3579e-08 0.548218 0.867669 0 0 0 0 0 0 0 0 0 0 0 0 0 0 0 0 0 0 0 0 0 0 0 0 0 0 0 0 0 0 0 0 0 0 0 0 0 0 0 0 0 0
0.150394 2.48773e-08 1.13123e-08 1.35651e-08 0.545277 0.868246 0 0 0 0 0 0 0 0 0 0 0 0 0 0 0 0 0 0 0 0 0 0 0 0 0 0 0 0 0 0 0 0 0 0 0 0 0 0 0 0 0 0
0.158114 2.50029e-08 1.14662e-08 1.35367e-08 0.541404 0.873781 0 0 0 0 0 0 0 0 0 0 0 0 0 0 0 0 0 0 0 0 0 0 0 0 0 0 0 0 0 0 0 0 0 0 0 0 0 0 0 0 0 0
0.16623 2.515e-08 1.16338e-08 1.35163e-08 0.537426 0.880749 0 0 0 0 0 0 0 0 0 0 0 0 0 0 0 0 0 0 0 0 0 0 0 0 0 0 0 0 0 0 0 0 0 0 0 0 0 0 0 0 0 0
0.174762 2.53015e-08 1.17929e-08 1.35086e-08 0.533904 0.887063 0 0 0 0 0 0 0 0 0 0 0 0 0 0 0 0 0 0 0 0 0 0 0 0 0 0 0 0 0 0 0 0 0 0 0 0 0 0 0 0 0 0
0.183733 2.54534e-08 1.18774e-08 1.3576e-08 0.533365 0.891811 0 0 0 0 0 0 0 0 0 0 0 0 0 0 0 0 0 0 0 0 0 0 0 0 0 0 0 0 0 0 0 0 0 0 0 0 0 0 0 0 0 0
0.193164 2.59119e-08 1.17379e-08 1.4174e-08 0.547008 0.893518 0 0 0 0 0 0 0 0 0 0 0 0 0 0 0 0 0 0 0 0 0 0 0 0 0 0 0 0 0 0 0 0 0 0 0 0 0 0 0 0 0 0
0.203079 2.59931e-08 1.18094e-08 1.41838e-08 0.545674 0.882431 0 0 0 0 0 0 0 0 0 0 0 0 0 0 0 0 0 0 0 0 0 0 0 0 0 0 0 0 0 0 0 0 0 0 0 0 0 0 0 0 0 0
0.213503 2.59092e-08 1.19369e-08 1.39723e-08 0.53928 0.875876 0 0 0 0 0 0 0 0 0 0 0 0 0 0 0 0 0 0 0 0 0 0 0 0 0 0 0 0 0 0 0 0 0 0 0 0 0 0 0 0 0 0
0.224463 2.58516e-08 1.20301e-08 1.38215e-08 0.534648 0.843069 0 0 0 0 0 0 0 0 0 0 0 0 0 0 0 0 0 0 0 0 0 0 0 0 0 0 0 0 0 0 0 0 0 0 0 0 0 0 0 0 0 0
0.235984 2.57589e-08 1.21233e-08 1.36356e-08 0.529354 0.8519 0 0 0 0 0 0 0 0 0 0 0 0 0 0 0 0 0 0 0 0 0 0 0 0 0 0 0 0 0 0 0 0 0 0 0 0 0 0 0 0 0 0
0.248097 2.55297e-08 1.21849e-08 1.33448e-08 0.522717 0.862616 0 0 0 0 0 0 0 0 0 0 0 0 0 0 0 0 0 0 0 0 0 0 0 0 0 0 0 0 0 0 0 0 0 0 0 0 0 0 0 0 0 0
0.260832 2.57762e-08 1.22409e-08 1.35353e-08 0.525109 0.846996 0 0 0 0 0 0 0 0 0 0 0 0 0 0 0 0 0 0 0 0 0 0 0 0 0 0 0 0 0 0 0 0 0 0 0 0 0 0 0 0 0 0
0.274221 2.66132e-08 1.22831e-08 1.43301e-08 0.538458 0.827496 0 0 0 0 0 0 0 0 0 0 0 0 0 0 0 0 0 0 0 0 0 0 0 0 0 0 0 0 0 0 0 0 0 0 0 0 0 0 0 0 0 0
0.288297 2.7373e-08 1.23497e-08 1.50232e-08 0.548835 0.8316 0 0 0 0 0 0 0 0 0 0 0 0 0 0 0 0 0 0 0 0 0 0 0 0 0 0 0 0 0 0 0 0 0 0 0 0 0 0 0 0 0 0
0.303095 2.75658e-08 1.23916e-08 1.51743e-08 0.550474 0.843251 0 0 0 0 0 0 0 0 0 0 0 0 0 0 0 0 0 0 0 0 0 0 0 0 0 0 0 0 0 0 0 0 0 0 0 0 0 0 0 0 0 0
0.318653 2.72603e-08 1.24398e-08 1.48205e-08 0.543666 0.840173 0 0 0 0 0 0 0 0 0 0 0 0 0 0 0 0 0 0 0 0 0 0 0 0 0 0 0 0 0 0 0 0 0 0 0 0 0 0 0 0 0 0
0.335009 2.68389e-08 1.24618e-08 1.43771e-08 0.535682 0.816617 0 0 0 0 0 0 0 0 0 0 0 0 0 0 0 0 0 0 0 0 0 0 0 0 0 0 0 0 0 0 0 0 0 0 0 0 0 0 0 0 0 0
0.352205 2.66915e-08 1.25104e-08 1.41812e-08 0.531298 0.791036 0 0 0 0 0 0 0 0 0 0 0 0 0 0 0 0 0 0 0 0 0 0 0 0 0 0 0 0 0 0 0 0 0 0 0 0 0 0 0 0 0 0
0.370284 2.6907e-08 1.25148e-08 1.43922e-08 0.534886 0.771708 0 0 0 0 0 0 0 0 0 0 0 0 0 0 0 0 0 0 0 0 0 0 0 0 0 0 0 0 0 0 0 0 0 0 0 0 0 0 0 0 0 0
0.389291 2.73745e-08 1.24962e-08 1.48782e-08 0.543508 0.775276 0 0 0 0 0 0 0 0 0 0 0 0 0 0 0 0 0 0 0 0 0 0 0 0 0 0 0 0 0 0 0 0 0 0 0 0 0 0 0 0 0 0
0.409273 2.7953e-08 1.24544e-08 1.54986e-08 0.554453 0.79647 0 0 0 0 0 0 0 0 0 0 0 0 0 0 0 0 0 0 0 0 0 0 0 0 0 0 0 0 0 0 0 0 0 0 0 0 0 0 0 0 0 0
0.430281 2.84002e-08 1.24506e-08 1.59496e-08 0.561602 0.819318 0 0 0 0 0 0 0 0 0 0 0 0 0 0 0 0 0 0 0 0 0 0 0 0 0 0 0 0 0 0 0 0 0 0 0 0 0 0 0 0 0 0
0.452368 2.84946e-08 1.23457e-08 1.61488e-08 0.566733 0.830287 0 0 0 0 0 0 0 0 0 0 0 0 0 0 0 0 0 0 0 0 0 0 0 0 0 0 0 0 0 0 0 0 0 0 0 0 0 0 0 0 0 0
0.475588 2.82997e-08 1.22821e-08 1.60176e-08 0.565999 0.833534 0 0 0 0 0 0 0 0 0 0 0 0 0 0 0 0 0 0 0 0 0 0 0 0 0 0 0 0 0 0 0 0 0 0 0 0 0 0 0 0 0 0
0.5 2.79597e-08 1.21185e-08 1.58412e-08 0.566572 0.820254 0 0 0 0 0 0 0 0 0 0 0 0 0 0 0 0 0 0 0 0 0 0 0 0 0 0 0 0 0 0 0 0 0 0 0 0 0 0 0 0 0 0
0.525665 2.74578e-08 1.20626e-08 1.53952e-08 0.560685 0.799184 0 0 0 0 0 0 0 0 0 0 0 0 0 0 0 0 0 0 0 0 0 0 0 0 0 0 0 0 0 0 0 0 0 0 0 0 0 0 0 0 0 0
0.552648 2.72938e-08 1.18444e-08 1.54494e-08 0.566041 0.747983 0 0 0 0 0 0 0 0 0 0 0 0 0 0 0 0 0 0 0 0 0 0 0 0 0 0 0 0 0 0 0 0 0 0 0 0 0 0 0 0 0 0
0.581015 2.72756e-08 1.17106e-08 1.5565e-08 0.570657 0.6961 0 0 0 0 0 0 0 0 0 0 0 0 0 0 0 0 0 0 0 0 0 0 0 0 0 0 0 0 0 0 0 0 0 0 0 0 0 0 0 0 0 0
0.610839 2.77063e-08 1.14381e-08 1.62683e-08 0.587168 0.623103 0 0 0 0 0 0 0 0 0 0 0 0 0 0 0 0 0 0 0 0 0 0 0 0 0 0 0 0 0 0 0 0 0 0 0 0 0 0 0 0 0 0
0.642193 2.8717e-08 1.13805e-08 1.73365e-08 0.603701 0.521946 0 0 0 0 0 0 0 0 0 0 0 0 0 0 0 0 0 0 0 0 0 0 0 0 0 0 0 0 0 0 0 0 0 0 0 0 0 0 0 0 0 0
0.675157 2.97503e-08 1.10506e-08 1.86997e-08 0.628556 0.517114 0 0 0 0 0 0 0 0 0 0 0 0 0 0 0 0 0 0 0 0 0 0 0 0 0 0 0 0 0 0 0 0 0 0 0 0 0 0 0 0 0 0
0.709813 3.16533e-08 1.07962e-08 2.08571e-08 0.658923 0.47766 0 0 0 0 0 0 0 0 0 0 0 0 0 0 0 0 0 0 0 0 0 0 0 0 0 0 0 0 0 0 0 0 0 0 0 0 0 0 0 0 0 0
0.746248 3.34204e-08 1.0617e-08 2.28033e-08 0.682318 0.490776 0 0 0 0 0 0 0 0 0 0 0 0 0 0 0 0 0 0 0 0 0 0 0 0 0 0 0 0 0 0 0 0 0 0 0 0 0 0 0 0 0 0
0.784553 3.51471e-08 1.03362e-08 2.48109e-08 0.705917 0.542517 0 0 0 0 0 0 0 0 0 0 0 0 0 0 0 0 0 0 0 0 0 0 0 0 0 0 0 0 0 0 0 0 0 0 0 0 0 0 0 0 0 0
0.824824 3.73125e-08 1.01145e-08 2.7198e-08 0.728925 0.547762 0 0 0 0 0 0 0 0 0 0 0 0 0 0 0 0 0 0 0 0 0 0 0 0 0 0 0 0 0 0 0 0 0 0 0 0 0 0 0 0 0 0
0.867162 3.90658e-08 9.84777e-09 2.9218e-08 0.747919 0.595165 0 0 0 0 0 0 0 0 0 0 0 0 0 0 0 0 0 0 0 0 0 0 0 0 0 0 0 0 0 0 0 0 0 0 0 0 0 0 0 0 0 0
0.911674 4.04549e-08 9.57474e-09 3.08801e-08 0.763323 0.638258 0 0 0 0 0 0 0 0 0 0 0 0 0 0 0 0 0 0 0 0 0 0 0 0 0 0 0 0 0 0 0 0 0 0 0 0 0 0 0 0 0 0
0.95847 4.15012e-08 9.24415e-09 3.2257e-08 0.777256 0.639127 0 0 0 0 0 0 0 0 0 0 0 0 0 0 0 0 0 0 0 0 0 0 0 0 0 0 0 0 0 0 0 0 0 0 0 0 0 0 0 0 0 0
1.00767 4.21049e-08 8.86729e-09 3.32376e-08 0.7894 0.63486 0 0 0 0 0 0 0 0 0 0 0 0 0 0 0 0 0 0 0 0 0 0 0 0 0 0 0 0 0 0 0 0 0 0 0 0 0 0 0 0 0 0
1.05939 4.24073e-08 8.75289e-09 3.36544e-08 0.793599 0.677648 0 0 0 0 0 0 0 0 0 0 0 0 0 0 0 0 0 0 0 0 0 0 0 0 0 0 0 0 0 0 0 0 0 0 0 0 0 0 0 0 0 0
1.11377 4.2355e-08 8.78341e-09 3.35716e-08 0.792624 0.700248 0 0 0 0 0 0 0 0 0 0 0 0 0 0 0 0 0 0 0 0 0 0 0 0 0 0 0 0 0 0 0 0 0 0 0 0 0 0 0 0 0 0
1.17094 4.15186e-08 8.66263e-09 3.2856e-08 0.791356 0.69323 0 0 0 0 0 0 0 0 0 0 0 0 0 0 0 0 0 0 0 0 0 0 0 0 0 0 0 0 0 0 0 0 0 0 0 0 0 0 0 0 0 0
1.23105 4.00843e-08 8.32791e-09 3.17564e-08 0.79224 0.666848 0 0 0 0 0 0 0 0 0 0 0 0 0 0 0 0 0 0 0 0 0 0 0 0 0 0 0 0 0 0 0 0 0 0 0 0 0 0 0 0 0 0
1.29424 3.87201e-08 8.01502e-09 3.07051e-08 0.793001 0.659943 0 0 0 0 0 0 0 0 0 0 0 0 0 0 0 0 0 0 0 0 0 0 0 0 0 0 0 0 0 0 0 0 0 0 0 0 0 0 0 0 0 0
1.36067 3.76621e-08 7.90981e-09 2.97523e-08 0.78998 0.675352 0 0 0 0 0 0 0 0 0 0 0 0 0 0 0 0 0 0 0 0 0 0 0 0 0 0 0 0 0 0 0 0 0 0 0 0 0 0 0 0 0 0
1.43051 3.61507e-08 7.88831e-09 2.82624e-08 0.781794 0.692595 0 0 0 0 0 0 0 0 0 0 0 0 0 0 0 0 0 0 0 0 0 0 0 0 0 0 0 0 0 0 0 0 0 0 0 0 0 0 0 0 0 0
1.50394 3.41218e-08 7.78246e-09 2.63393e-08 0.771921 0.697275 0 0 0 0 0 0 0 0 0 0 0 0 0 0 0 0 0 0 0 0 0 0 0 0 0 0 0 0 0 0 0 0 0 0 0 0 0 0 0 0 0 0
1.58114 3.16793e-08 7.4907e-09 2.41886e-08 0.763546 0.68037 0 0 0 0 0 0 0 0 0 0 0 0 0 0 0 0 0 0 0 0 0 0 0 0 0 0 0 0 0 0 0 0 0 0 0 0 0 0 0 0 0 0
1.6623 2.93053e-08 7.1158e-09 2.21895e-08 0.757184 0.644771 0 0 0 0 0 0 0 0 0 0 0 0 0 0 0 0 0 0 0 0 0 0 0 0 0 0 0 0 0 0 0 0 0 0 0 0 0 0 0 0 0 0
1.74763 2.72921e-08 6.81421e-09 2.04779e-08 0.750323 0.607464 0 0 0 0 0 0 0 0 0 0 0 0 0 0 0 0 0 0 0 0 0 0 0 0 0 0 0 0 0 0 0 0 0 0 0 0 0 0 0 0 0 0
1.83733 2.55732e-08 6.65234e-09 1.89208e-08 0.73987 0.581919 0 0 0 0 0 0 0 0 0 0 0 0 0 0 0 0 0 0 0 0 0 0 0 0 0 0 0 0 0 0 0 0 0 0 0 0 0 0 0 0 0 0
1.93164 2.39319e-08 6.5984e-09 1.73335e-08 0.724284 0.572219 0 0 0 0 0 0 0 0 0 0 0 0 0 0 0 0 0 0 0 0 0 0 0 0 0 0 0 0 0 0 0 0 0 0 0 0 0 0 0 0 0 0
2.03079 2.22254e-08 6.58134e-09 1.5644e-08 0.703882 0.576343 0 0 0 0 0 0 0 0 0 0 0 0 0 0 0 0 0 0 0 0 0 0 0 0 0 0 0 0 0 0 0 0 0 0 0 0 0 0 0 0 0 0
2.13503 2.04267e-08 6.5328e-09 1.38939e-08 0.680183 0.588245 0 0 0 0 0 0 0 0 0 0 0 0 0 0 0 0 0 0 0 0 0 0 0 0 0 0 0 0 0 0 0 0 0 0 0 0 0 0 0 0 0 0
2.24463 1.86199e-08 6.4168e-09 1.22031e-08 0.655379 0.597412 0 0 0 0 0 0 0 0 0 0 0 0 0 0 0 0 0 0 0 0 0 0 0 0 0 0 0 0 0 0 0 0 0 0 0 0 0 0 0 0 0 0
2.35984 1.69018e-08 6.24128e-09 1.06606e-08 0.630734 0.591946 0 0 0 0 0 0 0 0 0 0 0 0 0 0 0 0 0 0 0 0 0 0 0 0 0 0 0 0 0 0 0 0 0 0 0 0 0 0 0 0 0 0
2.48097 1.53482e-08 6.04378e-09 9.3044e-09 0.606222 0.566079 0 0 0 0 0 0 0 0 0 0 0 0 0 0 0 0 0 0 0 0 0 0 0 0 0 0 0 0 0 0 0 0 0 0 0 0 0 0 0 0 0 0
2.60832 1.39886e-08 5.85551e-09 8.13306e-09 0.581408 0.523001 0 0 0 0 0 0 0 0 0 0 0 0 0 0 0 0 0 0 0 0 0 0 0 0 0 0 0 0 0 0 0 0 0 0 0 0 0 0 0 0 0 0
2.74221 1.28164e-08 5.7002e-09 7.1162e-09 0.555242 0.471029 0 0 0 0 0 0 0 0 0 0 0 0 0 0 0 0 0 0 0 0 0 0 0 0 0 0 0 0 0 0 0 0 0 0 0 0 0 0 0 0 0 0
2.88297 1.18143e-08 5.5863e-09 6.22804e-09 0.527159 0.417875 0 0 0 0 0 0 0 0 0 0 0 0 0 0 0 0 0 0 0 0 0 0 0 0 0 0 0 0 0 0 0 0 0 0 0 0 0 0 0 0 0 0
3.03095 1.09674e-08 5.51366e-09 5.4537e-09 0.497266 0.368469 0 0 0 0 0 0 0 0 0 0 0 0 0 0 0 0 0 0 0 0 0 0 0 0 0 0 0 0 0 0 0 0 0 0 0 0 0 0 0 0 0 0
3.18653 1.01923e-08 5.41904e-09 4.77324e-09 0.468319 0.32462 0 0 0 0 0 0 0 0 0 0 0 0 0 0 0 0 0 0 0 0 0 0 0 0 0 0 0 0 0 0 0 0 0 0 0 0 0 0 0 0 0 0
3.35009 9.48315e-09 5.40423e-09 4.07891e-09 0.430122 0.286492 0 0 0 0 0 0 0 0 0 0 0 0 0 0 0 0 0 0 0 0 0 0 0 0 0 0 0 0 0 0 0 0 0 0 0 0 0 0 0 0 0 0
3.52205 9.11569e-09 5.37209e-09 3.7436e-09 0.410677 0.253594 0 0 0 0 0 0 0 0 0 0 0 0 0 0 0 0 0 0 0 0 0 0 0 0 0 0 0 0 0 0 0 0 0 0 0 0 0 0 0 0 0 0
3.70284 8.13359e-09 4.94769e-09 3.1859e-09 0.391696 0.225232 0 0 0 0 0 0 0 0 0 0 0 0 0 0 0 0 0 0 0 0 0 0 0 0 0 0 0 0 0 0 0 0 0 0 0 0 0 0 0 0 0 0
3.89291 7.45537e-09 4.75863e-09 2.69673e-09 0.361717 0.200614 0 0 0 0 0 0 0 0 0 0 0 0 0 0 0 0 0 0 0 0 0 0 0 0 0 0 0 0 0 0 0 0 0 0 0 0 0 0 0 0 0 0
4.09273 6.86547e-09 4.595e-09 2.27047e-09 0.330708 0.179111 0 0 0 0 0 0 0 0 0 0 0 0 0 0 0 0 0 0 0 0 0 0 0 0 0 0 0 0 0 0 0 0 0 0 0 0 0 0 0 0 0 0
4.30281 6.358e-09 4.45555e-09 1.90244e-09 0.299221 0.160224 0 0 0 0 0 0 0 0 0 0 0 0 0 0 0 0 0 0 0 0 0 0 0 0 0 0 0 0 0 0 0 0 0 0 0 0 0 0 0 0 0 0
4.52368 5.93059e-09 4.34178e-09 1.58881e-09 0.2679 0.14357 0 0 0 0 0 0 0 0 0 0 0 0 0 0 0 0 0 0 0 0 0 0 0 0 0 0 0 0 0 0 0 0 0 0 0 0 0 0 0 0 0 0
4.75588 5.57271e-09 4.24821e-09 1.3245e-09 0.237677 0.128769 0 0 0 0 0 0 0 0 0 0 0 0 0 0 0 0 0 0 0 0 0 0 0 0 0 0 0 0 0 0 0 0 0 0 0 0 0 0 0 0 0 0
5 5.26773e-09 4.16403e-09 1.1037e-09 0.209521 0.115527 0 0 0 0 0 0 0 0 0 0 0 0 0 0 0 0 0 0 0 0 0 0 0 0 0 0 0 0 0 0 0 0 0 0 0 0 0 0 0 0 0 0
5.25665 4.99795e-09 4.07902e-09 9.18933e-10 0.183862 0.103646 0 0 0 0 0 0 0 0 0 0 0 0 0 0 0 0 0 0 0 0 0 0 0 0 0 0 0 0 0 0 0 0 0 0 0 0 0 0 0 0 0 0
5.52648 4.75689e-09 3.99321e-09 7.63686e-10 0.160543 0.0929919 0 0 0 0 0 0 0 0 0 0 0 0 0 0 0 0 0 0 0 0 0 0 0 0 0 0 0 0 0 0 0 0 0 0 0 0 0 0 0 0 0 0
5.81015 4.53663e-09 3.90362e-09 6.33011e-10 0.139533 0.083349 0 0 0 0 0 0 0 0 0 0 0 0 0 0 0 0 0 0 0 0 0 0 0 0 0 0 0 0 0 0 0 0 0 0 0 0 0 0 0 0 0 0
6.10839 4.33708e-09 3.8142e-09 5.22877e-10 0.12056 0.0746253 0 0 0 0 0 0 0 0 0 0 0 0 0 0 0 0 0 0 0 0 0 0 0 0 0 0 0 0 0 0 0 0 0 0 0 0 0 0 1.4013e-45 0 2.8026e-45 0
6.42193 4.15339e-09 3.72359e-09 4.29799e-10 0.103481 0.0666888 0 0 0 0 0 0 0 0 0 0 0 0 0 0 0 0 0 0 0 0 0 0 0 0 0 0 0 0 0 0 2.8026e-45 0 8.40779e-45 0 2.24208e-44 0 6.16571e-44 0 1.62551e-43 0 3.92364e-43 0
6.75157 3.99401e-09 3.64404e-09 3.49962e-10 0.0876218 0.0593921 0 0 0 0 0 0 0 0 0 0 0 0 0 0 0 0 0 0 0 0 0 0 1.4013e-45 0 7.00649e-45 0 3.08286e-44 0 1.13505e-43 0 3.71344e-43 0 1.12524e-42 0 3.15012e-42 0 8.18498e-42 0 2.03441e-41 0 4.72196e-41 0
7.09813 3.82397e-09 3.5392e-09 2.84779e-10 0.0744719 0.0525491 0 0 0 0 0 0 0 0 0 0 0 0 0 0 0 0 1.4013e-45 0 7.00649e-45 0 4.48416e-44 0 2.34017e-43 0 1.03836e-42 0 4.06657e-42 0 1.41223e-41 0 4.38396e-41 0 1.25765e-40 0 3.34816e-40 0 8.30356e-40 0 1.97422e-39 0 4.39762e-39 0
7.46248 3.66743e-09 3.44193e-09 2.255e-10 0.0614873 0.0459565 0 0 0 0 0 0 0 0 0 0 0 0 1.4013e-45 0 1.26117e-44 0 1.24716e-43 0 9.58488e-43 0 5.7229e-42 0 2.78172e-41 0 1.15108e-40 0 4.21611e-40 0 1.37797e-39 0 4.04753e-39 0 1.10289e-38 0 2.79908e-38 0 6.6407e-38 0 1.51349e-37 0 3.24206e-37 0
7.84553 3.50719e-09 3.33716e-09 1.70033e-10 0.0484813 0.0397662 0 0 0 0 0 0 0 0 0 0 4.2039e-45 0 1.16308e-43 0 1.63952e-42 0 1.50149e-41 0 1.049e-40 0 5.73913e-40 0 2.58255e-39 0 9.97098e-39 0 3.4278e-38 0 1.05738e-37 0 2.94669e-37 0 7.64577e-37 0 1.85419e-36 0 4.21731e-36 0 9.23282e-36 0 1.90556e-35 0
8.24824 3.75492e-09 3.63119e-09 1.23729e-10 0.0329511 0.0345013 0 0 0 0 0 0 0 0 1.4013e-44 0 7.03452e-43 0 1.5553e-41 0 1.93524e-40 0 1.59035e-39 0 1.01043e-38 0 5.08798e-38 0 2.12743e-37 0 7.68955e-37 0 2.48883e-36 0 7.2665e-36 0 1.92618e-35 0 4.77053e-35 0 1.10794e-34 0 2.42087e-34 0 5.101e-34 0 1.0162e-33 0
8.67162 4.43224e-09 4.32585e-09 1.06384e-10 0.0240023 0.0301733 0 0 0 0 0 0 1.68156e-44 0 2.34297e-42 0 9.3887e-41 0 1.78582e-39 0 1.96479e-38 0 1.45685e-37 0 8.45711e-37 0 3.93534e-36 0 1.53447e-35 0 5.20904e-35 0 1.59201e-34 0 4.41121e-34 0 1.11496e-33 0 2.64179e-33 0 5.88817e-33 0 1.2384e-32 0 2.51619e-32 0 4.84676e-32 0
9.11674 5.96902e-09 5.84329e-09 1.25731e-10 0.0210639 0.0258336 0 0 0 0 2.8026e-45 0 2.94693e-42 0 3.3339e-40 0 1.11556e-38 0 1.83766e-37 0 1.79844e-36 0 1.20924e-35 0 6.4421e-35 0 2.7809e-34 0 1.01463e-33 0 3.24482e-33 0 9.39053e-33 0 2.47566e-32 0 5.9804e-32 0 1.35856e-31 0 2.91183e-31 0 5.90587e-31 0 1.15913e-30 0 2.16242e-30 0
9.5847 7.36724e-09 7.19013e-09 1.77111e-10 0.0240403 0.0228896 0 0 0 0 4.37205e-43 0 3.78693e-40 0 3.40043e-38 0 9.58603e-37 0 1.37723e-35 0 1.20578e-34 0 7.38714e-34 0 3.62677e-33 0 1.4577e-32 0 4.9928e-32 0 1.50861e-31 0 4.14519e-31 0 1.0423e-30 0 2.41173e-30 0 5.26354e-30 0 1.08693e-29 0 2.12973e-29 0 4.04459e-29 0 7.31915e-29 0
10.0767 7.33512e-09 7.13495e-09 2.00177e-10 0.0272901 0.021446 0 0 0 0 4.96186e-41 0 3.08908e-38 0 2.22695e-36 0 5.33355e-35 0 6.72783e-34 0 5.29825e-33 0 2.97103e-32 0 1.34962e-31 0 5.06828e-31 0 1.63468e-30 0 4.67971e-30 0 1.22392e-29 0 2.94204e-29 0 6.53429e-29 0 1.37277e-28 0 2.73619e-28 0 5.18807e-28 0 9.54897e-28 0 1.67868e-27 0
10.5939 6.36189e-09 6.18095e-09 1.8094e-10 0.0284412 0.0208248 0 0 3.78351e-44 0 3.85318e-39 0 1.75219e-36 0 1.02507e-34 0 2.1024e-33 0 2.34329e-32 0 1.6685e-31 0 8.60085e-31 0 3.62872e-30 0 1.27746e-29 0 3.89124e-29 0 1.05821e-28 0 2.64072e-28 0 6.08163e-28 0 1.29912e-27 0 2.63214e-27 0 5.0726e-27 0 9.32233e-27 0 1.66548e-26 0 2.84831e-26 0
11.1377 5.36196e-09 5.20842e-09 1.53539e-10 0.0286349 0.0212098 0 0 3.93344e-42 0 2.30858e-37 0 7.78653e-35 0 3.73453e-33 0 6.60911e-32 0 6.54832e-31 0 4.23649e-30 0 2.01581e-29 0 7.92749e-29 0 2.62447e-28 0 7.57121e-28 0 1.96081e-27 0 4.67945e-27 0 1.03468e-26 0 2.1298e-26 0 4.16895e-26 0 7.78104e-26 0 1.38812e-25 0 2.41067e-25 0 4.01613e-25 0
11.7094 4.30569e-09 4.18528e-09 1.20414e-10 0.0279663 0.0213443 2.8026e-45 0 3.0819e-40 0 1.05807e-35 0 2.68589e-33 0 1.06638e-31 0 1.64018e-30 0 1.45295e-29 0 8.58096e-29 0 3.78358e-28 0 1.39173e-27 0 4.34588e-27 0 1.19052e-26 0 2.94326e-26 0 6.732e-26 0 1.43195e-25 0 2.84548e-25 0 5.39016e-25 0 9.75845e-25 0 1.69238e-24 0 2.86091e-24 0 4.6489e-24 0
12.3105 3.42838e-09 3.33885e-09 8.95352e-11 0.0261159 0.0213114 2.57839e-43 0 1.89342e-38 0 3.90383e-34 0 7.56246e-32 0 2.50857e-30 0 3.37639e-29 0 2.68879e-28 0 1.45608e-27 0 5.97162e-27 0 2.06123e-26 0 6.08842e-26 0 1.58779e-25 0 3.75573e-25 0 8.25025e-25 0 1.69141e-24 0 3.25023e-24 0 5.9678e-24 0 1.04956e-23 0 1.77194e-23 0 2.9196e-23 0 4.63314e-23 0
12.9424 3.05777e-09 2.99308e-09 6.46915e-11 0.0211564 0.0204766 2.45493e-41 0 1.0445e-36 0 1.32591e-32 0 1.98618e-30 0 5.55304e-29 0 6.58315e-28 0 4.73743e-27 0 2.3624e-26 0 9.04346e-26 0 2.93833e-25 0 8.23213e-25 0 2.04869e-24 0 4.64646e-24 0 9.82218e-24 0 1.94431e-23 0 3.61895e-23 0 6.45057e-23 0 1.10362e-22 0 1.81617e-22 0 2.9204e-22 0 4.53109e-22 0
