# 1.69707e-05 1 59 : grain size, compostion index, size index
# Heating and cooling timescale: 0.0793745 3.30855e+06
# Ratio of heating to cooling to determine stochastic cutoff: 100
# Equilibrium emission is recorded even for those grains in the stochastic regime.
# Emission spectrum was computed for: 
# Type: ISRF
# Scales: 0.25 0.5 1 1.5 2 2.5 3 3.5 4 4.5 5 5.5 6 6.5 7 7.5 8 8.5 9 9.5 10
# StochasticallyHeated: 0 0 0 0 0 0 0 0 0 0 0 0 0 0 0 0 0 0 0 0 0
# Temperature: -1
# Wavelength  CExt  CAbs  CSca  Albedo G EqEm1 StEm1 EqEm2 StEm2 EqEm3 StEm3 EqEm4 StEm4 EqEm5 StEm5 EqEm6 StEm6 EqEm7 StEm7 EqEm8 StEm8 EqEm9 StEm9 EqEm10 StEm10 EqEm11 StEm11 EqEm12 StEm12 EqEm13 StEm13 EqEm14 StEm14 EqEm15 StEm15 EqEm16 StEm16 EqEm17 StEm17 EqEm18 StEm18 EqEm19 StEm19 EqEm20 StEm20 EqEm21 StEm21
0.05 1.91396e-09 8.46354e-10 1.0676e-09 0.557799 0.925028 0 0 0 0 0 0 0 0 0 0 0 0 0 0 0 0 0 0 0 0 0 0 0 0 0 0 0 0 0 0 0 0 0 0 0 0 0 0 0 0 0 0
0.0525665 1.92431e-09 8.46208e-10 1.0781e-09 0.560254 0.918988 0 0 0 0 0 0 0 0 0 0 0 0 0 0 0 0 0 0 0 0 0 0 0 0 0 0 0 0 0 0 0 0 0 0 0 0 0 0 0 0 0 0
0.0552647 1.93665e-09 8.41162e-10 1.09549e-09 0.565662 0.910087 0 0 0 0 0 0 0 0 0 0 0 0 0 0 0 0 0 0 0 0 0 0 0 0 0 0 0 0 0 0 0 0 0 0 0 0 0 0 0 0 0 0
0.0581015 1.95484e-09 8.32347e-10 1.12249e-09 0.574211 0.896666 0 0 0 0 0 0 0 0 0 0 0 0 0 0 0 0 0 0 0 0 0 0 0 0 0 0 0 0 0 0 0 0 0 0 0 0 0 0 0 0 0 0
0.0610839 1.97911e-09 8.28011e-10 1.1511e-09 0.581625 0.881802 0 0 0 0 0 0 0 0 0 0 0 0 0 0 0 0 0 0 0 0 0 0 0 0 0 0 0 0 0 0 0 0 0 0 0 0 0 0 0 0 0 0
0.0642193 2.00545e-09 8.32267e-10 1.17318e-09 0.584997 0.869691 0 0 0 0 0 0 0 0 0 0 0 0 0 0 0 0 0 0 0 0 0 0 0 0 0 0 0 0 0 0 0 0 0 0 0 0 0 0 0 0 0 0
0.0675157 2.03171e-09 8.43435e-10 1.18827e-09 0.584864 0.861022 0 0 0 0 0 0 0 0 0 0 0 0 0 0 0 0 0 0 0 0 0 0 0 0 0 0 0 0 0 0 0 0 0 0 0 0 0 0 0 0 0 0
0.0709813 2.05692e-09 8.59507e-10 1.19741e-09 0.582138 0.855338 0 0 0 0 0 0 0 0 0 0 0 0 0 0 0 0 0 0 0 0 0 0 0 0 0 0 0 0 0 0 0 0 0 0 0 0 0 0 0 0 0 0
0.0746248 2.08004e-09 8.78821e-10 1.20122e-09 0.577499 0.85219 0 0 0 0 0 0 0 0 0 0 0 0 0 0 0 0 0 0 0 0 0 0 0 0 0 0 0 0 0 0 0 0 0 0 0 0 0 0 0 0 0 0
0.0784553 2.09924e-09 9.0073e-10 1.19851e-09 0.570926 0.85194 0 0 0 0 0 0 0 0 0 0 0 0 0 0 0 0 0 0 0 0 0 0 0 0 0 0 0 0 0 0 0 0 0 0 0 0 0 0 0 0 0 0
0.0824824 2.1122e-09 9.25881e-10 1.18631e-09 0.56165 0.855908 0 0 0 0 0 0 0 0 0 0 0 0 0 0 0 0 0 0 0 0 0 0 0 0 0 0 0 0 0 0 0 0 0 0 0 0 0 0 0 0 0 0
0.0867162 2.11996e-09 9.39546e-10 1.18042e-09 0.55681 0.857509 0 0 0 0 0 0 0 0 0 0 0 0 0 0 0 0 0 0 0 0 0 0 0 0 0 0 0 0 0 0 0 0 0 0 0 0 0 0 0 0 0 0
0.0911674 2.13826e-09 9.45458e-10 1.1928e-09 0.557837 0.850562 0 0 0 0 0 0 0 0 0 0 0 0 0 0 0 0 0 0 0 0 0 0 0 0 0 0 0 0 0 0 0 0 0 0 0 0 0 0 0 0 0 0
0.095847 2.15607e-09 9.58208e-10 1.19786e-09 0.555576 0.846287 0 0 0 0 0 0 0 0 0 0 0 0 0 0 0 0 0 0 0 0 0 0 0 0 0 0 0 0 0 0 0 0 0 0 0 0 0 0 0 0 0 0
0.100767 2.16923e-09 9.71922e-10 1.1973e-09 0.55195 0.844349 0 0 0 0 0 0 0 0 0 0 0 0 0 0 0 0 0 0 0 0 0 0 0 0 0 0 0 0 0 0 0 0 0 0 0 0 0 0 0 0 0 0
0.105939 2.17785e-09 9.89407e-10 1.18844e-09 0.545695 0.84617 0 0 0 0 0 0 0 0 0 0 0 0 0 0 0 0 0 0 0 0 0 0 0 0 0 0 0 0 0 0 0 0 0 0 0 0 0 0 0 0 0 0
0.111377 2.18554e-09 1.00687e-09 1.17867e-09 0.539302 0.849042 0 0 0 0 0 0 0 0 0 0 0 0 0 0 0 0 0 0 0 0 0 0 0 0 0 0 0 0 0 0 0 0 0 0 0 0 0 0 0 0 0 0
0.117094 2.19498e-09 1.02219e-09 1.17279e-09 0.534304 0.850148 0 0 0 0 0 0 0 0 0 0 0 0 0 0 0 0 0 0 0 0 0 0 0 0 0 0 0 0 0 0 0 0 0 0 0 0 0 0 0 0 0 0
0.123105 2.20554e-09 1.03628e-09 1.16926e-09 0.530147 0.850081 0 0 0 0 0 0 0 0 0 0 0 0 0 0 0 0 0 0 0 0 0 0 0 0 0 0 0 0 0 0 0 0 0 0 0 0 0 0 0 0 0 0
0.129424 2.21713e-09 1.04944e-09 1.16768e-09 0.526666 0.848963 0 0 0 0 0 0 0 0 0 0 0 0 0 0 0 0 0 0 0 0 0 0 0 0 0 0 0 0 0 0 0 0 0 0 0 0 0 0 0 0 0 0
0.136067 2.22949e-09 1.06123e-09 1.16825e-09 0.524 0.846556 0 0 0 0 0 0 0 0 0 0 0 0 0 0 0 0 0 0 0 0 0 0 0 0 0 0 0 0 0 0 0 0 0 0 0 0 0 0 0 0 0 0
0.143051 2.24253e-09 1.07039e-09 1.17215e-09 0.522689 0.842029 0 0 0 0 0 0 0 0 0 0 0 0 0 0 0 0 0 0 0 0 0 0 0 0 0 0 0 0 0 0 0 0 0 0 0 0 0 0 0 0 0 0
0.150394 2.25515e-09 1.08491e-09 1.17024e-09 0.518918 0.840481 0 0 0 0 0 0 0 0 0 0 0 0 0 0 0 0 0 0 0 0 0 0 0 0 0 0 0 0 0 0 0 0 0 0 0 0 0 0 0 0 0 0
0.158114 2.26405e-09 1.10792e-09 1.15614e-09 0.510649 0.841724 0 0 0 0 0 0 0 0 0 0 0 0 0 0 0 0 0 0 0 0 0 0 0 0 0 0 0 0 0 0 0 0 0 0 0 0 0 0 0 0 0 0
0.16623 2.25482e-09 1.12114e-09 1.13369e-09 0.502783 0.833901 0 0 0 0 0 0 0 0 0 0 0 0 0 0 0 0 0 0 0 0 0 0 0 0 0 0 0 0 0 0 0 0 0 0 0 0 0 0 0 0 0 0
0.174762 2.34529e-09 1.10631e-09 1.23898e-09 0.528284 0.834432 0 0 0 0 0 0 0 0 0 0 0 0 0 0 0 0 0 0 0 0 0 0 0 0 0 0 0 0 0 0 0 0 0 0 0 0 0 0 0 0 0 0
0.183733 2.55646e-09 1.04112e-09 1.51534e-09 0.592749 0.834554 0 0 0 0 0 0 0 0 0 0 0 0 0 0 0 0 0 0 0 0 0 0 0 0 0 0 0 0 0 0 0 0 0 0 0 0 0 0 0 0 0 0
0.193164 2.52451e-09 8.94461e-10 1.63005e-09 0.64569 0.820742 0 0 0 0 0 0 0 0 0 0 0 0 0 0 0 0 0 0 0 0 0 0 0 0 0 0 0 0 0 0 0 0 0 0 0 0 0 0 0 0 0 0
0.203079 2.30266e-09 8.22705e-10 1.47995e-09 0.642715 0.691087 0 0 0 0 0 0 0 0 0 0 0 0 0 0 0 0 0 0 0 0 0 0 0 0 0 0 0 0 0 0 0 0 0 0 0 0 0 0 0 0 0 0
0.213503 1.92555e-09 6.67475e-10 1.25807e-09 0.653358 0.583134 0 0 0 0 0 0 0 0 0 0 0 0 0 0 0 0 0 0 0 0 0 0 0 0 0 0 0 0 0 0 0 0 0 0 0 0 0 0 0 0 0 0
0.224463 1.7383e-09 5.81084e-10 1.15721e-09 0.665716 0.396865 0 0 0 0 0 0 0 0 0 0 0 0 0 0 0 0 0 0 0 0 0 0 0 0 0 0 0 0 0 0 0 0 0 0 0 0 0 0 0 0 0 0
0.235984 1.99925e-09 5.56381e-10 1.44287e-09 0.721705 0.406014 0 0 0 0 0 0 0 0 0 0 0 0 0 0 0 0 0 0 0 0 0 0 0 0 0 0 0 0 0 0 0 0 0 0 0 0 0 0 0 0 0 0
0.248097 2.20512e-09 6.34308e-10 1.57081e-09 0.712348 0.418301 0 0 0 0 0 0 0 0 0 0 0 0 0 0 0 0 0 0 0 0 0 0 0 0 0 0 0 0 0 0 0 0 0 0 0 0 0 0 0 0 0 0
0.260832 2.44244e-09 5.00635e-10 1.94181e-09 0.795027 0.537873 0 0 0 0 0 0 0 0 0 0 0 0 0 0 0 0 0 0 0 0 0 0 0 0 0 0 0 0 0 0 0 0 0 0 0 0 0 0 0 0 0 0
0.274221 3.02598e-09 5.3086e-10 2.49512e-09 0.824566 0.582392 0 0 0 0 0 0 0 0 0 0 0 0 0 0 0 0 0 0 0 0 0 0 0 0 0 0 0 0 0 0 0 0 0 0 0 0 0 0 0 0 0 0
0.288297 3.25827e-09 5.66782e-10 2.69149e-09 0.826048 0.571535 0 0 0 0 0 0 0 0 0 0 0 0 0 0 0 0 0 0 0 0 0 0 0 0 0 0 0 0 0 0 0 0 0 0 0 0 0 0 0 0 0 0
0.303095 3.21354e-09 4.49494e-10 2.76405e-09 0.860125 0.625977 0 0 0 0 0 0 0 0 0 0 0 0 0 0 0 0 0 0 0 0 0 0 0 0 0 0 0 0 0 0 0 0 0 0 0 0 0 0 0 0 0 0
0.318653 3.63165e-09 4.32533e-10 3.19911e-09 0.880899 0.676261 0 0 0 0 0 0 0 0 0 0 0 0 0 0 0 0 0 0 0 0 0 0 0 0 0 0 0 0 0 0 0 0 0 0 0 0 0 0 0 0 0 0
0.335009 4.03006e-09 4.73844e-10 3.55622e-09 0.882423 0.68017 0 0 0 0 0 0 0 0 0 0 0 0 0 0 0 0 0 0 0 0 0 0 0 0 0 0 0 0 0 0 0 0 0 0 0 0 0 0 0 0 0 0
0.352205 3.90703e-09 4.58274e-10 3.44875e-09 0.882705 0.652821 0 0 0 0 0 0 0 0 0 0 0 0 0 0 0 0 0 0 0 0 0 0 0 0 0 0 0 0 0 0 0 0 0 0 0 0 0 0 0 0 0 0
0.370284 3.60349e-09 3.74914e-10 3.22857e-09 0.895958 0.643236 0 0 0 0 0 0 0 0 0 0 0 0 0 0 0 0 0 0 0 0 0 0 0 0 0 0 0 0 0 0 0 0 0 0 0 0 0 0 0 0 0 0
0.389291 3.62121e-09 3.41752e-10 3.27946e-09 0.905625 0.662898 0 0 0 0 0 0 0 0 0 0 0 0 0 0 0 0 0 0 0 0 0 0 0 0 0 0 0 0 0 0 0 0 0 0 0 0 0 0 0 0 0 0
0.409273 3.77884e-09 3.51927e-10 3.42691e-09 0.906869 0.684819 0 0 0 0 0 0 0 0 0 0 0 0 0 0 0 0 0 0 0 0 0 0 0 0 0 0 0 0 0 0 0 0 0 0 0 0 0 0 0 0 0 0
0.430281 3.81107e-09 3.70759e-10 3.44031e-09 0.902715 0.692344 0 0 0 0 0 0 0 0 0 0 0 0 0 0 0 0 0 0 0 0 0 0 0 0 0 0 0 0 0 0 0 0 0 0 0 0 0 0 0 0 0 0
0.452368 3.53349e-09 3.5651e-10 3.17698e-09 0.899105 0.676396 0 0 0 0 0 0 0 0 0 0 0 0 0 0 0 0 0 0 0 0 0 0 0 0 0 0 0 0 0 0 0 0 0 0 0 0 0 0 0 0 0 0
0.475588 3.11144e-09 3.06608e-10 2.80483e-09 0.901458 0.639771 0 0 0 0 0 0 0 0 0 0 0 0 0 0 0 0 0 0 0 0 0 0 0 0 0 0 0 0 0 0 0 0 0 0 0 0 0 0 0 0 0 0
0.5 2.81371e-09 2.61684e-10 2.55203e-09 0.906997 0.601612 0 0 0 0 0 0 0 0 0 0 0 0 0 0 0 0 0 0 0 0 0 0 0 0 0 0 0 0 0 0 0 0 0 0 0 0 0 0 0 0 0 0
0.525665 2.6618e-09 2.38119e-10 2.42368e-09 0.910542 0.57616 0 0 0 0 0 0 0 0 0 0 0 0 0 0 0 0 0 0 0 0 0 0 0 0 0 0 0 0 0 0 0 0 0 0 0 0 0 0 0 0 0 0
0.552648 2.5844e-09 2.32531e-10 2.35187e-09 0.910025 0.567006 0 0 0 0 0 0 0 0 0 0 0 0 0 0 0 0 0 0 0 0 0 0 0 0 0 0 0 0 0 0 0 0 0 0 0 0 0 0 0 0 0 0
0.581015 2.50481e-09 2.36634e-10 2.26818e-09 0.905528 0.572107 0 0 0 0 0 0 0 0 0 0 0 0 0 0 0 0 0 0 0 0 0 0 0 0 0 0 0 0 0 0 0 0 0 0 0 0 0 0 0 0 0 0
0.610839 2.3497e-09 2.39707e-10 2.10999e-09 0.897984 0.585234 0 0 0 0 0 0 0 0 0 0 0 0 0 0 0 0 0 0 0 0 0 0 0 0 0 0 0 0 0 0 0 0 0 0 0 0 0 0 0 0 0 0
0.642193 2.09851e-09 2.32663e-10 1.86584e-09 0.889129 0.595417 0 0 0 0 0 0 0 0 0 0 0 0 0 0 0 0 0 0 0 0 0 0 0 0 0 0 0 0 0 0 0 0 0 0 0 0 0 0 0 0 0 0
0.675157 1.79835e-09 2.14164e-10 1.58419e-09 0.880911 0.590789 0 0 0 0 0 0 0 0 0 0 0 0 0 0 0 0 0 0 0 0 0 0 0 0 0 0 0 0 0 0 0 0 0 0 0 0 0 0 0 0 0 0
0.709813 1.5152e-09 1.89975e-10 1.32522e-09 0.87462 0.565062 0 0 0 0 0 0 0 0 0 0 0 0 0 0 0 0 0 0 0 0 0 0 0 0 0 0 0 0 0 0 0 0 0 0 0 0 0 0 0 0 0 0
0.746248 1.28013e-09 1.66362e-10 1.11376e-09 0.870043 0.521919 0 0 0 0 0 0 0 0 0 0 0 0 0 0 0 0 0 0 0 0 0 0 0 0 0 0 0 0 0 0 0 0 0 0 0 0 0 0 0 0 0 0
0.784553 1.09219e-09 1.46194e-10 9.45999e-10 0.866146 0.469919 0 0 0 0 0 0 0 0 0 0 0 0 0 0 0 0 0 0 0 0 0 0 0 0 0 0 0 0 0 0 0 0 0 0 0 0 0 0 0 0 0 0
0.824824 9.40105e-10 1.29854e-10 8.10251e-10 0.861873 0.417035 0 0 0 0 0 0 0 0 0 0 0 0 0 0 0 0 0 0 0 0 0 0 0 0 0 0 0 0 0 0 0 0 0 0 0 0 0 0 0 0 0 0
0.867162 8.12515e-10 1.16703e-10 6.95812e-10 0.856368 0.368047 0 0 0 0 0 0 0 0 0 0 0 0 0 0 0 0 0 0 0 0 0 0 0 0 0 0 0 0 0 0 0 0 0 0 0 0 0 0 0 0 0 0
0.911674 7.01634e-10 1.05854e-10 5.9578e-10 0.849132 0.324613 0 0 0 0 0 0 0 0 0 0 0 0 0 0 0 0 0 0 0 0 0 0 0 0 0 0 0 0 0 0 0 0 0 0 0 0 0 0 0 0 0 0
0.95847 6.03943e-10 9.66409e-11 5.07302e-10 0.839983 0.286907 0 0 0 0 0 0 0 0 0 0 0 0 0 0 0 0 0 0 0 0 0 0 0 0 0 0 0 0 0 0 0 0 0 0 0 0 0 0 0 0 0 0
1.00767 5.17768e-10 8.86556e-11 4.29112e-10 0.828773 0.254451 0 0 0 0 0 0 0 0 0 0 0 0 0 0 0 0 0 0 0 0 0 0 0 0 0 0 0 0 0 0 0 0 0 0 0 0 0 0 0 0 0 0
1.05939 4.42137e-10 8.16089e-11 3.60528e-10 0.815422 0.226476 0 0 0 0 0 0 0 0 0 0 0 0 0 0 0 0 0 0 0 0 0 0 0 0 0 0 0 0 0 0 0 0 0 0 0 0 0 0 0 0 0 0
1.11377 3.76264e-10 7.52825e-11 3.00982e-10 0.799921 0.202216 0 0 0 0 0 0 0 0 0 0 0 0 0 0 0 0 0 0 0 0 0 0 0 0 0 0 0 0 0 0 0 0 0 0 0 0 0 0 0 0 0 0
1.17094 3.19377e-10 6.95421e-11 2.49835e-10 0.782257 0.181055 0 0 0 0 0 0 0 0 0 0 0 0 0 0 0 0 0 0 0 0 0 0 0 0 0 0 0 0 0 0 0 0 0 0 0 0 0 0 0 0 0 0
1.23105 2.70883e-10 6.43368e-11 2.06546e-10 0.762492 0.162538 0 0 0 0 0 0 0 0 0 0 0 0 0 0 0 0 0 0 0 0 0 0 0 0 0 0 0 0 0 0 0 0 0 0 0 0 0 0 0 0 0 0
1.29424 2.29834e-10 5.97458e-11 1.70088e-10 0.740048 0.146192 0 0 0 0 0 0 0 0 0 0 0 0 0 0 0 0 0 0 0 0 0 0 0 0 0 0 0 0 0 0 0 0 0 0 0 0 0 0 0 0 0 0
1.36067 1.95364e-10 5.56094e-11 1.39755e-10 0.715355 0.131711 0 0 0 0 0 0 0 0 0 0 0 0 0 0 0 0 0 0 0 0 0 0 0 0 0 0 0 0 0 0 0 0 0 0 0 0 0 0 0 0 0 0
1.43051 1.66324e-10 5.1833e-11 1.14491e-10 0.688362 0.118797 0 0 0 0 0 0 0 0 0 0 0 0 0 0 0 0 0 0 0 0 0 0 0 0 0 0 0 0 0 0 0 0 0 0 0 0 0 0 0 0 0 0
1.50394 1.42117e-10 4.83997e-11 9.37173e-11 0.659438 0.107279 0 0 0 0 0 0 0 0 0 0 0 0 0 0 0 0 0 0 0 0 0 0 0 0 0 0 0 0 0 0 0 0 0 0 0 0 0 0 0 0 0 0
1.58114 1.21863e-10 4.52583e-11 7.6605e-11 0.628614 0.096946 0 0 0 0 0 0 0 0 0 0 0 0 0 0 0 0 0 0 0 0 0 0 0 0 0 0 0 0 0 0 0 0 0 0 0 0 0 0 0 0 0 0
1.6623 1.04887e-10 4.23767e-11 6.25107e-11 0.59598 0.0876423 0 0 0 0 0 0 0 0 0 0 0 0 0 0 0 0 0 0 0 0 0 0 0 0 0 0 0 0 0 0 0 0 0 0 0 0 0 0 0 0 0 0
1.74763 9.07623e-11 3.97673e-11 5.0995e-11 0.561852 0.0792738 0 0 0 0 0 0 0 0 0 0 0 0 0 0 0 0 0 0 0 0 0 0 0 0 0 0 0 0 0 0 0 0 0 0 0 0 0 0 0 0 0 0
1.83733 7.90233e-11 3.74473e-11 4.15761e-11 0.526124 0.0717264 0 0 0 0 0 0 0 0 0 0 0 0 0 0 0 0 0 0 0 0 0 0 0 0 0 0 0 0 0 0 0 0 0 0 0 0 0 0 0 0 0 0
1.93164 6.92265e-11 3.53507e-11 3.38759e-11 0.489348 0.0649058 0 0 0 0 0 0 0 0 0 0 0 0 0 0 0 0 0 0 0 0 0 0 0 0 0 0 0 0 0 0 0 0 0 0 0 0 0 0 0 0 0 0
2.03079 6.10374e-11 3.34414e-11 2.7596e-11 0.452117 0.0587407 0 0 0 0 0 0 0 0 0 0 0 0 0 0 0 0 0 0 0 0 0 0 0 0 0 0 0 0 0 0 0 0 0 0 0 0 0 0 0 0 0 0
2.13503 5.41767e-11 3.16956e-11 2.24811e-11 0.414958 0.0531703 0 0 0 0 0 0 0 0 0 0 0 0 0 0 0 0 0 0 0 0 0 0 0 0 0 0 0 0 0 0 0 0 0 0 0 0 0 0 0 0 0 0
2.24463 4.84182e-11 3.01148e-11 1.83034e-11 0.378026 0.0481242 0 0 0 0 0 0 0 0 0 0 0 0 0 0 0 0 0 0 0 0 0 0 0 0 0 0 0 0 0 0 0 0 0 0 0 0 0 0 0 0 0 0
2.35984 4.35521e-11 2.8656e-11 1.48961e-11 0.342029 0.0435529 0 0 0 0 0 0 0 0 0 0 0 0 0 0 0 0 0 0 0 0 0 0 0 0 0 0 0 0 0 0 0 0 0 0 0 0 0 0 0 0 0 0
2.48097 3.94293e-11 2.73167e-11 1.21126e-11 0.307197 0.039408 0 0 0 0 0 0 0 0 0 0 0 0 0 0 0 0 0 0 0 0 0 0 0 0 0 0 0 0 0 0 0 0 0 0 0 0 0 0 0 0 0 0
2.60832 3.59612e-11 2.61072e-11 9.85401e-12 0.274018 0.035661 0 0 0 0 0 0 0 0 0 0 0 0 0 0 0 0 0 0 0 0 0 0 0 0 0 0 0 0 0 0 0 0 0 0 0 0 0 0 0 0 0 0
2.74221 3.30047e-11 2.49908e-11 8.01387e-12 0.24281 0.0322655 0 0 0 0 0 0 0 0 0 0 0 0 0 0 0 0 0 0 0 0 0 0 0 0 0 0 0 0 0 0 0 0 0 0 0 0 0 0 0 0 0 0
2.88297 3.04818e-11 2.39748e-11 6.50699e-12 0.213472 0.0291811 0 0 0 0 0 0 0 0 0 0 0 0 0 0 0 0 0 0 0 0 0 0 0 0 0 0 0 0 0 0 0 0 0 0 0 0 0 0 0 0 0 0
3.03095 2.83215e-11 2.30379e-11 5.28362e-12 0.186558 0.0263903 0 0 0 0 0 0 0 0 0 0 0 0 0 0 0 0 0 0 0 0 0 0 0 0 0 0 0 0 0 0 0 0 0 0 0 0 0 0 0 0 0 0
3.18653 2.6513e-11 2.22241e-11 4.28882e-12 0.161763 0.0238632 0 0 0 0 0 0 0 0 0 0 0 0 0 0 0 0 0 0 0 0 0 0 0 0 0 0 0 0 0 0 0 0 0 0 0 0 0 0 0 0 0 0
3.35009 2.49481e-11 2.14708e-11 3.47723e-12 0.139379 0.0215707 0 0 0 0 0 0 0 0 0 0 0 0 0 0 0 0 0 0 0 0 0 0 0 0 0 0 0 0 0 0 0 0 0 0 0 0 0 0 0 0 0 0
3.52205 2.35053e-11 2.06907e-11 2.81459e-12 0.119743 0.0194903 0 0 0 0 0 0 0 0 0 0 0 0 0 0 0 0 0 0 0 0 0 0 0 0 0 0 0 0 0 0 0 0 0 0 0 0 0 0 0 0 0 0
3.70284 2.22194e-11 1.99422e-11 2.27723e-12 0.102488 0.0176087 0 0 0 0 0 0 0 0 0 0 0 0 0 0 0 0 0 0 0 0 0 0 0 0 0 0 0 0 0 0 0 0 0 0 0 0 0 0 0 0 0 0
3.89291 2.10719e-11 1.92329e-11 1.83899e-12 0.087272 0.0159015 0 0 0 0 0 0 0 0 0 0 0 0 0 0 0 0 0 0 0 0 0 0 0 0 0 0 0 0 0 0 0 0 0 0 0 0 0 0 0 0 0 0
4.09273 2.00524e-11 1.85712e-11 1.48121e-12 0.073867 0.0143515 0 0 0 0 0 0 0 0 0 0 0 0 0 0 0 0 0 0 0 0 0 0 0 0 0 0 0 0 0 0 0 0 0 0 0 0 0 0 0 0 0 0
4.30281 1.90874e-11 1.78976e-11 1.18979e-12 0.0623336 0.0129453 0 0 0 0 0 0 0 0 0 0 0 0 0 0 0 0 0 0 0 0 0 0 0 0 0 0 0 0 0 0 0 0 0 0 0 0 0 0 0 0 0 0
4.52368 1.82367e-11 1.72835e-11 9.53252e-13 0.052271 0.0116714 0 0 0 0 0 0 0 0 0 0 0 0 0 0 0 0 0 0 0 0 0 0 0 0 0 0 0 0 0 0 0 0 0 0 0 0 0 0 0 0 0 0
4.75588 1.75118e-11 1.67512e-11 7.60639e-13 0.0434357 0.0105146 0 0 0 0 0 0 0 0 0 0 0 0 0 0 0 0 0 0 0 0 0 0 0 0 0 0 0 0 0 0 0 0 0 0 0 0 0 0 0 0 0 0
5 1.69462e-11 1.6343e-11 6.03216e-13 0.0355959 0.00946181 0 0 0 0 0 0 0 0 0 0 0 0 0 0 0 0 0 0 0 0 0 0 0 0 0 0 0 0 0 0 0 0 0 0 0 0 0 0 0 0 0 0
5.25665 1.65753e-11 1.60999e-11 4.75339e-13 0.0286776 0.00850557 0 0 0 0 0 0 0 0 0 0 0 0 0 0 0 0 0 0 0 0 0 0 0 0 0 0 0 0 0 0 0 0 0 0 0 0 0 0 0 0 0 0
5.52648 1.63703e-11 1.59982e-11 3.72102e-13 0.0227303 0.00763841 0 0 0 0 0 0 0 0 0 0 0 0 0 0 0 0 0 0 0 0 0 0 0 0 0 0 0 0 0 0 0 0 0 0 0 0 0 0 0 0 0 0
5.81015 1.64025e-11 1.61147e-11 2.87817e-13 0.0175471 0.00684727 0 0 0 0 0 0 0 0 0 0 0 0 0 0 0 0 0 0 0 0 0 0 0 0 0 0 0 0 0 0 0 0 0 0 0 0 0 0 0 0 0 0
6.10839 1.65992e-11 1.63794e-11 2.19789e-13 0.0132409 0.00612774 0 0 0 0 0 0 0 0 0 0 0 0 0 0 0 0 0 0 0 0 0 0 0 0 0 0 0 0 0 0 0 0 0 0 0 0 0 0 0 0 0 0
6.42193 1.67462e-11 1.65814e-11 1.64803e-13 0.00984121 0.0054727 0 0 0 0 0 0 0 0 0 0 0 0 0 0 0 0 0 0 0 0 0 0 0 0 0 0 0 0 0 0 0 0 0 0 1.4013e-45 0 1.4013e-45 0 5.60519e-45 0 1.12104e-44 0
6.75157 1.67035e-11 1.65845e-11 1.18992e-13 0.00712374 0.00486753 0 0 0 0 0 0 0 0 0 0 0 0 0 0 0 0 0 0 0 0 0 0 0 0 0 0 1.4013e-45 0 4.2039e-45 0 1.26117e-44 0 3.50325e-44 0 9.52883e-44 0 2.38221e-43 0 5.73131e-43 0 1.2906e-42 0
7.09813 1.68881e-11 1.68085e-11 7.96037e-14 0.0047136 0.00429778 0 0 0 0 0 0 0 0 0 0 0 0 0 0 0 0 0 0 0 0 1.4013e-45 0 8.40779e-45 0 3.64338e-44 0 1.34525e-43 0 4.44212e-43 0 1.35786e-42 0 3.74567e-42 0 9.61571e-42 0 2.30626e-41 0 5.3126e-41 0 1.14958e-40 0
7.46248 2.0697e-11 2.06522e-11 4.47879e-14 0.00216398 0.00374261 0 0 0 0 0 0 0 0 0 0 0 0 0 0 0 0 7.00649e-45 0 4.62428e-44 0 2.56438e-43 0 1.17289e-42 0 4.59065e-42 0 1.59958e-41 0 4.99871e-41 0 1.44592e-40 0 3.79427e-40 0 9.30183e-40 0 2.1377e-39 0 4.72773e-39 0 9.85187e-39 0
7.84553 4.00342e-11 4.00118e-11 2.23433e-14 0.000558107 0.00321401 0 0 0 0 0 0 0 0 0 0 0 0 1.26117e-44 0 1.63952e-43 0 1.41391e-42 0 9.12385e-42 0 4.66296e-41 0 1.97734e-40 0 7.24362e-40 0 2.37497e-39 0 7.02005e-39 0 1.92799e-38 0 4.82653e-38 0 1.13256e-37 0 2.49917e-37 0 5.31706e-37 0 1.06898e-36 0
8.24824 8.30811e-11 8.30538e-11 2.72703e-14 0.000328237 0.00276366 0 0 0 0 0 0 0 0 4.2039e-45 0 1.58347e-43 0 2.97916e-42 0 3.33397e-41 0 2.58348e-40 0 1.52199e-39 0 7.18266e-39 0 2.8384e-38 0 9.75925e-38 0 3.01954e-37 0 8.46529e-37 0 2.21301e-36 0 5.29732e-36 0 1.19233e-35 0 2.53133e-35 0 5.19058e-35 0 1.00857e-34 0
8.67162 1.26732e-10 1.26683e-10 4.90576e-14 0.000387097 0.0024065 0 0 0 0 0 0 5.60519e-45 0 7.06254e-43 0 2.43181e-41 0 3.94831e-40 0 3.92706e-39 0 2.75355e-38 0 1.48763e-37 0 6.50829e-37 0 2.40502e-36 0 7.78528e-36 0 2.27955e-35 0 6.07703e-35 0 1.51585e-34 0 3.47714e-34 0 7.52246e-34 0 1.53939e-33 0 3.04782e-33 0 5.73316e-33 0
9.11674 1.86941e-10 1.86845e-10 9.5767e-14 0.000512285 0.00205089 0 0 0 0 1.4013e-45 0 1.06078e-42 0 9.78317e-41 0 2.83639e-39 0 4.01932e-38 0 3.57355e-37 0 2.27839e-36 0 1.13361e-35 0 4.61465e-35 0 1.59983e-34 0 4.89016e-34 0 1.35868e-33 0 3.45278e-33 0 8.2367e-33 0 1.81432e-32 0 3.77998e-32 0 7.46953e-32 0 1.43038e-31 0 2.60891e-31 0
9.5847 2.11073e-10 2.10936e-10 1.3672e-13 0.000647738 0.00183473 0 0 0 0 1.79366e-43 0 1.11145e-40 0 8.21581e-39 0 2.02087e-37 0 2.516e-36 0 2.0106e-35 0 1.17105e-34 0 5.38749e-34 0 2.04784e-33 0 6.68144e-33 0 1.93387e-32 0 5.11156e-32 0 1.24116e-31 0 2.83777e-31 0 6.01442e-31 0 1.20894e-30 0 2.31082e-30 0 4.28695e-30 0 7.59298e-30 0
10.0767 1.89559e-10 1.89427e-10 1.31772e-13 0.000695152 0.00174072 0 0 0 0 1.61738e-41 0 7.33226e-39 0 4.39295e-37 0 9.24136e-36 0 1.01727e-34 0 7.34486e-34 0 3.92526e-33 0 1.67618e-32 0 5.9692e-32 0 1.8383e-31 0 5.05169e-31 0 1.27337e-30 0 2.96086e-30 0 6.50178e-30 0 1.32838e-29 0 2.58064e-29 0 4.77917e-29 0 8.60263e-29 0 1.48174e-28 0
10.5939 1.59297e-10 1.59178e-10 1.19658e-13 0.000751162 0.00170914 0 0 2.10195e-44 0 1.07796e-39 0 3.62508e-37 0 1.77849e-35 0 3.22431e-34 0 3.15703e-33 0 2.0697e-32 0 1.01919e-31 0 4.05437e-31 0 1.35703e-30 0 3.95583e-30 0 1.03472e-29 0 2.49309e-29 0 5.563e-29 0 1.17556e-28 0 2.31944e-28 0 4.36224e-28 0 7.83913e-28 0 1.37114e-27 0 2.29983e-27 0
11.1377 1.25291e-10 1.25196e-10 9.47333e-14 0.000756109 0.00175146 0 0 1.7222e-42 0 5.36546e-38 0 1.35818e-35 0 5.50986e-34 0 8.67136e-33 0 7.59542e-32 0 4.54265e-31 0 2.06944e-30 0 7.69563e-30 0 2.42825e-29 0 6.71825e-29 0 1.6767e-28 0 3.87009e-28 0 8.30376e-28 0 1.69179e-27 0 3.22905e-27 0 5.88853e-27 0 1.02834e-26 0 1.75023e-26 0 2.86248e-26 0
11.7094 1.00031e-10 9.99563e-11 7.4436e-14 0.000744132 0.00176225 1.4013e-45 0 1.16379e-40 0 2.1871e-36 0 4.22549e-34 0 1.43068e-32 0 1.96812e-31 0 1.5506e-30 0 8.49833e-30 0 3.59521e-29 0 1.25391e-28 0 3.74068e-28 0 9.8477e-28 0 2.35039e-27 0 5.208e-27 0 1.07656e-26 0 2.11844e-26 0 3.91778e-26 0 6.93797e-26 0 1.17907e-25 0 1.95535e-25 0 3.12204e-25 0
12.3105 7.80744e-11 7.80174e-11 5.70429e-14 0.000730622 0.00175399 1.7236e-43 0 6.11328e-39 0 7.10548e-35 0 1.06167e-32 0 3.02671e-31 0 3.66346e-30 0 2.6096e-29 0 1.31624e-28 0 5.18969e-28 0 1.70292e-27 0 4.81618e-27 0 1.20938e-26 0 2.76644e-26 0 5.89633e-26 0 1.17639e-25 0 2.23964e-25 0 4.01942e-25 0 6.9221e-25 0 1.14631e-24 0 1.85464e-24 0 2.89436e-24 0
12.9424 6.08781e-11 6.08356e-11 4.24866e-14 0.000697896 0.00167959 1.21787e-41 0 2.58048e-37 0 1.89904e-33 0 2.22212e-31 0 5.37912e-30 0 5.76447e-29 0 3.73087e-28 0 1.73883e-27 0 6.41175e-27 0 1.98534e-26 0 5.337e-26 0 1.28125e-25 0 2.8148e-25 0 5.78178e-25 0 1.11528e-24 0 2.05759e-24 0 3.58876e-24 0 6.01856e-24 0 9.72435e-24 0 1.53679e-23 0 2.34678e-23 0
