# 5.98828e-08 1 5 : grain size, compostion index, size index
# Heating and cooling timescale: 349073 0.547432
# Ratio of heating to cooling to determine stochastic cutoff: 100
# Equilibrium emission is recorded even for those grains in the stochastic regime.
# Emission spectrum was computed for: 
# Type: IRSF
# Scales: 0.25 0.5 1 1.5 2 2.5 3 3.5 4 4.5 5 5.5 6 6.5 7 7.5 8 8.5 9 9.5 10
# StochasticallyHeated: 1 1 1 1 1 1 1 1 1 1 1 1 1 1 1 1 1 1 1 1 1
# Temperature: -1
# Wavelength  CExt  CAbs  CSca  Albedo G EqEm1 StEm1 EqEm2 StEm2 EqEm3 StEm3 EqEm4 StEm4 EqEm5 StEm5 EqEm6 StEm6 EqEm7 StEm7 EqEm8 StEm8 EqEm9 StEm9 EqEm10 StEm10 EqEm11 StEm11 EqEm12 StEm12 EqEm13 StEm13 EqEm14 StEm14 EqEm15 StEm15 EqEm16 StEm16 EqEm17 StEm17 EqEm18 StEm18 EqEm19 StEm19 EqEm20 StEm20 EqEm21 StEm21
0.05 9.11547e-16 9.11398e-16 1.49472e-19 0.000163976 0.000784179 0 0 0 0 0 0 0 0 0 0 0 0 0 0 0 0 0 0 0 0 0 0 0 0 0 0 0 0 0 0 0 0 0 0 0 0 0 0 0 0 0 0
0.0525665 1.05569e-15 1.05553e-15 1.60267e-19 0.000151813 0.000698515 0 0 0 0 0 0 0 0 0 0 0 0 0 0 0 0 0 0 0 0 0 0 0 0 0 0 0 0 0 0 0 0 0 0 0 0 0 0 0 0 0 0
0.0552647 1.21824e-15 1.21807e-15 1.71698e-19 0.000140939 0.000621997 0 0 0 0 0 0 0 0 0 0 0 0 0 0 0 0 0 0 0 0 0 0 0 0 0 0 0 0 0 0 0 0 0 0 0 0 0 0 0 0 0 0
0.0581015 1.38239e-15 1.3822e-15 1.81126e-19 0.000131024 0.000553563 0 0 0 0 0 0 0 0 0 0 0 0 0 0 0 0 0 0 0 0 0 0 0 0 0 0 0 0 0 0 0 0 0 0 0 0 0 0 0 0 0 0
0.0610839 1.56704e-15 1.56685e-15 1.92579e-19 0.000122893 0.000487525 0 0 0 0 0 0 0 0 0 0 0 0 0 0 0 0 0 0 0 0 0 0 0 0 0 0 0 0 0 0 0 0 0 0 0 0 0 0 0 0 0 0
0.0642193 1.83008e-15 1.82987e-15 2.14556e-19 0.000117238 0.000421658 0 0 0 0 0 0 0 0 0 0 0 0 0 0 0 0 0 0 0 0 0 0 0 0 0 0 0 0 0 0 0 0 0 0 0 0 0 0 0 0 0 0
0.0675157 2.22907e-15 2.22882e-15 2.52128e-19 0.000113109 0.000355283 0 0 0 0 0 0 0 0 0 0 0 0 0 0 0 0 0 0 0 0 0 0 0 0 0 0 0 0 0 0 0 0 0 0 0 0 0 0 0 0 0 0
0.0709813 2.47358e-15 2.47332e-15 2.60265e-19 0.000105218 0.000297832 0 0 0 0 0 0 0 0 0 0 0 0 0 0 0 0 0 0 0 0 0 0 0 0 0 0 0 0 0 0 0 0 0 0 0 0 0 0 0 0 0 0
0.0746248 2.35165e-15 2.35142e-15 2.27259e-19 9.66381e-05 0.000256882 0 0 0 0 0 0 0 0 0 0 0 0 0 0 0 0 0 0 0 0 0 0 0 0 0 0 0 0 0 0 0 0 0 0 0 0 0 0 0 0 0 0
0.0784553 2.00566e-15 2.00548e-15 1.76287e-19 8.78948e-05 0.000229642 0 0 0 0 0 0 0 0 0 0 0 0 0 0 0 0 0 0 0 0 0 0 0 0 0 0 0 0 0 0 0 0 0 0 0 0 0 0 0 0 0 0
0.0824824 1.61191e-15 1.61179e-15 1.24007e-19 7.69315e-05 0.000214667 0 0 0 0 0 0 0 0 0 0 0 0 0 0 0 0 0 0 0 0 0 0 0 0 0 0 0 0 0 0 0 0 0 0 0 0 0 0 0 0 0 0
0.0867162 1.40828e-15 1.40818e-15 9.5562e-20 6.78573e-05 0.000206124 0 0 0 0 0 0 0 0 0 0 0 0 0 0 0 0 0 0 0 0 0 0 0 0 0 0 0 0 0 0 0 0 0 0 0 0 0 0 0 0 0 0
0.0911674 1.24061e-15 1.24053e-15 8.01666e-20 6.46186e-05 0.000200151 0 0 0 0 0 0 0 0 0 0 0 0 0 0 0 0 0 0 0 0 0 0 0 0 0 0 0 0 0 0 0 0 0 0 0 0 0 0 0 0 0 0
0.095847 9.73506e-16 9.73442e-16 6.36122e-20 6.53434e-05 0.000211025 0 0 0 0 0 0 0 0 0 0 0 0 0 0 0 0 0 0 0 0 0 0 0 0 0 0 0 0 0 0 0 0 0 0 0 0 0 0 0 0 0 0
0.100767 6.71025e-16 6.70982e-16 4.3407e-20 6.46876e-05 0.000246132 0 0 0 0 0 0 0 0 0 0 0 0 0 0 0 0 0 0 0 0 0 0 0 0 0 0 0 0 0 0 0 0 0 0 0 0 0 0 0 0 0 0
0.105939 4.39967e-16 4.39937e-16 3.00756e-20 6.83588e-05 0.000265542 0 0 0 0 0 0 0 0 0 0 0 0 0 0 0 0 0 0 0 0 0 0 0 0 0 0 0 0 0 0 0 0 0 0 0 0 0 0 0 0 0 0
0.111377 2.6629e-16 2.66271e-16 1.83975e-20 6.90882e-05 0.000303911 0 0 0 0 0 0 0 0 0 0 0 0 0 0 0 0 0 0 0 0 0 0 0 0 0 0 0 0 0 0 0 0 0 0 0 0 0 0 0 0 0 0
0.117094 2.04018e-16 2.04006e-16 1.14708e-20 5.62246e-05 0.000278323 0 0 0 0 0 0 0 0 0 0 0 0 0 0 0 0 0 0 0 0 0 0 0 0 0 0 0 0 0 0 0 0 0 0 0 0 0 0 0 0 0 0
0.123105 1.59976e-16 1.59969e-16 7.47443e-21 4.67222e-05 0.000238783 0 0 0 0 0 0 0 0 0 0 0 0 0 0 0 0 0 0 0 0 0 0 0 0 0 0 0 0 0 0 0 0 0 0 0 0 0 0 0 0 0 0
0.129424 1.34321e-16 1.34316e-16 4.80823e-21 3.57966e-05 0.000200823 0 0 0 0 0 0 0 0 0 0 0 0 0 0 0 0 0 0 0 0 0 0 0 0 0 0 0 0 0 0 0 0 0 0 0 0 0 0 0 0 0 0
0.136067 1.27295e-16 1.27292e-16 3.11519e-21 2.44722e-05 0.000169913 0 0 0 0 0 0 0 0 0 0 0 0 0 0 0 0 0 0 0 0 0 0 0 0 0 0 0 0 0 0 0 0 0 0 0 0 0 0 0 0 0 0
0.143051 1.32087e-16 1.32085e-16 2.04616e-21 1.5491e-05 0.000144941 0 0 0 0 0 0 0 0 0 0 0 0 0 0 0 0 0 0 0 0 0 0 0 0 0 0 0 0 0 0 0 0 0 0 0 0 0 0 0 0 0 0
0.150394 1.52443e-16 1.52441e-16 1.39398e-21 9.14427e-06 0.000123727 0 0 0 0 0 0 0 0 0 0 0 0 0 0 0 1.4013e-45 0 1.4013e-45 0 1.4013e-45 0 1.4013e-45 0 1.4013e-45 0 2.8026e-45 0 2.8026e-45 0 2.8026e-45 0 2.8026e-45 0 4.2039e-45 0 4.2039e-45 0 4.2039e-45 0 5.60519e-45 0 5.60519e-45
0.158114 1.85061e-16 1.8506e-16 1.05422e-21 5.6966e-06 0.000105952 0 0 0 0 0 1.4013e-45 0 2.8026e-45 0 5.60519e-45 0 8.40779e-45 0 1.12104e-44 0 1.54143e-44 0 2.10195e-44 0 2.66247e-44 0 3.22299e-44 0 3.92364e-44 0 4.76441e-44 0 5.60519e-44 0 6.44597e-44 0 7.42688e-44 0 8.40779e-44 0 9.52883e-44 0 1.06499e-43 0 1.17709e-43 0 1.31722e-43
0.16623 2.3182e-16 2.31819e-16 9.73775e-22 4.20057e-06 9.10834e-05 0 1.4013e-45 0 5.60519e-45 0 2.52234e-44 0 5.60519e-44 0 1.00893e-43 0 1.58347e-43 0 2.28412e-43 0 3.09687e-43 0 4.04975e-43 0 5.19882e-43 0 6.41795e-43 0 7.76319e-43 0 9.23456e-43 0 1.08461e-42 0 1.25696e-42 0 1.44334e-42 0 1.64232e-42 0 1.85392e-42 0 2.07813e-42 0 2.31495e-42 0 2.56438e-42
0.174762 3.03485e-16 3.03483e-16 1.17327e-21 3.866e-06 7.83173e-05 0 3.08286e-44 0 1.16308e-43 0 4.59626e-43 0 1.02295e-42 0 1.8315e-42 0 2.85304e-42 0 4.1002e-42 0 5.57296e-42 0 7.27134e-42 0 9.30742e-42 0 1.14822e-41 0 1.38869e-41 0 1.65185e-41 0 1.93786e-41 0 2.2467e-41 0 2.57839e-41 0 2.93292e-41 0 3.31029e-41 0 3.7105e-41 0 4.13355e-41 0 4.57944e-41
0.183733 4.07455e-16 4.07453e-16 1.67534e-21 4.11173e-06 6.67028e-05 0 6.34788e-43 0 2.17482e-42 0 7.97899e-42 0 1.73495e-41 0 3.061e-41 0 4.73261e-41 0 6.76645e-41 0 9.16295e-41 0 1.1922e-40 0 1.51995e-40 0 1.87199e-40 0 2.26069e-40 0 2.68601e-40 0 3.14797e-40 0 3.64657e-40 0 4.1818e-40 0 4.75367e-40 0 5.36217e-40 0 6.0073e-40 0 6.68907e-40 0 7.40749e-40
0.193164 5.65601e-16 5.65598e-16 2.66117e-21 4.70502e-06 5.55065e-05 0 1.65956e-41 0 4.64951e-41 0 1.46325e-40 0 2.98639e-40 0 5.07615e-40 0 7.67655e-40 0 1.08095e-39 0 1.4475e-39 0 1.86731e-39 0 2.36032e-39 0 2.89132e-39 0 3.47607e-39 0 4.11457e-39 0 4.80681e-39 0 5.5528e-39 0 6.35255e-39 0 7.20605e-39 0 8.11329e-39 0 9.07427e-39 0 1.0089e-38 0 1.11575e-38
0.203079 7.47484e-16 7.4748e-16 4.06135e-21 5.43337e-06 4.4511e-05 0 4.89713e-40 0 1.14505e-39 0 2.95383e-39 0 5.41712e-39 0 8.57986e-39 0 1.23819e-38 0 1.68467e-38 0 2.19743e-38 0 2.77648e-38 0 3.44332e-38 0 4.15999e-38 0 4.94346e-38 0 5.79375e-38 0 6.71084e-38 0 7.69476e-38 0 8.7455e-38 0 9.86305e-38 0 1.10474e-37 0 1.22986e-37 0 1.36166e-37 0 1.50014e-37
0.213503 8.07001e-16 8.06996e-16 4.9835e-21 6.17533e-06 3.42333e-05 0 1.20422e-38 0 2.55927e-38 0 5.72269e-38 0 9.48295e-38 0 1.38754e-37 0 1.88526e-37 0 2.44333e-37 0 3.06173e-37 0 3.74047e-37 0 4.49647e-37 0 5.29986e-37 0 6.164e-37 0 7.0889e-37 0 8.07455e-37 0 9.12096e-37 0 1.02281e-36 0 1.13961e-36 0 1.26247e-36 0 1.39142e-36 0 1.52644e-36 0 1.66753e-36
0.224463 6.19802e-16 6.19798e-16 4.13995e-21 6.67947e-06 2.53457e-05 0 1.92722e-37 0 3.94251e-37 0 8.23736e-37 0 1.28809e-36 0 1.78908e-36 0 2.32433e-36 0 2.89478e-36 0 3.50042e-36 0 4.14126e-36 0 4.82579e-36 0 5.53901e-36 0 6.28762e-36 0 7.07165e-36 0 7.89106e-36 0 8.74588e-36 0 9.63612e-36 0 1.05618e-35 0 1.15228e-35 0 1.25192e-35 0 1.35511e-35 0 1.46183e-35
0.235984 4.22498e-16 4.22496e-16 2.80811e-21 6.64643e-06 1.80895e-05 0 2.40285e-36 0 4.8471e-36 0 9.85944e-36 0 1.50355e-35 0 2.03826e-35 0 2.58908e-35 0 3.15642e-35 0 3.74025e-35 0 4.3406e-35 0 4.9609e-35 0 5.59506e-35 0 6.24581e-35 0 6.91315e-35 0 7.59706e-35 0 8.29758e-35 0 9.01469e-35 0 9.74838e-35 0 1.04987e-34 0 1.12655e-34 0 1.2049e-34 0 1.2849e-34
0.248097 2.99868e-16 2.99866e-16 1.81747e-21 6.06091e-06 1.38567e-05 0 2.71182e-35 0 5.44215e-35 0 1.09578e-34 0 1.65464e-34 0 2.22109e-34 0 2.79472e-34 0 3.37569e-34 0 3.96401e-34 0 4.55967e-34 0 5.16403e-34 0 5.77469e-34 0 6.39272e-34 0 7.01813e-34 0 7.6509e-34 0 8.29106e-34 0 8.9386e-34 0 9.5935e-34 0 1.02558e-33 0 1.09254e-33 0 1.16025e-33 0 1.22869e-33
0.260832 2.36959e-16 2.36958e-16 1.24812e-21 5.26723e-06 1.44184e-05 0 2.96657e-34 0 5.94164e-34 0 1.19167e-33 0 1.79248e-33 0 2.39675e-33 0 3.00426e-33 0 3.61512e-33 0 4.2293e-33 0 4.84682e-33 0 5.46824e-33 0 6.09256e-33 0 6.72021e-33 0 7.35122e-33 0 7.98555e-33 0 8.62324e-33 0 9.26428e-33 0 9.90866e-33 0 1.05564e-32 0 1.12074e-32 0 1.18619e-32 0 1.25196e-32
0.274221 1.95508e-16 1.95507e-16 9.00219e-22 4.60452e-06 1.92793e-05 0 2.9644e-33 0 5.93261e-33 0 1.18798e-32 0 1.78415e-32 0 2.38184e-32 0 2.98094e-32 0 3.5815e-32 0 4.1835e-32 0 4.78698e-32 0 5.39216e-32 0 5.9986e-32 0 6.60649e-32 0 7.21584e-32 0 7.82664e-32 0 8.43892e-32 0 9.05266e-32 0 9.66785e-32 0 1.02845e-31 0 1.09026e-31 0 1.15222e-31 0 1.21432e-31
0.288297 1.68966e-16 1.68966e-16 6.70967e-22 3.97101e-06 2.58662e-05 0 2.73049e-32 0 5.46268e-32 0 1.09316e-31 0 1.64066e-31 0 2.18882e-31 0 2.73757e-31 0 3.28694e-31 0 3.83692e-31 0 4.38753e-31 0 4.93889e-31 0 5.49075e-31 0 6.04323e-31 0 6.59634e-31 0 7.15005e-31 0 7.70438e-31 0 8.25935e-31 0 8.81492e-31 0 9.37111e-31 0 9.92791e-31 0 1.04854e-30 0 1.10434e-30
0.303095 1.48618e-16 1.48617e-16 5.17038e-22 3.47898e-06 2.90022e-05 0 2.26588e-31 0 4.5325e-31 0 9.06754e-31 0 1.3605e-30 0 1.81453e-30 0 2.26878e-30 0 2.72329e-30 0 3.17804e-30 0 3.63304e-30 0 4.08838e-30 0 4.54389e-30 0 4.99965e-30 0 5.45566e-30 0 5.91191e-30 0 6.36842e-30 0 6.82519e-30 0 7.28219e-30 0 7.73944e-30 0 8.19694e-30 0 8.6547e-30 0 9.1127e-30
0.318653 1.31208e-16 1.31208e-16 4.02598e-22 3.0684e-06 3.02608e-05 0 1.68051e-30 0 3.36134e-30 0 6.72366e-30 0 1.00869e-29 0 1.34513e-29 0 1.68165e-29 0 2.01826e-29 0 2.35497e-29 0 2.69177e-29 0 3.02872e-29 0 3.36572e-29 0 3.70282e-29 0 4.04001e-29 0 4.37728e-29 0 4.71466e-29 0 5.05214e-29 0 5.3897e-29 0 5.72736e-29 0 6.06511e-29 0 6.40296e-29 0 6.7409e-29
0.335009 1.17651e-16 1.17651e-16 3.17106e-22 2.69531e-06 2.9758e-05 0 1.13346e-29 0 2.26705e-29 0 4.53448e-29 0 6.80223e-29 0 9.07047e-29 0 1.13389e-28 0 1.36078e-28 0 1.58769e-28 0 1.81464e-28 0 2.04166e-28 0 2.26869e-28 0 2.49575e-28 0 2.72284e-28 0 2.94997e-28 0 3.17713e-28 0 3.40433e-28 0 3.63156e-28 0 3.85882e-28 0 4.08612e-28 0 4.31346e-28 0 4.54083e-28
0.352205 1.07176e-16 1.07176e-16 2.5285e-22 2.35919e-06 2.82363e-05 0 6.99155e-29 0 1.39837e-28 0 2.79688e-28 0 4.19551e-28 0 5.59434e-28 0 6.99322e-28 0 8.39224e-28 0 9.79136e-28 0 1.11906e-27 0 1.25902e-27 0 1.39897e-27 0 1.53894e-27 0 1.67891e-27 0 1.8189e-27 0 1.9589e-27 0 2.09892e-27 0 2.23894e-27 0 2.37898e-27 0 2.51902e-27 0 2.65909e-27 0 2.79916e-27
0.370284 9.84238e-17 9.84236e-17 2.03398e-22 2.06655e-06 2.63978e-05 0 3.93361e-28 0 7.8675e-28 0 1.57355e-27 0 2.36039e-27 0 3.14731e-27 0 3.93424e-27 0 4.72122e-27 0 5.50823e-27 0 6.29529e-27 0 7.0825e-27 0 7.86966e-27 0 8.65685e-27 0 9.44409e-27 0 1.02314e-26 0 1.10187e-26 0 1.1806e-26 0 1.25934e-26 0 1.33809e-26 0 1.41684e-26 0 1.49559e-26 0 1.57435e-26
0.389291 9.01887e-17 9.01885e-17 1.64876e-22 1.82812e-06 2.46111e-05 0 2.00778e-27 0 4.01568e-27 0 8.03155e-27 0 1.20475e-26 0 1.60639e-26 0 2.00802e-26 0 2.40966e-26 0 2.81132e-26 0 3.21299e-26 0 3.61473e-26 0 4.01644e-26 0 4.41816e-26 0 4.81989e-26 0 5.22163e-26 0 5.62339e-26 0 6.02517e-26 0 6.42696e-26 0 6.82875e-26 0 7.23056e-26 0 7.6324e-26 0 8.03423e-26
0.409273 8.23155e-17 8.23154e-17 1.34049e-22 1.62848e-06 2.28766e-05 0 9.32355e-27 0 1.86476e-26 0 3.72958e-26 0 5.59444e-26 0 7.45944e-26 0 9.3244e-26 0 1.11894e-25 0 1.30545e-25 0 1.49196e-25 0 1.6785e-25 0 1.86502e-25 0 2.05154e-25 0 2.23807e-25 0 2.42461e-25 0 2.61114e-25 0 2.79769e-25 0 2.98424e-25 0 3.17079e-25 0 3.35734e-25 0 3.5439e-25 0 3.73046e-25
0.430281 7.47763e-17 7.47762e-17 1.09094e-22 1.45894e-06 2.12288e-05 0 3.9534e-26 0 7.90698e-26 0 1.58142e-25 0 2.37215e-25 0 3.16294e-25 0 3.9537e-25 0 4.74448e-25 0 5.53527e-25 0 6.32608e-25 0 7.117e-25 0 7.90785e-25 0 8.69871e-25 0 9.48958e-25 0 1.02805e-24 0 1.10714e-24 0 1.18623e-24 0 1.26532e-24 0 1.34441e-24 0 1.42351e-24 0 1.5026e-24 0 1.5817e-24
0.452368 6.82898e-17 6.82897e-17 8.87716e-23 1.29992e-06 1.95268e-05 0 1.5526e-25 0 3.10527e-25 0 6.21062e-25 0 9.31599e-25 0 1.24216e-24 0 1.5527e-24 0 1.86326e-24 0 2.17381e-24 0 2.48438e-24 0 2.79498e-24 0 3.10555e-24 0 3.41613e-24 0 3.72671e-24 0 4.03729e-24 0 4.34788e-24 0 4.65848e-24 0 4.96907e-24 0 5.27967e-24 0 5.59027e-24 0 5.90088e-24 0 6.21149e-24
0.475588 6.24171e-17 6.24171e-17 7.22828e-23 1.15806e-06 1.78967e-05 0 5.6445e-25 0 1.12892e-24 0 2.25787e-24 0 3.38682e-24 0 4.51584e-24 0 5.64483e-24 0 6.77383e-24 0 7.90284e-24 0 9.03186e-24 0 1.0161e-23 0 1.12901e-23 0 1.24192e-23 0 1.35483e-23 0 1.46773e-23 0 1.58064e-23 0 1.69356e-23 0 1.80647e-23 0 1.91938e-23 0 2.0323e-23 0 2.14521e-23 0 2.25813e-23
0.5 5.7447e-17 5.74469e-17 5.90117e-23 1.02724e-06 1.6333e-05 0 1.91855e-24 0 3.83716e-24 0 7.67441e-24 0 1.15117e-23 0 1.53491e-23 0 1.91865e-23 0 2.30239e-23 0 2.68613e-23 0 3.06988e-23 0 3.45367e-23 0 3.83743e-23 0 4.22119e-23 0 4.60495e-23 0 4.98872e-23 0 5.37248e-23 0 5.75626e-23 0 6.14003e-23 0 6.52381e-23 0 6.90759e-23 0 7.29138e-23 0 7.67516e-23
0.525665 5.31564e-17 5.31564e-17 4.82288e-23 9.073e-07 1.48544e-05 0 6.10911e-24 0 1.22184e-23 0 2.44371e-23 0 3.66558e-23 0 4.88751e-23 0 6.10941e-23 0 7.33132e-23 0 8.55323e-23 0 9.77515e-23 0 1.09972e-22 0 1.22192e-22 0 1.34411e-22 0 1.46631e-22 0 1.58851e-22 0 1.71071e-22 0 1.83291e-22 0 1.95511e-22 0 2.07731e-22 0 2.19951e-22 0 2.32171e-22 0 2.44392e-22
0.552648 4.91078e-17 4.91077e-17 3.9431e-23 8.02947e-07 1.35075e-05 0 1.816e-23 0 3.63206e-23 0 7.2642e-23 0 1.08963e-22 0 1.45287e-22 0 1.81609e-22 0 2.17931e-22 0 2.54254e-22 0 2.90576e-22 0 3.26903e-22 0 3.63227e-22 0 3.99551e-22 0 4.35875e-22 0 4.72199e-22 0 5.08524e-22 0 5.44849e-22 0 5.81174e-22 0 6.17499e-22 0 6.53823e-22 0 6.90149e-22 0 7.26475e-22
0.581015 4.57445e-17 4.57444e-17 3.23951e-23 7.08175e-07 1.22558e-05 0 5.10621e-23 0 1.02126e-22 0 2.04253e-22 0 3.06381e-22 0 4.08514e-22 0 5.10643e-22 0 6.12774e-22 0 7.14904e-22 0 8.17036e-22 0 9.19179e-22 0 1.02131e-21 0 1.12345e-21 0 1.22558e-21 0 1.32772e-21 0 1.42985e-21 0 1.53199e-21 0 1.63412e-21 0 1.73626e-21 0 1.8384e-21 0 1.94054e-21 0 2.04268e-21
0.610839 4.25355e-17 4.25354e-17 2.66223e-23 6.25885e-07 1.1122e-05 0 1.34869e-22 0 2.69742e-22 0 5.39488e-22 0 8.09234e-22 0 1.07899e-21 0 1.34874e-21 0 1.6185e-21 0 1.88825e-21 0 2.15801e-21 0 2.42779e-21 0 2.69755e-21 0 2.96731e-21 0 3.23708e-21 0 3.50684e-21 0 3.7766e-21 0 4.04637e-21 0 4.31614e-21 0 4.58591e-21 0 4.85567e-21 0 5.12545e-21 0 5.39522e-21
0.642193 3.94703e-17 3.94702e-17 2.18747e-23 5.54207e-07 1.00934e-05 0 3.35527e-22 0 6.71063e-22 0 1.34214e-21 0 2.01321e-21 0 2.68431e-21 0 3.3554e-21 0 4.02649e-21 0 4.69758e-21 0 5.36867e-21 0 6.03983e-21 0 6.71094e-21 0 7.38205e-21 0 8.05317e-21 0 8.72427e-21 0 9.39539e-21 0 1.00665e-20 0 1.07376e-20 0 1.14088e-20 0 1.20799e-20 0 1.2751e-20 0 1.34221e-20
0.675157 3.6632e-17 3.6632e-17 1.79942e-23 4.91215e-07 9.16439e-06 0 7.90219e-22 0 1.58046e-21 0 3.16094e-21 0 4.74142e-21 0 6.32198e-21 0 7.90248e-21 0 9.483e-21 0 1.10635e-20 0 1.2644e-20 0 1.42247e-20 0 1.58053e-20 0 1.73859e-20 0 1.89664e-20 0 2.0547e-20 0 2.21276e-20 0 2.37082e-20 0 2.52887e-20 0 2.68693e-20 0 2.84499e-20 0 3.00305e-20 0 3.16111e-20
0.709813 3.40089e-17 3.40089e-17 1.48272e-23 4.35981e-07 8.33109e-06 0 1.76693e-21 0 3.5339e-21 0 7.06785e-21 0 1.06018e-20 0 1.41359e-20 0 1.76699e-20 0 2.12039e-20 0 2.47379e-20 0 2.8272e-20 0 3.18064e-20 0 3.53405e-20 0 3.88746e-20 0 4.24087e-20 0 4.59428e-20 0 4.9477e-20 0 5.30112e-20 0 5.65453e-20 0 6.00795e-20 0 6.36136e-20 0 6.71479e-20 0 7.06821e-20
0.746248 3.15447e-17 3.15446e-17 1.22198e-23 3.87381e-07 7.5866e-06 0 3.75598e-21 0 7.51204e-21 0 1.50242e-20 0 2.25363e-20 0 3.00488e-20 0 3.7561e-20 0 4.50733e-20 0 5.25856e-20 0 6.00979e-20 0 6.7611e-20 0 7.51234e-20 0 8.26359e-20 0 9.01484e-20 0 9.76609e-20 0 1.05173e-19 0 1.12686e-19 0 1.20199e-19 0 1.27711e-19 0 1.35224e-19 0 1.42736e-19 0 1.50249e-19
0.784553 2.92047e-17 2.92047e-17 1.00678e-23 3.44731e-07 6.91044e-06 0 7.60211e-21 0 1.52044e-20 0 3.0409e-20 0 4.56136e-20 0 6.08188e-20 0 7.60235e-20 0 9.12284e-20 0 1.06433e-19 0 1.21638e-19 0 1.36844e-19 0 1.5205e-19 0 1.67255e-19 0 1.8246e-19 0 1.97665e-19 0 2.12871e-19 0 2.28076e-19 0 2.43282e-19 0 2.58487e-19 0 2.73692e-19 0 2.88898e-19 0 3.04103e-19
0.824824 2.7018e-17 2.7018e-17 8.29288e-24 3.06938e-07 6.30367e-06 0 1.47015e-20 0 2.94032e-20 0 5.88068e-20 0 8.82103e-20 0 1.17615e-19 0 1.47019e-19 0 1.76423e-19 0 2.05827e-19 0 2.35231e-19 0 2.64638e-19 0 2.94043e-19 0 3.23447e-19 0 3.52852e-19 0 3.82257e-19 0 4.11662e-19 0 4.41067e-19 0 4.70472e-19 0 4.99877e-19 0 5.29282e-19 0 5.58688e-19 0 5.88093e-19
0.867162 2.49726e-17 2.49726e-17 6.83338e-24 2.73635e-07 5.75769e-06 0 2.72224e-20 0 5.44454e-20 0 1.08892e-19 0 1.63337e-19 0 2.17786e-19 0 2.72232e-19 0 3.26679e-19 0 3.81126e-19 0 4.35573e-19 0 4.90025e-19 0 5.44473e-19 0 5.98921e-19 0 6.53369e-19 0 7.07817e-19 0 7.62266e-19 0 8.16714e-19 0 8.71163e-19 0 9.25611e-19 0 9.8006e-19 0 1.03451e-18 0 1.08896e-18
0.911674 2.30513e-17 2.30513e-17 5.62778e-24 2.44141e-07 5.26375e-06 0 4.835e-20 0 9.6701e-20 0 1.93403e-19 0 2.90105e-19 0 3.86811e-19 0 4.83514e-19 0 5.80217e-19 0 6.76921e-19 0 7.73624e-19 0 8.70336e-19 0 9.67041e-19 0 1.06375e-18 0 1.16045e-18 0 1.25716e-18 0 1.35386e-18 0 1.45057e-18 0 1.54728e-18 0 1.64398e-18 0 1.74069e-18 0 1.8374e-18 0 1.9341e-18
0.95847 2.12717e-17 2.12717e-17 4.63102e-24 2.17708e-07 4.82109e-06 0 8.26296e-20 0 1.65261e-19 0 3.30523e-19 0 4.95785e-19 0 6.61054e-19 0 8.26318e-19 0 9.91583e-19 0 1.15685e-18 0 1.32211e-18 0 1.48739e-18 0 1.65266e-18 0 1.81793e-18 0 1.9832e-18 0 2.14846e-18 0 2.31373e-18 0 2.479e-18 0 2.64427e-18 0 2.80954e-18 0 2.97481e-18 0 3.14008e-18 0 3.30535e-18
1.00767 1.96083e-17 1.96083e-17 3.81107e-24 1.9436e-07 4.41911e-06 0 1.36044e-19 0 2.72091e-19 0 5.44184e-19 0 8.16277e-19 0 1.08838e-18 0 1.36048e-18 0 1.63257e-18 0 1.90467e-18 0 2.17677e-18 0 2.44888e-18 0 2.72099e-18 0 2.99309e-18 0 3.26519e-18 0 3.53729e-18 0 3.8094e-18 0 4.0815e-18 0 4.3536e-18 0 4.62571e-18 0 4.89781e-18 0 5.16992e-18 0 5.44202e-18
1.05939 1.8094e-17 1.8094e-17 3.13498e-24 1.73261e-07 4.05453e-06 0 2.16672e-19 0 4.33347e-19 0 8.66699e-19 0 1.30005e-18 0 1.73341e-18 0 2.16677e-18 0 2.60013e-18 0 3.03348e-18 0 3.46684e-18 0 3.90023e-18 0 4.3336e-18 0 4.76696e-18 0 5.20032e-18 0 5.63369e-18 0 6.06706e-18 0 6.50042e-18 0 6.93379e-18 0 7.36716e-18 0 7.80052e-18 0 8.2339e-18 0 8.66727e-18
1.11377 1.66711e-17 1.66711e-17 2.57803e-24 1.54641e-07 3.7226e-06 0 3.33581e-19 0 6.67167e-19 0 1.33434e-18 0 2.00151e-18 0 2.66871e-18 0 3.33589e-18 0 4.00307e-18 0 4.67025e-18 0 5.33743e-18 0 6.00466e-18 0 6.67185e-18 0 7.33904e-18 0 8.00624e-18 0 8.67343e-18 0 9.34062e-18 0 1.00078e-17 0 1.0675e-17 0 1.13422e-17 0 1.20094e-17 0 1.26766e-17 0 1.33438e-17
1.17094 1.54083e-17 1.54083e-17 2.11911e-24 1.37531e-07 3.41278e-06 0 4.99676e-19 0 9.99359e-19 0 1.99873e-18 0 2.99809e-18 0 3.99749e-18 0 4.99687e-18 0 5.99625e-18 0 6.99563e-18 0 7.99501e-18 0 8.99446e-18 0 9.99385e-18 0 1.09932e-17 0 1.19926e-17 0 1.2992e-17 0 1.39914e-17 0 1.49908e-17 0 1.59902e-17 0 1.69896e-17 0 1.7989e-17 0 1.89885e-17 0 1.99879e-17
1.23105 1.42442e-17 1.42442e-17 1.74269e-24 1.22344e-07 3.12911e-06 0 7.27376e-19 0 1.45476e-18 0 2.90954e-18 0 4.36431e-18 0 5.81913e-18 0 7.27391e-18 0 8.7287e-18 0 1.01835e-17 0 1.16383e-17 0 1.30932e-17 0 1.4548e-17 0 1.60028e-17 0 1.74576e-17 0 1.89124e-17 0 2.03672e-17 0 2.18221e-17 0 2.32769e-17 0 2.47317e-17 0 2.61865e-17 0 2.76414e-17 0 2.90962e-17
1.29424 1.31649e-17 1.31649e-17 1.43359e-24 1.08895e-07 2.86814e-06 0 1.03025e-18 0 2.06051e-18 0 4.12104e-18 0 6.18156e-18 0 8.24214e-18 0 1.03027e-17 0 1.23632e-17 0 1.44238e-17 0 1.64843e-17 0 1.8545e-17 0 2.06056e-17 0 2.26662e-17 0 2.47267e-17 0 2.67873e-17 0 2.88479e-17 0 3.09085e-17 0 3.29691e-17 0 3.50297e-17 0 3.70902e-17 0 3.91509e-17 0 4.12115e-17
