# 0.00017783 1 148 : grain size, compostion index, size index
# Heating and cooling timescale: 6.66899e-05 1.00041e+11
# Ratio of heating to cooling to determine stochastic cutoff: 100
# Equilibrium emission is recorded even for those grains in the stochastic regime.
# Emission spectrum was computed for: 
# Type: IRSF
# Scales: 0.25 0.5 1 1.5 2 2.5 3 3.5 4 4.5 5 5.5 6 6.5 7 7.5 8 8.5 9 9.5 10
# StochasticallyHeated: 0 0 0 0 0 0 0 0 0 0 0 0 0 0 0 0 0 0 0 0 0
# Temperature: -1
# Wavelength  CExt  CAbs  CSca  Albedo G EqEm1 StEm1 EqEm2 StEm2 EqEm3 StEm3 EqEm4 StEm4 EqEm5 StEm5 EqEm6 StEm6 EqEm7 StEm7 EqEm8 StEm8 EqEm9 StEm9 EqEm10 StEm10 EqEm11 StEm11 EqEm12 StEm12 EqEm13 StEm13 EqEm14 StEm14 EqEm15 StEm15 EqEm16 StEm16 EqEm17 StEm17 EqEm18 StEm18 EqEm19 StEm19 EqEm20 StEm20 EqEm21 StEm21
0.05 5.14449e-08 2.28925e-08 2.85524e-08 0.555009 0.214816 0 0 0 0 0 0 0 0 0 0 0 0 0 0 0 0 0 0 0 0 0 0 0 0 0 0 0 0 0 0 0 0 0 0 0 0 0 0 0 0 0 0
0.0525665 5.68618e-08 2.5303e-08 3.15588e-08 0.555009 0.237435 0 0 0 0 0 0 0 0 0 0 0 0 0 0 0 0 0 0 0 0 0 0 0 0 0 0 0 0 0 0 0 0 0 0 0 0 0 0 0 0 0 0
0.0552647 6.28491e-08 2.79673e-08 3.48818e-08 0.555009 0.262436 0 0 0 0 0 0 0 0 0 0 0 0 0 0 0 0 0 0 0 0 0 0 0 0 0 0 0 0 0 0 0 0 0 0 0 0 0 0 0 0 0 0
0.0581015 6.94668e-08 3.09121e-08 3.85547e-08 0.555009 0.290069 0 0 0 0 0 0 0 0 0 0 0 0 0 0 0 0 0 0 0 0 0 0 0 0 0 0 0 0 0 0 0 0 0 0 0 0 0 0 0 0 0 0
0.0610839 7.67813e-08 3.4167e-08 4.26144e-08 0.555009 0.320612 0 0 0 0 0 0 0 0 0 0 0 0 0 0 0 0 0 0 0 0 0 0 0 0 0 0 0 0 0 0 0 0 0 0 0 0 0 0 0 0 0 0
0.0642193 8.4866e-08 3.77646e-08 4.71014e-08 0.555009 0.354371 0 0 0 0 0 0 0 0 0 0 0 0 0 0 0 0 0 0 0 0 0 0 0 0 0 0 0 0 0 0 0 0 0 0 0 0 0 0 0 0 0 0
0.0675157 9.3802e-08 4.1741e-08 5.2061e-08 0.555009 0.391684 0 0 0 0 0 0 0 0 0 0 0 0 0 0 0 0 0 0 0 0 0 0 0 0 0 0 0 0 0 0 0 0 0 0 0 0 0 0 0 0 0 0
0.0709813 1.03679e-07 4.61361e-08 5.75428e-08 0.555009 0.432927 0 0 0 0 0 0 0 0 0 0 0 0 0 0 0 0 0 0 0 0 0 0 0 0 0 0 0 0 0 0 0 0 0 0 0 0 0 0 0 0 0 0
0.0746248 1.14596e-07 5.0994e-08 6.36017e-08 0.555009 0.478512 0 0 0 0 0 0 0 0 0 0 0 0 0 0 0 0 0 0 0 0 0 0 0 0 0 0 0 0 0 0 0 0 0 0 0 0 0 0 0 0 0 0
0.0784553 1.26662e-07 5.63634e-08 7.02987e-08 0.555009 0.528897 0 0 0 0 0 0 0 0 0 0 0 0 0 0 0 0 0 0 0 0 0 0 0 0 0 0 0 0 0 0 0 0 0 0 0 0 0 0 0 0 0 0
0.0824824 1.39999e-07 6.22982e-08 7.77008e-08 0.555009 0.584587 0 0 0 0 0 0 0 0 0 0 0 0 0 0 0 0 0 0 0 0 0 0 0 0 0 0 0 0 0 0 0 0 0 0 0 0 0 0 0 0 0 0
0.0867162 1.5474e-07 6.8858e-08 8.58823e-08 0.555009 0.646141 0 0 0 0 0 0 0 0 0 0 0 0 0 0 0 0 0 0 0 0 0 0 0 0 0 0 0 0 0 0 0 0 0 0 0 0 0 0 0 0 0 0
0.0911674 1.71034e-07 7.61084e-08 9.49253e-08 0.555009 0.714177 0 0 0 0 0 0 0 0 0 0 0 0 0 0 0 0 0 0 0 0 0 0 0 0 0 0 0 0 0 0 0 0 0 0 0 0 0 0 0 0 0 0
0.095847 1.89043e-07 8.41222e-08 1.04921e-07 0.555009 0.789376 0 0 0 0 0 0 0 0 0 0 0 0 0 0 0 0 0 0 0 0 0 0 0 0 0 0 0 0 0 0 0 0 0 0 0 0 0 0 0 0 0 0
0.100767 2.05822e-07 9.16008e-08 1.14222e-07 0.554952 0.859294 0 0 0 0 0 0 0 0 0 0 0 0 0 0 0 0 0 0 0 0 0 0 0 0 0 0 0 0 0 0 0 0 0 0 0 0 0 0 0 0 0 0
0.105939 2.06109e-07 9.18231e-08 1.14286e-07 0.554492 0.863018 0 0 0 0 0 0 0 0 0 0 0 0 0 0 0 0 0 0 0 0 0 0 0 0 0 0 0 0 0 0 0 0 0 0 0 0 0 0 0 0 0 0
0.111377 2.06387e-07 9.20966e-08 1.1429e-07 0.553767 0.867824 0 0 0 0 0 0 0 0 0 0 0 0 0 0 0 0 0 0 0 0 0 0 0 0 0 0 0 0 0 0 0 0 0 0 0 0 0 0 0 0 0 0
0.117094 2.06667e-07 9.23524e-08 1.14315e-07 0.553135 0.87086 0 0 0 0 0 0 0 0 0 0 0 0 0 0 0 0 0 0 0 0 0 0 0 0 0 0 0 0 0 0 0 0 0 0 0 0 0 0 0 0 0 0
0.123105 2.06955e-07 9.27191e-08 1.14236e-07 0.551985 0.872726 0 0 0 0 0 0 0 0 0 0 0 0 0 0 0 0 0 0 0 0 0 0 0 0 0 0 0 0 0 0 0 0 0 0 0 0 0 0 0 0 0 0
0.129424 2.07224e-07 9.31363e-08 1.14087e-07 0.550551 0.873579 0 0 0 0 0 0 0 0 0 0 0 0 0 0 0 0 0 0 0 0 0 0 0 0 0 0 0 0 0 0 0 0 0 0 0 0 0 0 0 0 0 0
0.136067 2.0752e-07 9.34199e-08 1.141e-07 0.549828 0.873236 0 0 0 0 0 0 0 0 0 0 0 0 0 0 0 0 0 0 0 0 0 0 0 0 0 0 0 0 0 0 0 0 0 0 0 0 0 0 0 0 0 0
0.143051 2.07813e-07 9.38981e-08 1.13915e-07 0.548161 0.8709 0 0 0 0 0 0 0 0 0 0 0 0 0 0 0 0 0 0 0 0 0 0 0 0 0 0 0 0 0 0 0 0 0 0 0 0 0 0 0 0 0 0
0.150394 2.08135e-07 9.46565e-08 1.13478e-07 0.545215 0.87194 0 0 0 0 0 0 0 0 0 0 0 0 0 0 0 0 0 0 0 0 0 0 0 0 0 0 0 0 0 0 0 0 0 0 0 0 0 0 0 0 0 0
0.158114 2.08511e-07 9.56373e-08 1.12874e-07 0.541332 0.87803 0 0 0 0 0 0 0 0 0 0 0 0 0 0 0 0 0 0 0 0 0 0 0 0 0 0 0 0 0 0 0 0 0 0 0 0 0 0 0 0 0 0
0.16623 2.0895e-07 9.66709e-08 1.12279e-07 0.53735 0.885542 0 0 0 0 0 0 0 0 0 0 0 0 0 0 0 0 0 0 0 0 0 0 0 0 0 0 0 0 0 0 0 0 0 0 0 0 0 0 0 0 0 0
0.174762 2.09403e-07 9.76144e-08 1.11789e-07 0.533845 0.89236 0 0 0 0 0 0 0 0 0 0 0 0 0 0 0 0 0 0 0 0 0 0 0 0 0 0 0 0 0 0 0 0 0 0 0 0 0 0 0 0 0 0
0.183733 2.09855e-07 9.7925e-08 1.1193e-07 0.533369 0.898435 0 0 0 0 0 0 0 0 0 0 0 0 0 0 0 0 0 0 0 0 0 0 0 0 0 0 0 0 0 0 0 0 0 0 0 0 0 0 0 0 0 0
0.193164 2.11218e-07 9.56792e-08 1.15539e-07 0.547013 0.903569 0 0 0 0 0 0 0 0 0 0 0 0 0 0 0 0 0 0 0 0 0 0 0 0 0 0 0 0 0 0 0 0 0 0 0 0 0 0 0 0 0 0
0.203079 2.11464e-07 9.60727e-08 1.15392e-07 0.545679 0.907839 0 0 0 0 0 0 0 0 0 0 0 0 0 0 0 0 0 0 0 0 0 0 0 0 0 0 0 0 0 0 0 0 0 0 0 0 0 0 0 0 0 0
0.213503 2.11217e-07 9.73017e-08 1.13916e-07 0.539329 0.91106 0 0 0 0 0 0 0 0 0 0 0 0 0 0 0 0 0 0 0 0 0 0 0 0 0 0 0 0 0 0 0 0 0 0 0 0 0 0 0 0 0 0
0.224463 2.11045e-07 9.81972e-08 1.12848e-07 0.53471 0.91297 0 0 0 0 0 0 0 0 0 0 0 0 0 0 0 0 0 0 0 0 0 0 0 0 0 0 0 0 0 0 0 0 0 0 0 0 0 0 0 0 0 0
0.235984 2.10935e-07 9.90975e-08 1.11838e-07 0.530199 0.914616 0 0 0 0 0 0 0 0 0 0 0 0 0 0 0 0 0 0 0 0 0 0 0 0 0 0 0 0 0 0 0 0 0 0 0 0 0 0 0 0 0 0
0.248097 2.10946e-07 9.98912e-08 1.11054e-07 0.52646 0.916464 0 0 0 0 0 0 0 0 0 0 0 0 0 0 0 0 0 0 0 0 0 0 0 0 0 0 0 0 0 0 0 0 0 0 0 0 0 0 0 0 0 0
0.260832 2.11117e-07 1.00571e-07 1.10546e-07 0.523625 0.917522 0 0 0 0 0 0 0 0 0 0 0 0 0 0 0 0 0 0 0 0 0 0 0 0 0 0 0 0 0 0 0 0 0 0 0 0 0 0 0 0 0 0
0.274221 2.11404e-07 1.01148e-07 1.10255e-07 0.52154 0.916868 0 0 0 0 0 0 0 0 0 0 0 0 0 0 0 0 0 0 0 0 0 0 0 0 0 0 0 0 0 0 0 0 0 0 0 0 0 0 0 0 0 0
0.288297 2.11779e-07 1.01636e-07 1.10143e-07 0.520085 0.918184 0 0 0 0 0 0 0 0 0 0 0 0 0 0 0 0 0 0 0 0 0 0 0 0 0 0 0 0 0 0 0 0 0 0 0 0 0 0 0 0 0 0
0.303095 2.12231e-07 1.02082e-07 1.10149e-07 0.519004 0.916856 0 0 0 0 0 0 0 0 0 0 0 0 0 0 0 0 0 0 0 0 0 0 0 0 0 0 0 0 0 0 0 0 0 0 0 0 0 0 0 0 0 0
0.318653 2.12741e-07 1.0248e-07 1.10262e-07 0.51829 0.917485 0 0 0 0 0 0 0 0 0 0 0 0 0 0 0 0 0 0 0 0 0 0 0 0 0 0 0 0 0 0 0 0 0 0 0 0 0 0 0 0 0 0
0.335009 2.13298e-07 1.02859e-07 1.10439e-07 0.517768 0.915131 0 0 0 0 0 0 0 0 0 0 0 0 0 0 0 0 0 0 0 0 0 0 0 0 0 0 0 0 0 0 0 0 0 0 0 0 0 0 0 0 0 0
0.352205 2.13904e-07 1.03233e-07 1.10671e-07 0.517387 0.91615 0 0 0 0 0 0 0 0 0 0 0 0 0 0 0 0 0 0 0 0 0 0 0 0 0 0 0 0 0 0 0 0 0 0 0 0 0 0 0 0 0 0
0.370284 2.14548e-07 1.036e-07 1.10949e-07 0.517127 0.912969 0 0 0 0 0 0 0 0 0 0 0 0 0 0 0 0 0 0 0 0 0 0 0 0 0 0 0 0 0 0 0 0 0 0 0 0 0 0 0 0 0 0
0.389291 2.15229e-07 1.03966e-07 1.11263e-07 0.516952 0.911798 0 0 0 0 0 0 0 0 0 0 0 0 0 0 0 0 0 0 0 0 0 0 0 0 0 0 0 0 0 0 0 0 0 0 0 0 0 0 0 0 0 0
0.409273 2.15959e-07 1.04343e-07 1.11617e-07 0.516841 0.91099 0 0 0 0 0 0 0 0 0 0 0 0 0 0 0 0 0 0 0 0 0 0 0 0 0 0 0 0 0 0 0 0 0 0 0 0 0 0 0 0 0 0
0.430281 2.16712e-07 1.04729e-07 1.11983e-07 0.516737 0.907384 0 0 0 0 0 0 0 0 0 0 0 0 0 0 0 0 0 0 0 0 0 0 0 0 0 0 0 0 0 0 0 0 0 0 0 0 0 0 0 0 0 0
0.452368 2.17512e-07 1.05131e-07 1.12381e-07 0.516667 0.9048 0 0 0 0 0 0 0 0 0 0 0 0 0 0 0 0 0 0 0 0 0 0 0 0 0 0 0 0 0 0 0 0 0 0 0 0 0 0 0 0 0 0
0.475588 2.1835e-07 1.05542e-07 1.12807e-07 0.516636 0.903724 0 0 0 0 0 0 0 0 0 0 0 0 0 0 0 0 0 0 0 0 0 0 0 0 0 0 0 0 0 0 0 0 0 0 0 0 0 0 0 0 0 0
0.5 2.19227e-07 1.05974e-07 1.13254e-07 0.516603 0.900648 0 0 0 0 0 0 0 0 0 0 0 0 0 0 0 0 0 0 0 0 0 0 0 0 0 0 0 0 0 0 0 0 0 0 0 0 0 0 0 0 0 0
0.525665 2.20155e-07 1.0642e-07 1.13735e-07 0.516612 0.896022 0 0 0 0 0 0 0 0 0 0 0 0 0 0 0 0 0 0 0 0 0 0 0 0 0 0 0 0 0 0 0 0 0 0 0 0 0 0 0 0 0 0
0.552648 2.21114e-07 1.0688e-07 1.14234e-07 0.516629 0.890402 0 0 0 0 0 0 0 0 0 0 0 0 0 0 0 0 0 0 0 0 0 0 0 0 0 0 0 0 0 0 0 0 0 0 0 0 0 0 0 0 0 0
0.581015 2.22139e-07 1.0738e-07 1.1476e-07 0.516612 0.88731 0 0 0 0 0 0 0 0 0 0 0 0 0 0 0 0 0 0 0 0 0 0 0 0 0 0 0 0 0 0 0 0 0 0 0 0 0 0 0 0 0 0
0.610839 2.23201e-07 1.07889e-07 1.15312e-07 0.516629 0.886 0 0 0 0 0 0 0 0 0 0 0 0 0 0 0 0 0 0 0 0 0 0 0 0 0 0 0 0 0 0 0 0 0 0 0 0 0 0 0 0 0 0
0.642193 2.24321e-07 1.08424e-07 1.15897e-07 0.516657 0.884923 0 0 0 0 0 0 0 0 0 0 0 0 0 0 0 0 0 0 0 0 0 0 0 0 0 0 0 0 0 0 0 0 0 0 0 0 0 0 0 0 0 0
0.675157 2.25489e-07 1.08967e-07 1.16523e-07 0.516755 0.879526 0 0 0 0 0 0 0 0 0 0 0 0 0 0 0 0 0 0 0 0 0 0 0 0 0 0 0 0 0 0 0 0 0 0 0 0 0 0 0 0 0 0
0.709813 2.27017e-07 1.09494e-07 1.17523e-07 0.517683 0.869238 0 0 0 0 0 0 0 0 0 0 0 0 0 0 0 0 0 0 0 0 0 0 0 0 0 0 0 0 0 0 0 0 0 0 0 0 0 0 0 0 0 0
0.746248 2.30252e-07 1.09781e-07 1.20472e-07 0.523215 0.860228 0 0 0 0 0 0 0 0 0 0 0 0 0 0 0 0 0 0 0 0 0 0 0 0 0 0 0 0 0 0 0 0 0 0 0 0 0 0 0 0 0 0
0.784553 2.36022e-07 1.10157e-07 1.25865e-07 0.533276 0.855927 0 0 0 0 0 0 0 0 0 0 0 0 0 0 0 0 0 0 0 0 0 0 0 0 0 0 0 0 0 0 0 0 0 0 0 0 0 0 0 0 0 0
0.824824 2.41789e-07 1.10478e-07 1.31311e-07 0.54308 0.854641 0 0 0 0 0 0 0 0 0 0 0 0 0 0 0 0 0 0 0 0 0 0 0 0 0 0 0 0 0 0 0 0 0 0 0 0 0 0 0 0 0 0
0.867162 2.44724e-07 1.10747e-07 1.33977e-07 0.547463 0.851894 0 0 0 0 0 0 0 0 0 0 0 0 0 0 0 0 0 0 0 0 0 0 0 0 0 0 0 0 0 0 0 0 0 0 0 0 0 0 0 0 0 0
0.911674 2.43988e-07 1.11098e-07 1.32891e-07 0.544659 0.845462 0 0 0 0 0 0 0 0 0 0 0 0 0 0 0 0 0 0 0 0 0 0 0 0 0 0 0 0 0 0 0 0 0 0 0 0 0 0 0 0 0 0
0.95847 2.40955e-07 1.11352e-07 1.29603e-07 0.537872 0.830264 0 0 0 0 0 0 0 0 0 0 0 0 0 0 0 0 0 0 0 0 0 0 0 0 0 0 0 0 0 0 0 0 0 0 0 0 0 0 0 0 0 0
1.00767 2.38021e-07 1.11489e-07 1.26532e-07 0.531599 0.810831 0 0 0 0 0 0 0 0 0 0 0 0 0 0 0 0 0 0 0 0 0 0 0 0 0 0 0 0 0 0 0 0 0 0 0 0 0 0 0 0 0 0
1.05939 2.37969e-07 1.12221e-07 1.25748e-07 0.528423 0.800151 0 0 0 0 0 0 0 0 0 0 0 0 0 0 0 0 0 0 0 0 0 0 0 0 0 0 0 0 0 0 0 0 0 0 0 0 0 0 0 0 0 0
1.11377 2.41036e-07 1.13086e-07 1.2795e-07 0.530834 0.793833 0 0 0 0 0 0 0 0 0 0 0 0 0 0 0 0 0 0 0 0 0 0 0 0 0 0 0 0 0 0 0 0 0 0 0 0 0 0 0 0 0 0
1.17094 2.45212e-07 1.13957e-07 1.31256e-07 0.535274 0.805029 0 0 0 0 0 0 0 0 0 0 0 0 0 0 0 0 0 0 0 0 0 0 0 0 0 0 0 0 0 0 0 0 0 0 0 0 0 0 0 0 0 0
1.23105 2.49284e-07 1.14358e-07 1.34926e-07 0.541254 0.815009 0 0 0 0 0 0 0 0 0 0 0 0 0 0 0 0 0 0 0 0 0 0 0 0 0 0 0 0 0 0 0 0 0 0 0 0 0 0 0 0 0 0
1.29424 2.52106e-07 1.1542e-07 1.36686e-07 0.542177 0.83239 0 0 0 0 0 0 0 0 0 0 0 0 0 0 0 0 0 0 0 0 0 0 0 0 0 0 0 0 0 0 0 0 0 0 0 0 0 0 0 0 0 0
1.36067 2.52669e-07 1.15798e-07 1.36871e-07 0.541702 0.831655 0 0 0 0 0 0 0 0 0 0 0 0 0 0 0 0 0 0 0 0 0 0 0 0 0 0 0 0 0 0 0 0 0 0 0 0 0 0 0 0 0 0
1.43051 2.50992e-07 1.15977e-07 1.35015e-07 0.537926 0.833006 0 0 0 0 0 0 0 0 0 0 0 0 0 0 0 0 0 0 0 0 0 0 0 0 0 0 0 0 0 0 0 0 0 0 0 0 0 0 0 0 0 0
1.50394 2.49043e-07 1.16182e-07 1.32861e-07 0.533485 0.811145 0 0 0 0 0 0 0 0 0 0 0 0 0 0 0 0 0 0 0 0 0 0 0 0 0 0 0 0 0 0 0 0 0 0 0 0 0 0 0 0 0 0
1.58114 2.46385e-07 1.16359e-07 1.30026e-07 0.527734 0.780841 0 0 0 0 0 0 0 0 0 0 0 0 0 0 0 0 0 0 0 0 0 0 0 0 0 0 0 0 0 0 0 0 0 0 0 0 0 0 0 0 0 0
1.6623 2.46994e-07 1.16258e-07 1.30736e-07 0.529309 0.739855 0 0 0 0 0 0 0 0 0 0 0 0 0 0 0 0 0 0 0 0 0 0 0 0 0 0 0 0 0 0 0 0 0 0 0 0 0 0 0 0 0 0
1.74763 2.48309e-07 1.16122e-07 1.32187e-07 0.532348 0.677441 0 0 0 0 0 0 0 0 0 0 0 0 0 0 0 0 0 0 0 0 0 0 0 0 0 0 0 0 0 0 0 0 0 0 0 0 0 0 0 0 0 0
1.83733 2.54219e-07 1.16124e-07 1.38095e-07 0.543213 0.60883 0 0 0 0 0 0 0 0 0 0 0 0 0 0 0 0 0 0 0 0 0 0 0 0 0 0 0 0 0 0 0 0 0 0 0 0 0 0 0 0 0 0
1.93164 2.62458e-07 1.17051e-07 1.45407e-07 0.554021 0.57408 0 0 0 0 0 0 0 0 0 0 0 0 0 0 0 0 0 0 0 0 0 0 0 0 0 0 0 0 0 0 0 0 0 0 0 0 0 0 0 0 0 0
2.03079 2.7191e-07 1.1657e-07 1.5534e-07 0.571293 0.513035 0 0 0 0 0 0 0 0 0 0 0 0 0 0 0 0 0 0 0 0 0 0 0 0 0 0 0 0 0 0 0 0 0 0 0 0 0 0 0 0 0 0
2.13503 2.84802e-07 1.17248e-07 1.67554e-07 0.588319 0.529442 0 0 0 0 0 0 0 0 0 0 0 0 0 0 0 0 0 0 0 0 0 0 0 0 0 0 0 0 0 0 0 0 0 0 0 0 0 0 0 0 0 0
2.24463 2.95674e-07 1.18e-07 1.77674e-07 0.600912 0.537824 0 0 0 0 0 0 0 0 0 0 0 0 0 0 0 0 0 0 0 0 0 0 0 0 0 0 0 0 0 0 0 0 0 0 0 0 0 0 0 0 0 0
2.35984 3.05973e-07 1.18345e-07 1.87628e-07 0.613217 0.552488 0 0 0 0 0 0 0 0 0 0 0 0 0 0 0 0 0 0 0 0 0 0 0 0 0 0 0 0 0 0 0 0 0 0 0 0 0 0 0 0 0 0
2.48097 3.16332e-07 1.19067e-07 1.97264e-07 0.6236 0.602584 0 0 0 0 0 0 0 0 0 0 0 0 0 0 0 0 0 0 0 0 0 0 0 0 0 0 0 0 0 0 0 0 0 0 0 0 0 0 0 0 0 0
2.60832 3.23819e-07 1.19664e-07 2.04155e-07 0.63046 0.624802 0 0 0 0 0 0 0 0 0 0 0 0 0 0 0 0 0 0 0 0 0 0 0 0 0 0 0 0 0 0 0 0 0 0 0 0 0 0 0 0 0 0
2.74221 3.28238e-07 1.20144e-07 2.08094e-07 0.633973 0.645378 0 0 0 0 0 0 0 0 0 0 0 0 0 0 0 0 0 0 0 0 0 0 0 0 0 0 0 0 0 0 0 0 0 0 0 0 0 0 0 0 0 0
2.88297 3.3004e-07 1.20517e-07 2.09523e-07 0.634841 0.666249 0 0 0 0 0 0 0 0 0 0 0 0 0 0 0 0 0 0 0 0 0 0 0 0 0 0 0 0 0 0 0 0 0 0 0 0 0 0 0 0 0 0
3.03095 3.29693e-07 1.21161e-07 2.08532e-07 0.632503 0.686397 0 0 0 0 0 0 0 0 0 0 0 0 0 0 0 0 0 0 0 0 0 0 0 0 0 0 0 0 0 0 0 0 0 0 0 0 0 0 0 0 0 0
3.18653 3.28555e-07 1.22083e-07 2.06472e-07 0.628424 0.697444 0 0 0 0 0 0 0 0 0 0 0 0 0 0 0 0 0 0 0 0 0 0 0 0 0 0 0 0 0 0 0 0 0 0 0 0 0 0 0 0 0 0
3.35009 3.23255e-07 1.23549e-07 1.99706e-07 0.617797 0.707165 0 0 0 0 0 0 0 0 0 0 0 0 0 0 0 0 0 0 0 0 0 0 0 0 0 0 0 0 0 0 0 0 0 0 0 0 0 0 0 0 0 0
3.52205 3.22768e-07 1.25406e-07 1.97362e-07 0.611466 0.702872 0 0 0 0 0 0 0 0 0 0 0 0 0 0 0 0 0 0 0 0 0 0 0 0 0 0 0 0 0 0 0 0 0 0 0 0 0 0 0 0 0 0
3.70284 3.19217e-07 1.21482e-07 1.97734e-07 0.619436 0.699222 0 0 0 0 0 0 0 0 0 0 0 0 0 0 0 0 0 0 0 0 0 0 0 0 0 0 0 0 0 0 0 0 0 0 0 0 0 0 0 0 0 0
3.89291 3.11696e-07 1.19287e-07 1.9241e-07 0.617298 0.69934 0 0 0 0 0 0 0 0 0 0 0 0 0 0 0 0 0 0 0 0 0 0 0 0 0 0 0 0 0 0 0 0 0 0 0 0 0 0 0 0 0 0
4.09273 3.03829e-07 1.18187e-07 1.85642e-07 0.611008 0.706302 0 0 0 0 0 0 0 0 0 0 0 0 0 0 0 0 0 0 0 0 0 0 0 0 0 0 0 0 0 0 0 0 0 0 0 0 0 0 0 0 0 0
4.30281 2.94946e-07 1.1808e-07 1.76866e-07 0.599656 0.710249 0 0 0 0 0 0 0 0 0 0 0 0 0 0 0 0 0 0 0 0 0 0 0 0 0 0 0 0 0 0 0 0 0 0 0 0 0 0 0 0 0 0
4.52368 2.84075e-07 1.18032e-07 1.66043e-07 0.584505 0.700175 0 0 0 0 0 0 0 0 0 0 0 0 0 0 0 0 0 0 0 0 0 0 0 0 0 0 0 0 0 0 0 0 0 0 0 0 0 0 0 0 0 0
4.75588 2.71489e-07 1.17223e-07 1.54266e-07 0.568221 0.677745 0 0 0 0 0 0 0 0 0 0 0 0 0 0 0 0 0 0 0 0 0 0 0 0 0 0 0 0 0 0 0 0 0 0 0 0 0 0 0 0 0 0
5 2.58543e-07 1.15709e-07 1.42834e-07 0.552458 0.651162 0 0 0 0 0 0 0 0 0 0 0 0 0 0 0 0 0 0 0 0 0 0 0 0 0 0 0 0 0 0 0 0 0 0 0 0 0 0 0 0 0 0
5.25665 2.46246e-07 1.13955e-07 1.3229e-07 0.537229 0.63104 0 0 0 0 0 0 0 0 0 0 0 0 0 0 0 0 0 0 0 0 0 0 0 0 0 0 0 0 0 0 0 0 0 0 0 0 0 0 0 0 0 0
5.52648 2.3489e-07 1.12462e-07 1.22429e-07 0.521217 0.624063 0 0 0 0 0 0 0 0 0 0 0 0 0 0 0 0 0 0 0 0 0 0 0 0 0 0 0 0 0 0 0 0 0 0 0 0 0 0 0 0 0 0
5.81015 2.2425e-07 1.11312e-07 1.12937e-07 0.503623 0.62714 0 0 0 0 0 0 0 0 0 0 0 0 0 0 0 0 0 0 0 0 0 0 0 0 0 0 0 0 0 0 0 0 0 0 0 0 0 0 0 0 0 0
6.10839 2.1376e-07 1.10316e-07 1.03444e-07 0.483924 0.629272 0 0 0 0 0 0 0 0 0 0 0 0 0 0 0 0 0 0 0 0 0 0 0 0 0 0 0 0 0 0 0 0 0 0 0 0 0 0 0 0 0 0
6.42193 2.02925e-07 1.09068e-07 9.38574e-08 0.462522 0.618052 0 0 0 0 0 0 0 0 0 0 0 0 0 0 0 0 0 0 0 0 0 0 0 0 0 0 0 0 0 0 0 0 0 0 0 0 0 0 0 0 0 0
6.75157 1.91119e-07 1.07298e-07 8.38212e-08 0.438582 0.585129 0 0 0 0 0 0 0 0 0 0 0 0 0 0 0 0 0 0 0 0 0 0 0 0 0 0 0 0 0 0 0 0 0 0 0 0 0 0 0 0 0 0
7.09813 1.79537e-07 1.04723e-07 7.4814e-08 0.416705 0.530278 0 0 0 0 0 0 0 0 0 0 0 0 0 0 0 0 0 0 0 0 0 0 0 0 0 0 0 0 0 0 0 0 1.4013e-45 0 4.2039e-45 0 9.80909e-45 0 2.8026e-44 0 7.00649e-44 0
7.46248 1.65723e-07 1.01078e-07 6.46445e-08 0.390077 0.462134 0 0 0 0 0 0 0 0 0 0 0 0 0 0 0 0 0 0 0 0 0 0 0 0 1.4013e-45 0 4.2039e-45 0 1.96182e-44 0 6.72623e-44 0 2.07392e-43 0 6.06762e-43 0 1.67876e-42 0 4.27957e-42 0 1.03976e-41 0
7.84553 1.48835e-07 9.59203e-08 5.29151e-08 0.355528 0.401658 0 0 0 0 0 0 0 0 0 0 0 0 0 0 0 0 0 0 1.4013e-45 0 7.00649e-45 0 4.06377e-44 0 1.96182e-43 0 7.95938e-43 0 2.9091e-42 0 9.64093e-42 0 2.82264e-41 0 7.83116e-41 0 2.06413e-40 0 5.02591e-40 0 1.16916e-39 0
8.24824 1.35624e-07 9.61405e-08 3.94837e-08 0.291126 0.362493 0 0 0 0 0 0 0 0 0 0 0 0 0 0 1.4013e-45 0 2.24208e-44 0 1.90577e-43 0 1.22473e-42 0 6.20075e-42 0 2.79335e-41 0 1.0568e-40 0 3.6232e-40 0 1.13243e-39 0 3.14603e-39 0 8.30409e-39 0 2.08763e-38 0 4.86702e-38 0 1.08647e-37 0
8.67162 1.37838e-07 1.04367e-07 3.34708e-08 0.242827 0.331102 0 0 0 0 0 0 0 0 0 0 1.4013e-45 0 2.24208e-44 0 3.69943e-43 0 3.86899e-42 0 2.90405e-41 0 1.7023e-40 0 7.96347e-40 0 3.33317e-39 0 1.18171e-38 0 3.81489e-38 0 1.12781e-37 0 2.98074e-37 0 7.50363e-37 0 1.80337e-36 0 4.0341e-36 0 8.65915e-36 0
9.11674 1.59814e-07 1.23377e-07 3.64376e-08 0.227999 0.300647 0 0 0 0 0 0 0 0 2.8026e-45 0 1.75162e-43 0 4.19269e-42 0 5.89162e-41 0 5.49104e-40 0 3.73551e-39 0 2.00857e-38 0 8.7144e-38 0 3.40123e-37 0 1.13358e-36 0 3.45601e-36 0 9.69047e-36 0 2.44244e-35 0 5.87754e-35 0 1.35337e-34 0 2.91076e-34 0 6.01919e-34 0
9.5847 1.94032e-07 1.43996e-07 5.00366e-08 0.257878 0.27251 0 0 0 0 0 0 2.8026e-45 0 5.91348e-43 0 2.84996e-41 0 5.8278e-40 0 7.1991e-39 0 6.01678e-38 0 3.72737e-37 0 1.84617e-36 0 7.45598e-36 0 2.72288e-35 0 8.55696e-35 0 2.47061e-34 0 6.58738e-34 0 1.58705e-33 0 3.65882e-33 0 8.08867e-33 0 1.67582e-32 0 3.34468e-32 0
10.0767 2.17601e-07 1.54672e-07 6.29289e-08 0.289194 0.244985 0 0 0 0 0 0 5.80138e-43 0 8.27831e-41 0 3.30517e-39 0 5.83264e-38 0 6.37284e-37 0 4.80175e-36 0 2.72125e-35 0 1.24655e-34 0 4.70267e-34 0 1.61214e-33 0 4.79088e-33 0 1.31346e-32 0 3.33834e-32 0 7.70483e-32 0 1.70531e-31 0 3.62675e-31 0 7.25143e-31 0 1.39926e-30 0
10.5939 2.23397e-07 1.55288e-07 6.81092e-08 0.30488 0.221853 0 0 0 0 6.5861e-44 0 7.53899e-41 0 8.44418e-39 0 2.81596e-37 0 4.31948e-36 0 4.1995e-35 0 2.86709e-34 0 1.49289e-33 0 6.34893e-33 0 2.24482e-32 0 7.2463e-32 0 2.04189e-31 0 5.32906e-31 0 1.29415e-30 0 2.86736e-30 0 6.10488e-30 0 1.25138e-29 0 2.41883e-29 0 4.52002e-29 0
11.1377 2.20324e-07 1.51358e-07 6.89663e-08 0.313022 0.209818 0 0 0 0 9.07621e-42 0 7.41019e-39 0 6.59205e-37 0 1.85237e-35 0 2.48677e-34 0 2.16359e-33 0 1.3449e-32 0 6.46082e-32 0 2.56016e-31 0 8.51075e-31 0 2.59451e-30 0 6.95033e-30 0 1.73094e-29 0 4.02534e-29 0 8.57889e-29 0 1.76036e-28 0 3.48415e-28 0 6.52135e-28 0 1.18199e-27 0
11.7094 2.03286e-07 1.39295e-07 6.39905e-08 0.314781 0.202104 0 0 5.60519e-45 0 9.21529e-40 0 5.42347e-37 0 3.87526e-35 0 9.25287e-34 0 1.09425e-32 0 8.5661e-32 0 4.87028e-31 0 2.16708e-30 0 8.02893e-30 0 2.51702e-29 0 7.26674e-29 0 1.85522e-28 0 4.419e-28 0 9.86166e-28 0 2.02551e-27 0 4.01295e-27 0 7.68214e-27 0 1.39454e-26 0 2.45526e-26 0
12.3105 1.74335e-07 1.20391e-07 5.3944e-08 0.309427 0.199269 0 0 7.28675e-43 0 6.89951e-38 0 2.9741e-35 0 1.72527e-33 0 3.52821e-32 0 3.6984e-31 0 2.61848e-30 0 1.36763e-29 0 5.65765e-29 0 1.96629e-28 0 5.82976e-28 0 1.59816e-27 0 3.89765e-27 0 8.89874e-27 0 1.90956e-26 0 3.78665e-26 0 7.25584e-26 0 1.34567e-25 0 2.3727e-25 0 4.06364e-25 0
12.9424 1.46405e-07 1.05606e-07 4.07998e-08 0.278677 0.19351 0 0 7.69873e-41 0 4.16535e-36 0 1.33524e-33 0 6.35274e-32 0 1.12115e-30 0 1.04785e-29 0 6.74269e-29 0 3.24864e-28 0 1.25389e-27 0 4.1007e-27 0 1.15296e-26 0 3.00886e-26 0 7.02556e-26 0 1.54064e-25 0 3.18505e-25 0 6.10832e-25 0 1.13387e-24 0 2.04041e-24 0 3.49942e-24 0 5.83795e-24 0
13.6067 1.3097e-07 9.86311e-08 3.23384e-08 0.246916 0.177219 5.32493e-44 0 6.7694e-39 0 2.15122e-34 0 5.20288e-32 0 2.04997e-30 0 3.14472e-29 0 2.63529e-28 0 1.54841e-27 0 6.90896e-27 0 2.49651e-26 0 7.70561e-26 0 2.05989e-25 0 5.1297e-25 0 1.14918e-24 0 2.42527e-24 0 4.83921e-24 0 8.99026e-24 0 1.61919e-23 0 2.83135e-23 0 4.72971e-23 0 7.69569e-23 0
14.3051 1.19713e-07 9.41307e-08 2.55822e-08 0.213696 0.149883 6.77248e-42 0 4.81274e-37 0 9.21966e-33 0 1.70569e-30 0 5.617e-29 0 7.54122e-28 0 5.69654e-27 0 3.06987e-26 0 1.27331e-25 0 4.32131e-25 0 1.26238e-24 0 3.21646e-24 0 7.6609e-24 0 1.64996e-23 0 3.35744e-23 0 6.477e-23 0 1.16745e-22 0 2.0431e-22 0 3.47644e-22 0 5.66365e-22 0 8.99884e-22 0
