# 0.00012376 2 78 : grain size, compostion index, size index
# This grain was stochastically heated: No
# Heating and cooling timescale: 0.000191187 1.20522e+07
# Ratio of heating to cooling to determine stochastic cutoff: 100
# Equilibrium emission is recorded even for those grains in the stochastic regime.
# Emission spectrum was computed for: 
# Type: IRSF
# Scales:  0.5 1 2 5 10
# Temperature: -1
# Wavelength  CExt  CAbs  CSca  Albedo G EqEm1 StEm1 EqEm2 StEm2 EqEm3 StEm3 EqEm4 StEm4 EqEm5 StEm5
0.05 9.88161e-08 3.4571e-08 6.42451e-08 0.650148 0.857561 0 0 0 0 0 0 0 0 0 0
0.0525665 9.89971e-08 3.41086e-08 6.48886e-08 0.655459 0.845479 0 0 0 0 0 0 0 0 0 0
0.0552647 9.91864e-08 3.37916e-08 6.53947e-08 0.659312 0.835462 0 0 0 0 0 0 0 0 0 0
0.0581015 9.93653e-08 3.37032e-08 6.56621e-08 0.660815 0.829335 0 0 0 0 0 0 0 0 0 0
0.0610839 9.95447e-08 3.33078e-08 6.62369e-08 0.665398 0.820927 0 0 0 0 0 0 0 0 0 0
0.0642193 9.9785e-08 3.22156e-08 6.75694e-08 0.677149 0.803388 0 0 0 0 0 0 0 0 0 0
0.0675157 1.00107e-07 3.11992e-08 6.89081e-08 0.688342 0.784253 0 0 0 0 0 0 0 0 0 0
0.0709813 1.00457e-07 3.13059e-08 6.91515e-08 0.688366 0.777506 0 0 0 0 0 0 0 0 0 0
0.0746248 1.00786e-07 3.20122e-08 6.87742e-08 0.682376 0.77891 0 0 0 0 0 0 0 0 0 0
0.0784553 1.01083e-07 3.28962e-08 6.81873e-08 0.674564 0.78371 0 0 0 0 0 0 0 0 0 0
0.0824824 1.01361e-07 3.38774e-08 6.7484e-08 0.665776 0.789385 0 0 0 0 0 0 0 0 0 0
0.0867162 1.01631e-07 3.4262e-08 6.73694e-08 0.662879 0.78831 0 0 0 0 0 0 0 0 0 0
0.0911674 1.01939e-07 3.43466e-08 6.75921e-08 0.663066 0.783374 0 0 0 0 0 0 0 0 0 0
0.095847 1.02227e-07 3.47478e-08 6.74795e-08 0.660093 0.781605 0 0 0 0 0 0 0 0 0 0
0.100767 1.02346e-07 3.61055e-08 6.62406e-08 0.647222 0.792288 0 0 0 0 0 0 0 0 0 0
0.105939 1.02386e-07 3.73887e-08 6.49977e-08 0.634828 0.806078 0 0 0 0 0 0 0 0 0 0
0.111377 1.02174e-07 3.95011e-08 6.26727e-08 0.613393 0.832339 0 0 0 0 0 0 0 0 0 0
0.117094 1.02103e-07 4.16858e-08 6.04173e-08 0.591728 0.863245 0 0 0 0 0 0 0 0 0 0
0.123105 1.02173e-07 4.31771e-08 5.89964e-08 0.577414 0.884938 0 0 0 0 0 0 0 0 0 0
0.129424 1.02293e-07 4.45028e-08 5.77907e-08 0.56495 0.904101 0 0 0 0 0 0 0 0 0 0
0.136067 1.024e-07 4.56098e-08 5.67906e-08 0.554593 0.919628 0 0 0 0 0 0 0 0 0 0
0.143051 1.02409e-07 4.6473e-08 5.59358e-08 0.546201 0.93171 0 0 0 0 0 0 0 0 0 0
0.150394 1.02218e-07 4.68876e-08 5.53307e-08 0.5413 0.93942 0 0 0 0 0 0 0 0 0 0
0.158114 1.01971e-07 4.65806e-08 5.53906e-08 0.543198 0.940052 0 0 0 0 0 0 0 0 0 0
0.16623 1.02015e-07 4.5349e-08 5.66664e-08 0.555469 0.929463 0 0 0 0 0 0 0 0 0 0
0.174762 1.02522e-07 4.32745e-08 5.92473e-08 0.577899 0.904155 0 0 0 0 0 0 0 0 0 0
0.183733 1.03222e-07 4.08338e-08 6.23878e-08 0.604407 0.870427 0 0 0 0 0 0 0 0 0 0
0.193164 1.04035e-07 3.8418e-08 6.56173e-08 0.630722 0.836029 0 0 0 0 0 0 0 0 0 0
0.203079 1.04941e-07 3.64514e-08 6.849e-08 0.65265 0.807911 0 0 0 0 0 0 0 0 0 0
0.213503 1.05979e-07 3.49066e-08 7.10721e-08 0.670626 0.785432 0 0 0 0 0 0 0 0 0 0
0.224463 1.07242e-07 3.42432e-08 7.2999e-08 0.680693 0.770421 0 0 0 0 0 0 0 0 0 0
0.235984 1.08498e-07 3.42288e-08 7.42688e-08 0.684521 0.760552 0 0 0 0 0 0 0 0 0 0
0.248097 1.09255e-07 3.49487e-08 7.43063e-08 0.680118 0.756919 0 0 0 0 0 0 0 0 0 0
0.260832 1.09331e-07 3.59198e-08 7.34112e-08 0.671458 0.757648 0 0 0 0 0 0 0 0 0 0
0.274221 1.09096e-07 3.68673e-08 7.22286e-08 0.662065 0.759875 0 0 0 0 0 0 0 0 0 0
0.288297 1.08861e-07 3.80794e-08 7.07819e-08 0.650203 0.767263 0 0 0 0 0 0 0 0 0 0
0.303095 1.08848e-07 3.89886e-08 6.9859e-08 0.641806 0.77305 0 0 0 0 0 0 0 0 0 0
0.318653 1.08915e-07 3.9776e-08 6.91395e-08 0.634799 0.778179 0 0 0 0 0 0 0 0 0 0
0.335009 1.09079e-07 4.04664e-08 6.86121e-08 0.629016 0.782618 0 0 0 0 0 0 0 0 0 0
0.352205 1.09323e-07 4.10283e-08 6.82946e-08 0.624705 0.785639 0 0 0 0 0 0 0 0 0 0
0.370284 1.09615e-07 4.1484e-08 6.81313e-08 0.621549 0.787295 0 0 0 0 0 0 0 0 0 0
0.389291 1.09933e-07 4.18383e-08 6.8095e-08 0.619421 0.787552 0 0 0 0 0 0 0 0 0 0
0.409273 1.10264e-07 4.21672e-08 6.80972e-08 0.617581 0.787431 0 0 0 0 0 0 0 0 0 0
0.430281 1.10604e-07 4.24865e-08 6.81172e-08 0.615867 0.787112 0 0 0 0 0 0 0 0 0 0
0.452368 1.10971e-07 4.28242e-08 6.81467e-08 0.614095 0.786955 0 0 0 0 0 0 0 0 0 0
0.475588 1.11356e-07 4.31656e-08 6.81908e-08 0.612365 0.786708 0 0 0 0 0 0 0 0 0 0
0.5 1.11771e-07 4.34991e-08 6.82717e-08 0.610819 0.786185 0 0 0 0 0 0 0 0 0 0
0.525665 1.1221e-07 4.38322e-08 6.83782e-08 0.609375 0.785472 0 0 0 0 0 0 0 0 0 0
0.552647 1.12664e-07 4.41656e-08 6.84985e-08 0.607988 0.784588 0 0 0 0 0 0 0 0 0 0
0.581015 1.13156e-07 4.44487e-08 6.87071e-08 0.60719 0.782937 0 0 0 0 0 0 0 0 0 0
0.610839 1.13629e-07 4.47368e-08 6.88925e-08 0.606292 0.781087 0 0 0 0 0 0 0 0 0 0
0.642193 1.1414e-07 4.50241e-08 6.91161e-08 0.605537 0.779111 0 0 0 0 0 0 0 0 0 0
0.675157 1.14798e-07 4.52801e-08 6.95175e-08 0.605566 0.777039 0 0 0 0 0 0 0 0 0 0
0.709813 1.15202e-07 4.55064e-08 6.96956e-08 0.604986 0.773995 0 0 0 0 0 0 0 0 0 0
0.746248 1.15407e-07 4.57042e-08 6.97023e-08 0.603972 0.769932 0 0 0 0 0 0 0 0 0 0
0.784553 1.16277e-07 4.58547e-08 7.04219e-08 0.605641 0.76645 0 0 0 0 0 0 0 0 0 0
0.824824 1.17663e-07 4.59406e-08 7.17229e-08 0.60956 0.763386 0 0 0 0 0 0 0 0 0 0
0.867162 1.17972e-07 4.58576e-08 7.21142e-08 0.611284 0.756766 0 0 0 0 0 0 0 0 0 0
0.911674 1.16949e-07 4.55634e-08 7.13861e-08 0.610401 0.745026 0 0 0 0 0 0 0 0 0 0
0.95847 1.16686e-07 4.55389e-08 7.11472e-08 0.609732 0.738195 0 0 0 0 0 0 0 0 0 0
1.00767 1.19011e-07 4.56043e-08 7.34066e-08 0.616806 0.736121 0 0 0 0 0 0 0 0 0 0
1.05939 1.21775e-07 4.49496e-08 7.6825e-08 0.630879 0.735105 0 0 0 0 0 0 0 0 0 0
1.11377 1.23267e-07 4.46335e-08 7.86331e-08 0.637911 0.729811 0 0 0 0 0 0 0 0 0 0
1.17094 1.22489e-07 4.42914e-08 7.81973e-08 0.638404 0.708998 0 0 0 0 0 0 0 0 0 0
1.23105 1.20547e-07 4.39442e-08 7.66023e-08 0.635458 0.69085 0 0 0 0 0 0 0 0 0 0
1.29424 1.1714e-07 4.25448e-08 7.45956e-08 0.636805 0.655218 0 0 0 0 0 0 0 0 0 0
1.36067 1.19081e-07 4.31005e-08 7.59803e-08 0.638057 0.640803 0 0 0 0 0 0 0 0 0 0
1.43051 1.19312e-07 4.08601e-08 7.84519e-08 0.657536 0.652372 0 0 0 0 0 0 0 0 0 0
1.50394 1.27544e-07 4.21461e-08 8.53978e-08 0.669556 0.652012 0 0 0 0 0 0 0 0 0 0
1.58114 1.27497e-07 3.94855e-08 8.80111e-08 0.690302 0.671441 0 0 0 0 0 0 0 0 0 0
1.6623 1.36865e-07 4.14081e-08 9.54568e-08 0.697453 0.676319 0 0 0 0 0 0 0 0 0 0
1.74762 1.31441e-07 3.91567e-08 9.22847e-08 0.702098 0.654519 0 0 0 0 0 0 0 0 0 0
1.83733 1.32997e-07 3.92318e-08 9.37647e-08 0.705016 0.667763 0 0 0 0 0 0 0 0 0 0
1.93164 1.3348e-07 4.2051e-08 9.14288e-08 0.684964 0.62984 0 0 0 0 0 0 0 0 0 0
2.03079 1.19466e-07 3.69381e-08 8.25281e-08 0.690807 0.595314 0 0 0 0 0 0 0 0 0 0
2.13503 1.25288e-07 4.14923e-08 8.37955e-08 0.668824 0.567121 0 0 0 0 0 0 0 0 0 0
2.24463 1.22641e-07 4.00825e-08 8.25581e-08 0.673171 0.514397 0 0 0 0 0 0 0 0 0 0
2.35984 1.12462e-07 3.69308e-08 7.55316e-08 0.671617 0.458674 0 0 0 0 0 0 0 0 0 0
2.48097 1.19644e-07 3.87103e-08 8.0934e-08 0.676455 0.45288 0 0 0 0 0 0 0 0 0 0
2.60832 1.23241e-07 3.79645e-08 8.52762e-08 0.691949 0.412757 0 0 0 0 0 0 0 0 0 0
2.74221 1.28811e-07 3.69247e-08 9.18868e-08 0.713344 0.448553 0 0 0 0 0 0 0 0 0 0
2.88297 1.30257e-07 3.62657e-08 9.39913e-08 0.721584 0.474652 0 0 0 0 0 0 0 0 0 0
3.03095 1.45896e-07 3.85562e-08 1.0734e-07 0.735728 0.476292 0 0 0 0 0 0 0 0 0 0
3.18653 1.4667e-07 3.7025e-08 1.09645e-07 0.747562 0.430591 0 0 0 0 0 0 0 0 0 0
3.35009 1.45933e-07 3.39323e-08 1.12001e-07 0.76748 0.436647 0 0 0 0 0 0 0 0 0 0
3.52205 1.53696e-07 3.37866e-08 1.19909e-07 0.780172 0.448703 0 0 0 0 0 0 0 0 0 0
3.70284 1.6446e-07 3.47566e-08 1.29703e-07 0.788662 0.462718 0 0 0 0 0 0 0 0 0 0
3.89291 1.78964e-07 3.68115e-08 1.42153e-07 0.794308 0.465079 0 0 0 0 0 0 0 0 0 0
4.09273 1.74979e-07 3.68917e-08 1.38088e-07 0.789165 0.441545 0 0 0 0 0 0 0 0 0 0
4.30281 1.57586e-07 3.40864e-08 1.23499e-07 0.783696 0.409337 0 0 0 0 0 0 0 0 0 0
4.52368 1.51648e-07 3.24659e-08 1.19182e-07 0.785913 0.378995 0 0 0 0 0 0 0 0 0 0
4.75588 1.51732e-07 3.16464e-08 1.20086e-07 0.791433 0.347744 0 0 0 0 0 0 0 0 0 0
5 1.55345e-07 3.1355e-08 1.2399e-07 0.798159 0.31825 0 0 0 0 0 0 0 0 0 0
5.25665 1.60915e-07 3.15714e-08 1.29343e-07 0.8038 0.294868 0 0 0 0 0 0 0 0 0 0
5.52648 1.63698e-07 3.21054e-08 1.31593e-07 0.803874 0.279451 0 0 0 0 0 0 0 0 0 0
5.81015 1.56858e-07 3.22606e-08 1.24597e-07 0.794332 0.266473 0 0 0 0 0 0 0 0 0 0
6.10839 1.43548e-07 3.17897e-08 1.11759e-07 0.778543 0.244516 0 0 0 0 0 0 0 0 0 0
6.42193 1.32253e-07 3.13156e-08 1.00937e-07 0.763214 0.209956 0 0 0 0 0 0 0 0 0 0
6.75157 1.24638e-07 3.10961e-08 9.3542e-08 0.750509 0.169745 0 0 0 0 0 0 0 0 0 0
7.09813 1.18922e-07 3.10597e-08 8.78626e-08 0.738824 0.130957 0 0 0 0 0 0 0 0 0 0
7.46248 1.13532e-07 3.10139e-08 8.25178e-08 0.726826 0.0964352 0 0 0 0 0 0 0 0 2.8026e-45 0
7.84553 1.07654e-07 3.07882e-08 7.6866e-08 0.714009 0.0666806 0 0 0 0 0 0 0 0 3.86758e-43 0
8.24824 1.00891e-07 3.02455e-08 7.06458e-08 0.700217 0.040897 0 0 0 0 0 0 0 0 4.9222e-41 0
8.67162 9.32261e-08 2.93922e-08 6.3834e-08 0.684722 0.0184959 0 0 0 0 0 0 1.14906e-43 0 4.83361e-39 0
9.11674 8.48899e-08 2.82493e-08 5.66407e-08 0.667225 -0.00103947 0 0 0 0 0 0 1.47781e-41 0 3.70166e-37 0
9.5847 7.62476e-08 2.68862e-08 4.93614e-08 0.647383 -0.0182145 0 0 0 0 0 0 1.46604e-39 0 2.2395e-35 0
10.0767 6.77009e-08 2.53764e-08 4.23245e-08 0.625169 -0.0333243 0 0 0 0 7.28675e-44 0 1.1355e-37 0 1.08371e-33 0
10.5939 5.9543e-08 2.37826e-08 3.57604e-08 0.600581 -0.0467575 0 0 0 0 8.97952e-42 0 6.95691e-36 0 4.24459e-32 0
11.1377 5.20352e-08 2.22085e-08 2.98267e-08 0.573202 -0.0587912 0 0 7.00649e-45 0 8.56035e-40 0 3.42082e-34 0 1.36374e-30 0
11.7094 4.55413e-08 2.06576e-08 2.48838e-08 0.5464 -0.0679677 0 0 9.05239e-43 0 6.40663e-38 0 1.36388e-32 0 3.62727e-29 0
12.3105 3.95407e-08 1.92187e-08 2.0322e-08 0.513952 -0.0777982 0 0 9.31835e-41 0 3.82408e-36 0 4.47229e-31 0 8.0932e-28 0
12.9424 3.44223e-08 1.78486e-08 1.65737e-08 0.481482 -0.0860319 5.1848e-44 0 7.51867e-39 0 1.83695e-34 0 1.21524e-29 0 1.52477e-26 0
13.6067 3.00936e-08 1.66319e-08 1.34617e-08 0.447327 -0.093274 5.92469e-42 0 4.83556e-37 0 7.21381e-33 0 2.77567e-28 0 2.45825e-25 0
14.3051 2.64665e-08 1.55714e-08 1.0895e-08 0.411654 -0.0995643 5.34225e-40 0 2.5101e-35 0 2.34224e-31 0 5.38231e-27 0 3.4224e-24 0
15.0394 2.3448e-08 1.4652e-08 8.79608e-09 0.375131 -0.104939 3.82665e-38 0 1.06336e-33 0 6.35028e-30 0 8.93698e-26 0 4.1465e-23 0
15.8114 2.09624e-08 1.38691e-08 7.09335e-09 0.338384 -0.109388 2.20452e-36 0 3.71714e-32 0 1.45197e-28 0 1.28178e-24 0 4.40673e-22 0
16.623 1.8904e-08 1.31889e-08 5.7151e-09 0.302322 -0.113119 1.03135e-34 0 1.08125e-30 0 2.8204e-27 0 1.59777e-23 0 4.13032e-21 0
17.4762 1.72181e-08 1.26175e-08 4.60057e-09 0.267194 -0.116277 3.96438e-33 0 2.64484e-29 0 4.69875e-26 0 1.74558e-22 0 3.44051e-20 0
18.3733 1.58714e-08 1.21702e-08 3.70114e-09 0.233196 -0.118861 1.26736e-31 0 5.50058e-28 0 6.78161e-25 0 1.68651e-21 0 2.56825e-19 0
19.3164 1.48144e-08 1.18328e-08 2.98166e-09 0.201267 -0.120921 3.40041e-30 0 9.80491e-27 0 8.53998e-24 0 1.44986e-20 0 1.72746e-18 0
20.3079 1.39919e-08 1.15881e-08 2.40386e-09 0.171803 -0.123071 7.72073e-29 0 1.50884e-25 0 9.44306e-23 0 1.11503e-19 0 1.05197e-17 0
21.3503 1.34927e-08 1.15516e-08 1.94112e-09 0.143864 -0.125225 1.51189e-27 0 2.04092e-24 0 9.32742e-22 0 7.79721e-19 0 5.89175e-17 0
22.4463 1.32994e-08 1.17266e-08 1.57285e-09 0.118265 -0.127013 2.57539e-26 0 2.44519e-23 0 8.28665e-21 0 4.9875e-18 0 3.05128e-16 0
23.5984 1.33945e-08 1.21127e-08 1.28186e-09 0.0957001 -0.128427 3.84224e-25 0 2.61027e-22 0 6.65615e-20 0 2.93104e-17 0 1.46687e-15 0
24.8097 1.37255e-08 1.26724e-08 1.05303e-09 0.0767207 -0.129837 5.0346e-24 0 2.48765e-21 0 4.83984e-19 0 1.58324e-16 0 6.54557e-15 0
26.0832 1.43752e-08 1.34991e-08 8.76098e-10 0.0609452 -0.131902 5.86481e-23 0 2.1407e-20 0 3.21986e-18 0 7.93919e-16 0 2.73689e-14 0
27.4221 1.52043e-08 1.44655e-08 7.38795e-10 0.0485913 -0.133868 6.04102e-22 0 1.65314e-19 0 1.94665e-17 0 3.6681e-15 0 1.06379e-13 0
28.8297 1.60668e-08 1.5433e-08 6.33759e-10 0.0394453 -0.135672 5.47965e-21 0 1.14014e-18 0 1.06371e-16 0 1.55201e-14 0 3.81865e-13 0
30.3095 1.67791e-08 1.62279e-08 5.5112e-10 0.0328457 -0.137326 4.35923e-20 0 6.98926e-18 0 5.22539e-16 0 5.97767e-14 0 1.25786e-12 0
31.8653 1.69152e-08 1.64346e-08 4.80623e-10 0.0284137 -0.138881 2.98905e-19 0 3.74021e-17 0 2.26518e-15 0 2.05596e-13 0 3.72833e-12 0
33.5009 1.6549e-08 1.61296e-08 4.19483e-10 0.0253479 -0.140284 1.78713e-18 0 1.76652e-16 0 8.75607e-15 0 6.37719e-13 0 1.00389e-11 0
35.2206 1.54326e-08 1.50742e-08 3.58407e-10 0.023224 -0.141387 9.20261e-18 0 7.26892e-16 0 2.9778e-14 0 1.75909e-12 0 2.42046e-11 0
37.0284 1.39961e-08 1.36934e-08 3.02653e-10 0.0216242 -0.142385 4.18634e-17 0 2.67145e-15 0 9.12952e-14 0 4.41932e-12 0 5.35024e-11 0
38.9291 1.24189e-08 1.21679e-08 2.51047e-10 0.0202149 -0.143192 1.70107e-16 0 8.86159e-15 0 2.54877e-13 0 1.02088e-11 0 1.09425e-10 0
40.9273 1.09105e-08 1.07043e-08 2.06202e-10 0.0188994 -0.143901 6.2763e-16 0 2.69571e-14 0 6.58062e-13 0 2.20122e-11 0 2.1014e-10 0
43.0282 9.60206e-09 9.43409e-09 1.6797e-10 0.0174931 -0.144743 2.1369e-15 0 7.63879e-14 0 1.5954e-12 0 4.49613e-11 0 3.84454e-10 0
45.2368 8.48569e-09 8.34931e-09 1.36383e-10 0.0160721 -0.145587 6.75621e-15 0 2.02819e-13 0 3.65186e-12 0 8.7436e-11 0 6.73273e-10 0
47.5588 7.65256e-09 7.54202e-09 1.1054e-10 0.0144448 -0.146012 2.02399e-14 0 5.14614e-13 0 8.04624e-12 0 1.6498e-10 0 1.14987e-09 0
50 6.95302e-09 6.86338e-09 8.96385e-11 0.012892 -0.146486 5.69108e-14 0 1.23554e-12 0 1.68915e-11 0 2.98852e-10 0 1.89455e-09 0
52.5665 6.43466e-09 6.36201e-09 7.26526e-11 0.0112908 -0.145223 1.52393e-13 0 2.84685e-12 0 3.42547e-11 0 5.26729e-10 0 3.05125e-09 0
55.2648 6.02955e-09 5.97064e-09 5.89077e-11 0.00976984 -0.142958 3.87524e-13 0 6.27515e-12 0 6.68702e-11 0 8.99813e-10 0 4.78404e-09 0
58.1015 5.72129e-09 5.67345e-09 4.78424e-11 0.00836217 -0.13957 9.38844e-13 0 1.32701e-11 0 1.25983e-10 0 1.49318e-09 0 7.31688e-09 0
61.0839 5.4868e-09 5.44793e-09 3.88793e-11 0.00708597 -0.134792 2.16915e-12 0 2.69408e-11 0 2.29152e-10 0 2.40712e-09 0 1.09147e-08 0
64.2193 5.31608e-09 5.28447e-09 3.16166e-11 0.00594735 -0.128232 4.79128e-12 0 5.26201e-11 0 4.03156e-10 0 3.77555e-09 0 1.59016e-08 0
67.5157 5.1909e-09 5.16517e-09 2.57296e-11 0.00495668 -0.119014 1.01197e-11 0 9.88682e-11 0 6.85807e-10 0 5.75806e-09 0 2.26074e-08 0
70.9813 5.09446e-09 5.0735e-09 2.09569e-11 0.00411366 -0.106523 2.04353e-11 0 1.78624e-10 0 1.12724e-09 0 8.53049e-09 0 3.13292e-08 0
74.6248 5.0007e-09 4.98363e-09 1.70647e-11 0.00341247 -0.0895507 3.93566e-11 0 3.09461e-10 0 1.78493e-09 0 1.22367e-08 0 4.21753e-08 0
78.4553 4.86789e-09 4.85401e-09 1.38815e-11 0.00285165 -0.0670984 7.1844e-11 0 5.10802e-10 0 2.70465e-09 0 1.68787e-08 0 5.47642e-08 0
82.4824 4.62709e-09 4.61581e-09 1.12733e-11 0.00243637 -0.0380559 1.22667e-10 0 7.92499e-10 0 3.86827e-09 0 2.2076e-08 0 6.76281e-08 0
86.7162 4.1782e-09 4.16908e-09 9.11777e-12 0.00218223 -0.0059888 1.90982e-10 0 1.12643e-09 0 5.08869e-09 0 2.66736e-08 0 7.73678e-08 0
91.1674 3.56391e-09 3.55656e-09 7.35233e-12 0.00206299 0.0212988 2.7015e-10 0 1.46112e-09 0 6.13218e-09 0 2.96462e-08 0 8.16357e-08 0
95.847 2.90867e-09 2.90275e-09 5.92751e-12 0.00203787 0.0399425 3.52349e-10 0 1.75494e-09 0 6.86721e-09 0 3.0742e-08 0 8.05718e-08 0
100.767 2.28879e-09 2.28401e-09 4.78878e-12 0.00209227 0.0499977 4.27765e-10 0 1.96994e-09 0 7.2118e-09 0 3.00074e-08 0 7.5037e-08 0
105.939 1.73379e-09 1.72992e-09 3.87234e-12 0.00223345 0.0495089 4.83475e-10 0 2.06653e-09 0 7.10104e-09 0 2.75611e-08 0 6.59093e-08 0
111.377 1.31098e-09 1.30784e-09 3.13932e-12 0.00239463 0.0430109 5.28388e-10 0 2.10388e-09 0 6.80671e-09 0 2.47278e-08 0 5.6676e-08 0
117.094 1.02311e-09 1.02056e-09 2.55217e-12 0.00249452 0.0327728 5.78311e-10 0 2.15247e-09 0 6.57614e-09 0 2.24342e-08 0 4.93858e-08 0
123.105 8.33379e-10 8.31299e-10 2.08006e-12 0.00249594 0.0220839 6.41991e-10 0 2.24102e-09 0 6.48361e-09 0 2.08351e-08 0 4.41411e-08 0
129.424 7.14066e-10 7.12367e-10 1.69869e-12 0.0023789 0.0121917 7.29548e-10 0 2.39594e-09 0 6.58187e-09 0 1.99827e-08 0 4.08221e-08 0
136.067 6.20955e-10 6.19566e-10 1.38918e-12 0.00223717 0.00431467 8.19842e-10 0 2.54071e-09 0 6.64415e-09 0 1.91118e-08 0 3.7717e-08 0
143.051 5.55025e-10 5.53886e-10 1.13825e-12 0.00205081 -0.00234415 9.23887e-10 0 2.70948e-09 0 6.76145e-09 0 1.84771e-08 0 3.52884e-08 0
150.394 4.8808e-10 4.87148e-10 9.32508e-13 0.00191056 -0.00787745 1.00047e-09 0 2.78416e-09 0 6.64551e-09 0 1.72974e-08 0 3.20239e-08 0
158.114 4.40664e-10 4.39901e-10 7.62972e-13 0.00173142 -0.0118427 1.08778e-09 0 2.87989e-09 0 6.58953e-09 0 1.63772e-08 0 2.94399e-08 0
166.23 3.96627e-10 3.96004e-10 6.23898e-13 0.00157301 -0.0155259 1.15424e-09 0 2.91444e-09 0 6.40621e-09 0 1.52388e-08 0 2.66393e-08 0
174.763 3.56178e-10 3.55668e-10 5.10407e-13 0.00143301 -0.0189416 1.19752e-09 0 2.8906e-09 0 6.11624e-09 0 1.39568e-08 0 2.37619e-08 0
183.733 3.27808e-10 3.27391e-10 4.1737e-13 0.00127321 -0.0211209 1.24913e-09 0 2.88896e-09 0 5.89568e-09 0 1.2934e-08 0 2.14769e-08 0
193.164 3.02387e-10 3.02046e-10 3.4122e-13 0.00112842 -0.0231412 1.28233e-09 0 2.84772e-09 0 5.61557e-09 0 1.18686e-08 0 1.92475e-08 0
203.079 2.80181e-10 2.79902e-10 2.79025e-13 0.000995876 -0.0247828 1.29955e-09 0 2.77687e-09 0 5.30071e-09 0 1.08146e-08 0 1.71512e-08 0
213.503 2.6215e-10 2.61921e-10 2.28254e-13 0.000870702 -0.0256931 1.30822e-09 0 2.69503e-09 0 4.98845e-09 0 9.84353e-09 0 1.52856e-08 0
224.463 2.45389e-10 2.45203e-10 1.86685e-13 0.000760772 -0.0265675 1.29711e-09 0 2.58112e-09 0 4.64031e-09 0 8.87231e-09 0 1.35064e-08 0
235.984 2.29797e-10 2.29644e-10 1.52658e-13 0.000664316 -0.0274064 1.26772e-09 0 2.44112e-09 0 4.26922e-09 0 7.92331e-09 0 1.18379e-08 0
248.097 2.15307e-10 2.15182e-10 1.24901e-13 0.000580108 -0.0282097 1.22235e-09 0 2.28167e-09 0 3.88765e-09 0 7.01524e-09 0 1.02979e-08 0
260.832 2.02894e-10 2.02792e-10 1.02194e-13 0.000503683 -0.0283672 1.16973e-09 0 2.12013e-09 0 3.5245e-09 0 6.19366e-09 0 8.94221e-09 0
274.221 1.91408e-10 1.91324e-10 8.35962e-14 0.000436744 -0.0284082 1.10659e-09 0 1.95064e-09 0 3.16819e-09 0 5.43027e-09 0 7.71855e-09 0
288.297 1.80596e-10 1.80528e-10 6.83745e-14 0.000378605 -0.028447 1.0346e-09 0 1.77639e-09 0 2.82258e-09 0 4.72552e-09 0 6.61892e-09 0
303.095 1.70494e-10 1.70438e-10 5.59618e-14 0.000328234 -0.0283838 9.57011e-10 0 1.60287e-09 0 2.49473e-09 0 4.08529e-09 0 5.64377e-09 0
318.653 1.6116e-10 1.61114e-10 4.57909e-14 0.000284133 -0.0279454 8.76975e-10 0 1.4348e-09 0 2.19007e-09 0 3.51258e-09 0 4.79011e-09 0
335.009 1.52327e-10 1.52289e-10 3.74597e-14 0.000245917 -0.0275259 7.95545e-10 0 1.27313e-09 0 1.908e-09 0 3.00093e-09 0 4.0429e-09 0
352.206 1.4398e-10 1.43949e-10 3.06506e-14 0.000212881 -0.027125 7.14881e-10 0 1.12047e-09 0 1.6505e-09 0 2.5487e-09 0 3.39466e-09 0
370.284 1.35985e-10 1.3596e-10 2.50866e-14 0.00018448 -0.0264158 6.3619e-10 0 9.77782e-10 0 1.41714e-09 0 2.15094e-09 0 2.83436e-09 0
389.291 1.28402e-10 1.28382e-10 2.05275e-14 0.000159868 -0.0256978 5.61278e-10 0 8.46882e-10 0 1.20886e-09 0 1.80535e-09 0 2.35518e-09 0
409.273 1.21227e-10 1.2121e-10 1.67929e-14 0.000138524 -0.0250119 4.91219e-10 0 7.2843e-10 0 1.025e-09 0 1.5077e-09 0 1.94843e-09 0
430.282 1.14182e-10 1.14168e-10 1.37447e-14 0.000120376 -0.0240959 4.25702e-10 0 6.21067e-10 0 8.62262e-10 0 1.25038e-09 0 1.60167e-09 0
452.368 1.07468e-10 1.07457e-10 1.12494e-14 0.000104676 -0.0231623 3.66082e-10 0 5.2597e-10 0 7.21082e-10 0 1.03177e-09 0 1.31074e-09 0
475.588 1.01137e-10 1.01128e-10 9.20479e-15 9.10131e-05 -0.0222756 3.12709e-10 0 4.42871e-10 0 6.00014e-10 0 8.47845e-10 0 1.06875e-09 0
500 9.51638e-11 9.51562e-11 7.53088e-15 7.9136e-05 -0.0214296 2.65429e-10 0 3.70872e-10 0 4.9692e-10 0 6.93965e-10 0 8.68428e-10 0
525.665 8.89009e-11 8.88947e-11 6.165e-15 6.93468e-05 -0.0202682 2.22386e-10 0 3.06819e-10 0 4.06841e-10 0 5.61939e-10 0 6.98423e-10 0
