# 4.84839e-07 2 25 : grain size, compostion index, size index
# Heating and cooling timescale: 676.854 1761.21
# Ratio of heating to cooling to determine stochastic cutoff: 100
# Equilibrium emission is recorded even for those grains in the stochastic regime.
# Emission spectrum was computed for: 
# Type: IRSF
# Scales: 0.5 1 2 5 10
StochasticallyHeated: 1 1 1 1 1
# Temperature: -1
# Wavelength  CExt  CAbs  CSca  Albedo G EqEm1 StEm1 EqEm2 StEm2 EqEm3 StEm3 EqEm4 StEm4 EqEm5 StEm5
0.05 4.25784e-13 3.961e-13 2.96842e-14 0.0697165 0.0566068 0 0 0 0 0 0 0 0 0 0
0.0525665 4.89895e-13 4.57771e-13 3.21233e-14 0.0655718 0.0504731 0 0 0 0 0 0 0 0 0 0
0.0552647 5.62778e-13 5.28075e-13 3.47026e-14 0.0616631 0.0449455 0 0 0 0 0 0 0 0 0 0
0.0581015 7.20069e-13 6.83218e-13 3.68506e-14 0.0511765 0.0399467 0 0 0 0 0 0 0 0 0 0
0.0610839 1.091e-12 1.0514e-12 3.95993e-14 0.0362963 0.0351777 0 0 0 0 0 0 0 0 0 0
0.0642193 1.37308e-12 1.32813e-12 4.49439e-14 0.0327322 0.0305089 0 0 0 0 0 0 0 0 0 0
0.0675157 1.6436e-12 1.58901e-12 5.45871e-14 0.0332119 0.0257674 0 0 0 0 0 0 0 0 0 0
0.0709813 1.88622e-12 1.82594e-12 6.02811e-14 0.0319588 0.0213963 0 0 0 0 0 0 0 0 0 0
0.0746248 1.76418e-12 1.70696e-12 5.72198e-14 0.0324342 0.0181047 0 0 0 0 0 0 0 0 0 0
0.0784553 1.39058e-12 1.34283e-12 4.77541e-14 0.0343411 0.0158689 0 0 0 0 0 0 0 0 0 0
0.0824824 1.10146e-12 1.06633e-12 3.51353e-14 0.0318988 0.0145185 0 0 0 0 0 0 0 0 0 0
0.0867162 9.20948e-13 8.93644e-13 2.73036e-14 0.0296473 0.0136651 0 0 0 0 0 0 0 0 0 0
0.0911674 8.03076e-13 7.7993e-13 2.31455e-14 0.0288211 0.0130159 0 0 0 0 0 0 0 0 0 0
0.095847 7.16119e-13 6.97366e-13 1.87532e-14 0.0261872 0.0134759 0 0 0 0 0 0 0 0 0 0
0.100767 6.24091e-13 6.1118e-13 1.29117e-14 0.0206888 0.0156628 0 0 0 0 0 0 0 0 0 0
0.105939 5.40988e-13 5.32024e-13 8.96383e-15 0.0165694 0.0170028 0 0 0 0 0 0 0 0 0 0
0.111377 4.61357e-13 4.55922e-13 5.43441e-15 0.0117792 0.0194198 0 0 0 0 0 0 0 0 0 0
0.117094 3.89618e-13 3.86273e-13 3.34524e-15 0.00858595 0.0181106 0 0 0 0 0 0 0 0 0 0
0.123105 3.26787e-13 3.24625e-13 2.16169e-15 0.00661497 0.0155857 0 0 0 0 0 0 0 0 0 0
0.129424 2.74453e-13 2.73072e-13 1.38109e-15 0.00503214 0.0131133 0 0 0 0 0 0 0 0 0 0
0.136067 2.48586e-13 2.47695e-13 8.90349e-16 0.00358166 0.0111008 0 0 0 0 0 0 0 0 0 0
0.143051 2.25513e-13 2.2493e-13 5.8269e-16 0.00258385 0.00947686 0 0 0 0 0 0 0 0 0 0
0.150394 2.13057e-13 2.12661e-13 3.95554e-16 0.00185656 0.00809733 0 0 0 0 0 0 0 0 0 0
0.158114 2.1073e-13 2.10432e-13 2.97875e-16 0.00141354 0.00694075 0 0 0 0 0 0 0 0 0 0
0.16623 2.19336e-13 2.19063e-13 2.7367e-16 0.00124772 0.00597305 0 0 0 0 0 0 0 0 0 0
0.174762 2.4065e-13 2.40323e-13 3.27502e-16 0.00136091 0.00514141 0 0 0 0 0 0 0 0 0 0
0.183733 2.78484e-13 2.78019e-13 4.64851e-16 0.00166922 0.0043837 0 0 0 0 0 0 0 0 0 0
0.193164 3.45214e-13 3.44477e-13 7.36875e-16 0.00213455 0.00365114 0 0 0 0 0 0 0 0 0 0
0.203079 4.52361e-13 4.51229e-13 1.13258e-15 0.0025037 0.00292828 0 0 0 0 0 0 0 0 0 0
0.213503 5.56741e-13 5.55328e-13 1.41294e-15 0.00253788 0.00225163 0 0 0 0 0 0 0 0 0 0
0.224463 5.33897e-13 5.32707e-13 1.19047e-15 0.00222977 0.00166887 0 0 0 0 0 0 0 0 0 0
0.235984 4.12552e-13 4.11743e-13 8.08879e-16 0.00196067 0.0011938 0 0 0 0 0 0 0 0 0 0
0.248097 3.1186e-13 3.11338e-13 5.21743e-16 0.001673 0.000911509 0 0 0 0 0 0 0 0 0 0
0.260832 2.49953e-13 2.49596e-13 3.57023e-16 0.00142836 0.000936388 0 0 0 0 0 0 0 0 0 0
0.274221 2.12921e-13 2.12664e-13 2.56792e-16 0.00120605 0.00124093 0 0 0 0 0 0 0 0 0 0
0.288297 1.89844e-13 1.89653e-13 1.91003e-16 0.0010061 0.00166921 0 0 0 0 0 0 0 0 0 0
0.303095 1.72275e-13 1.72128e-13 1.46972e-16 0.000853126 0.00187832 0 0 0 0 0 0 0 0 0 0
0.318653 1.50958e-13 1.50844e-13 1.1431e-16 0.000757231 0.00196554 0 0 0 0 0 0 0 0 0 0
0.335009 1.32991e-13 1.32901e-13 8.99516e-17 0.000676372 0.00193691 0 0 0 0 0 0 0 0 0 0
0.352205 1.16455e-13 1.16384e-13 7.16692e-17 0.000615423 0.00184038 0 0 0 0 0 0 0 0 0 0
0.370284 1.01308e-13 1.0125e-13 5.76148e-17 0.000568711 0.00172217 0 0 0 0 0 0 0 0 0 0
0.389291 8.7522e-14 8.74753e-14 4.66773e-17 0.000533321 0.00160674 0 0 0 0 0 0 0 0 0 0
0.409273 7.50944e-14 7.50564e-14 3.79317e-17 0.000505121 0.00149436 0 0 0 0 0 0 0 0 0 0
0.430281 6.3953e-14 6.39221e-14 3.08569e-17 0.000482493 0.00138739 0 0 0 0 0 0 0 0 0 0
0.452368 5.4042e-14 5.40169e-14 2.5099e-17 0.000464435 0.00127663 0 0 0 0 0 0 0 0 0 0
0.475588 4.53017e-14 4.52813e-14 2.04299e-17 0.000450975 0.0011704 0 0 0 0 0 0 0 0 0 0
0.5 3.76803e-14 3.76636e-14 1.66738e-17 0.000442506 0.00106838 0 0 0 0 0 0 0 0 0 0
0.525665 3.10736e-14 3.106e-14 1.36233e-17 0.00043842 0.00097184 0 0 0 0 0 0 0 0 0 0
0.552647 2.53986e-14 2.53874e-14 1.11353e-17 0.000438423 0.000883863 0 0 0 0 0 0 0 0 0 0
0.581015 2.05838e-14 2.05746e-14 9.14631e-18 0.000444346 0.000802048 0 0 0 0 0 0 0 0 0 0
0.610839 1.65374e-14 1.65299e-14 7.51497e-18 0.000454423 0.000727926 0 0 0 0 0 0 0 0 0 0
0.642193 1.31643e-14 1.31581e-14 6.17363e-18 0.000468967 0.000660671 0 0 0 0 0 0 0 0 0 0
0.675157 1.03829e-14 1.03778e-14 5.07762e-18 0.000489038 0.000599907 0 0 0 0 0 0 0 0 0 0
0.709813 8.1226e-15 8.11842e-15 4.18334e-18 0.000515025 0.000545396 0 0 0 0 0 0 0 0 0 0
0.746248 6.29698e-15 6.29353e-15 3.4472e-18 0.000547437 0.000496688 0 0 0 0 0 0 0 0 0 0
0.784553 4.83184e-15 4.829e-15 2.83975e-18 0.000587716 0.000452448 0 0 0 0 0 0 0 0 0 0
0.824824 3.65426e-15 3.65193e-15 2.33885e-18 0.000640032 0.000412742 0 0 0 0 0 0 0 0 0 0
0.867162 2.7153e-15 2.71337e-15 1.92703e-18 0.000709693 0.000377014 0 0 0 0 0 0 0 0 0 0
0.911674 2.02851e-15 2.02692e-15 1.58689e-18 0.000782294 0.00034469 0 0 0 0 0 0 0 0 0 0
0.95847 1.49819e-15 1.49689e-15 1.30571e-18 0.000871521 0.000315719 0 0 0 0 0 0 0 0 0 0
1.00767 1.03656e-15 1.03549e-15 1.07444e-18 0.00103654 0.000289411 0 0 0 0 0 0 0 0 0 0
1.05939 7.25844e-16 7.2496e-16 8.83769e-19 0.00121757 0.000265547 0 0 0 0 0 0 0 0 0 0
1.11377 5.70013e-16 5.69286e-16 7.26713e-19 0.00127491 0.000243821 0 0 0 0 0 0 0 0 0 0
1.17094 4.49341e-16 4.48744e-16 5.97312e-19 0.00132931 0.000223537 0 0 0 0 0 0 0 0 0 0
1.23105 3.44399e-16 3.43907e-16 4.91182e-19 0.0014262 0.000204965 0 0 0 0 0 0 0 0 0 0
1.29424 2.76581e-16 2.76177e-16 4.0404e-19 0.00146084 0.00018788 0 0 0 0 0 0 0 0 0 0
1.36067 2.2856e-16 2.28228e-16 3.32167e-19 0.0014533 0.000172316 0 0 0 0 0 0 0 0 0 0
1.43051 1.8977e-16 1.89497e-16 2.72953e-19 0.00143833 0.000158136 0 0 0 0 0 0 0 0 0 0
1.50394 1.57633e-16 1.57409e-16 2.24377e-19 0.00142341 0.000145027 0 0 0 0 0 0 0 0 0 0
1.58114 1.30897e-16 1.30713e-16 1.84449e-19 0.00140912 0.000132806 0 0 0 0 0 0 0 0 0 0
1.6623 1.08766e-16 1.08614e-16 1.51642e-19 0.00139421 0.000121469 0 0 0 0 0 0 0 0 0 1.82169e-44
1.74762 9.05835e-17 9.04588e-17 1.24685e-19 0.00137646 0.000111253 0 0 0 0 0 0 0 1.4013e-44 0 5.56315e-43
1.83733 7.58155e-17 7.57129e-17 1.02509e-19 0.00135209 0.000101915 0 0 0 0 0 7.00649e-45 0 4.35804e-43 0 1.50654e-41
1.93164 6.38859e-17 6.38016e-17 8.42451e-20 0.00131868 9.33413e-05 0 1.4013e-45 0 1.12104e-44 0 1.8357e-43 0 1.12664e-41 0 3.55217e-40
2.03079 5.43524e-17 5.42832e-17 6.92194e-20 0.00127353 8.53847e-05 0 2.38221e-44 0 2.97075e-43 0 4.62428e-42 0 2.5478e-40 0 7.3501e-39
2.13503 4.67802e-17 4.67233e-17 5.69182e-20 0.00121672 7.81064e-05 0 6.02558e-43 0 7.06254e-42 0 1.02254e-40 0 5.08069e-39 0 1.34453e-37
2.24463 4.07626e-17 4.07158e-17 4.67818e-20 0.00114766 7.14735e-05 0 1.35113e-41 0 1.48106e-40 0 1.9999e-39 0 8.988e-38 0 2.18714e-36
2.35984 3.60353e-17 3.59969e-17 3.84361e-20 0.00106662 6.53592e-05 0 2.68789e-40 0 2.76194e-39 0 3.48491e-38 0 1.42068e-36 0 3.18627e-35
2.48097 3.23356e-17 3.2304e-17 3.15737e-20 0.000976438 5.97115e-05 0 4.77272e-39 0 4.6057e-38 0 5.44013e-37 0 2.0172e-35 1.4013e-45 4.17909e-34
2.60832 2.94497e-17 2.94237e-17 2.59584e-20 0.000881448 5.45004e-05 0 7.59694e-38 0 6.89925e-37 0 7.6431e-36 0 2.58466e-34 1.05097e-43 4.95707e-33
2.74221 2.72224e-17 2.7201e-17 2.13345e-20 0.000783713 4.97577e-05 0 1.08849e-36 0 9.32503e-36 0 9.70807e-35 0 3.00197e-33 6.39693e-42 5.34111e-32
2.88297 2.56656e-17 2.56481e-17 1.75207e-20 0.000682654 4.54661e-05 0 1.41645e-35 0 1.14764e-34 0 1.12515e-33 2.10195e-44 3.18979e-32 3.1865e-40 5.27574e-31
3.03095 2.51558e-17 2.51414e-17 1.43912e-20 0.000572084 4.15686e-05 0 1.71315e-34 0 1.31621e-33 0 1.21784e-32 1.38729e-42 3.17362e-31 1.34311e-38 4.88922e-30
3.18653 3.21581e-17 3.21463e-17 1.18228e-20 0.000367645 3.79524e-05 0 2.4262e-33 0 1.77215e-32 0 1.55083e-31 9.81652e-41 3.72446e-30 6.07098e-37 5.35496e-29
3.35009 7.5706e-17 7.56962e-17 9.70949e-21 0.000128253 3.46273e-05 0 5.70452e-32 0 3.97058e-31 4.62428e-44 3.29329e-30 1.03875e-38 7.30732e-29 4.19473e-35 9.82381e-28
3.52205 2.40037e-17 2.39957e-17 7.97015e-21 0.000332038 3.16017e-05 0 1.63473e-31 0 1.08646e-30 9.87915e-43 8.55765e-30 1.2139e-37 1.7586e-28 3.2682e-34 2.21467e-27
3.70284 2.22038e-17 2.21972e-17 6.54525e-21 0.000294781 2.88354e-05 0 1.243e-30 4.2039e-45 7.90083e-30 4.94238e-41 5.92025e-29 3.42897e-36 1.12937e-27 6.27794e-33 1.33463e-26
3.89291 2.21358e-17 2.21304e-17 5.37314e-21 0.000242735 2.62819e-05 0 9.30211e-30 2.63444e-43 5.66137e-29 2.16774e-39 4.04184e-28 8.72711e-35 7.17285e-27 1.10721e-31 7.96764e-26
4.09273 2.28548e-17 2.28503e-17 4.41031e-21 0.000192971 2.38717e-05 1.4013e-45 6.61092e-29 1.52517e-41 3.85543e-28 8.08631e-38 2.62589e-27 1.93993e-33 4.34375e-26 1.7363e-30 4.54271e-25
4.30281 2.43874e-17 2.43838e-17 3.61929e-21 0.000148408 2.16924e-05 8.40779e-44 4.47011e-28 7.41023e-40 2.49909e-27 2.58482e-36 1.62551e-26 3.7898e-32 2.51098e-25 2.43408e-29 2.47612e-24
4.52368 2.71529e-17 2.71499e-17 2.97104e-21 0.000109419 1.97093e-05 5.46506e-42 2.91403e-27 3.07996e-38 1.56205e-26 7.21406e-35 9.71128e-26 6.62148e-31 1.4032e-24 3.10163e-28 1.30667e-23
4.75588 3.23051e-17 3.23027e-17 2.43796e-21 7.54668e-05 1.78912e-05 3.0629e-40 1.88178e-26 1.13239e-36 9.67254e-26 1.81599e-33 5.75194e-25 1.0676e-29 7.78602e-24 3.70385e-27 6.85633e-23
5 4.53259e-17 4.53239e-17 1.99995e-21 4.41237e-05 1.61519e-05 1.65711e-38 1.33245e-25 4.1022e-35 6.56809e-25 4.58824e-32 3.73843e-24 1.76567e-28 4.7477e-23 4.60393e-26 3.95897e-22
5.25665 1.3616e-16 1.36159e-16 1.641e-21 1.2052e-05 1.45922e-05 1.58655e-36 1.88319e-24 2.68181e-33 8.90433e-24 2.12917e-30 4.85415e-23 5.47552e-27 5.79176e-22 1.08811e-24 4.57941e-21
5.52648 1.13785e-16 1.13784e-16 1.34639e-21 1.18328e-05 1.3197e-05 3.52494e-35 6.91825e-24 4.14499e-32 3.13918e-23 2.37535e-29 1.6402e-22 4.16336e-26 1.84123e-21 6.38974e-24 1.3822e-20
5.81015 1.99343e-16 1.99342e-16 1.10397e-21 5.53806e-06 1.19231e-05 1.38191e-33 4.98944e-23 1.15065e-30 2.17418e-22 4.83594e-28 1.08967e-21 5.88607e-25 1.15248e-20 7.06534e-23 8.22464e-20
6.10839 6.84948e-16 6.84947e-16 9.04957e-22 1.32121e-06 1.07291e-05 9.01839e-32 6.62145e-22 5.4076e-29 2.77362e-21 1.69219e-26 1.33467e-20 1.45598e-23 1.33191e-19 1.38339e-21 9.04756e-19
6.42193 4.51464e-16 4.51463e-16 7.41817e-22 1.64314e-06 9.75157e-06 9.65973e-31 1.58446e-21 4.2385e-28 6.38799e-21 1.00189e-25 2.9545e-20 6.19784e-23 2.78617e-19 4.71481e-21 1.80378e-18
6.75157 3.71348e-16 3.71348e-16 6.0817e-22 1.63774e-06 8.70661e-06 1.11314e-29 4.45545e-21 3.62906e-27 1.7314e-20 6.5692e-25 7.70608e-20 2.96925e-22 6.87806e-19 1.82819e-20 4.24922e-18
7.09813 4.33e-16 4.33e-16 4.98321e-22 1.15086e-06 7.79556e-06 1.57914e-28 1.67545e-20 3.88111e-26 6.28585e-20 5.45059e-24 2.69584e-19 1.82786e-21 2.28112e-18 9.2035e-20 1.34648e-17
7.46248 1.06e-15 1.06e-15 4.08191e-22 3.85084e-07 6.95672e-06 4.11246e-27 1.25008e-19 7.72543e-25 4.53578e-19 8.52239e-23 1.87711e-18 2.15157e-20 1.50835e-17 8.9468e-19 8.51712e-17
7.84553 1.35314e-15 1.35314e-15 3.34485e-22 2.47192e-07 6.14913e-06 4.91547e-26 4.60484e-19 7.15103e-24 1.61881e-18 6.27013e-22 6.47422e-18 1.20833e-19 4.94882e-17 4.18847e-18 2.67646e-16
8.24824 6.10178e-16 6.10178e-16 2.73997e-22 4.49044e-07 5.39662e-06 1.83808e-25 5.68364e-19 2.09687e-23 1.93939e-18 1.47781e-21 7.50713e-18 2.20277e-19 5.46821e-17 6.42181e-18 2.83588e-16
8.67162 4.93142e-16 4.93142e-16 2.24298e-22 4.54833e-07 4.74459e-06 1.09752e-24 1.19486e-18 9.93519e-23 3.96457e-18 5.68846e-21 1.48762e-17 6.641e-19 1.03436e-16 1.64214e-17 5.14988e-16
9.11674 1.37572e-16 1.37572e-16 1.83613e-22 1.33466e-06 4.16226e-06 2.02666e-24 8.25556e-19 1.47234e-22 2.66825e-18 6.91838e-21 9.72007e-18 6.40196e-19 6.4624e-17 1.35353e-17 3.09236e-16
9.5847 8.02844e-17 8.02843e-17 1.50246e-22 1.87142e-06 3.63771e-06 7.0521e-24 1.13826e-18 4.15599e-22 3.58968e-18 1.61821e-20 1.27143e-17 1.20044e-18 8.09621e-17 2.18673e-17 3.72742e-16
10.0767 6.16226e-17 6.16225e-17 1.22889e-22 1.99422e-06 3.14776e-06 2.92206e-23 1.97281e-18 1.41127e-21 6.08031e-18 4.5954e-20 2.0969e-17 2.76257e-18 1.28093e-16 4.36745e-17 5.67969e-16
10.5939 6.01987e-17 6.01986e-17 1.00438e-22 1.66844e-06 2.67828e-06 1.402e-22 4.16703e-18 5.6034e-21 1.25703e-17 1.53925e-19 4.22676e-17 7.576e-18 2.48067e-16 1.04669e-16 1.06037e-15
11.1377 1.90379e-16 1.90378e-16 8.20264e-23 4.30859e-07 2.24314e-06 1.99037e-21 2.73342e-17 6.64409e-20 8.08183e-17 1.55253e-18 2.65302e-16 6.31766e-17 1.49808e-15 7.67816e-16 6.17877e-15
11.7094 1.03711e-16 1.03711e-16 6.76142e-23 6.51946e-07 1.85766e-06 4.46832e-21 2.96826e-17 1.25679e-19 8.61287e-17 2.51796e-18 2.76355e-16 8.55027e-17 1.50339e-15 9.1986e-16 5.98799e-15
12.3105 1.02368e-16 1.02367e-16 5.49773e-23 5.37058e-07 1.45259e-06 1.67554e-20 5.62257e-17 4.00425e-19 1.603e-16 6.93023e-18 5.03293e-16 1.98122e-16 2.64097e-15 1.89802e-15 1.01661e-14
12.9424 8.53194e-17 8.53194e-17 4.48917e-23 5.2616e-07 1.05827e-06 4.91021e-20 8.67286e-17 1.00501e-18 2.43209e-16 1.51335e-17 7.47948e-16 3.67307e-16 3.78998e-15 3.15125e-15 1.41098e-14
13.6067 6.75878e-17 6.75877e-17 3.66573e-23 5.42366e-07 7.29235e-07 1.27062e-19 1.22827e-16 2.24426e-18 3.39115e-16 2.96034e-17 1.02244e-15 6.149e-16 5.00795e-15 4.74988e-15 1.80435e-14
14.3051 5.29356e-17 5.29356e-17 2.99094e-23 5.65015e-07 4.44049e-07 3.03097e-19 1.66396e-16 4.65321e-18 4.52692e-16 5.41158e-17 1.33918e-15 9.69312e-16 6.34616e-15 6.7763e-15 2.21418e-14
15.0394 4.38379e-17 4.38379e-17 2.43894e-23 5.56353e-07 1.87273e-07 7.15235e-19 2.30962e-16 9.60963e-18 6.19633e-16 9.91409e-17 1.79982e-15 1.54244e-15 8.25825e-15 9.80628e-15 2.79171e-14
15.8114 4.43313e-17 4.43313e-17 1.98875e-23 4.48611e-07 -5.32361e-08 1.93447e-18 3.79887e-16 2.28946e-17 1.0057e-15 2.10763e-16 2.87004e-15 2.86784e-15 1.27595e-14 1.66583e-14 4.18139e-14
16.623 5.90072e-17 5.90072e-17 1.62137e-23 2.74774e-07 -2.95409e-07 6.48403e-18 7.9923e-16 6.80174e-17 2.08907e-15 5.61839e-16 5.86035e-15 6.73003e-15 2.5259e-14 3.58746e-14 8.02802e-14
17.4762 5.1013e-17 5.1013e-17 1.32116e-23 2.58985e-07 -5.28439e-07 1.33296e-17 1.06271e-15 1.24668e-16 2.74391e-15 9.28912e-16 7.56979e-15 9.85661e-15 3.16476e-14 4.84189e-14 9.75954e-14
18.3733 3.51446e-17 3.51446e-17 1.07596e-23 3.06153e-07 -7.48871e-07 2.06785e-17 1.09712e-15 1.73401e-16 2.79933e-15 1.17135e-15 7.59747e-15 1.10754e-14 3.08232e-14 5.03377e-14 9.22652e-14
19.3164 3.01591e-17 3.01591e-17 8.77392e-24 2.90921e-07 -9.7397e-07 3.79386e-17 1.37623e-15 2.86763e-16 3.47115e-15 1.76462e-15 9.27069e-15 1.49516e-14 3.65112e-14 6.31133e-14 1.06127e-13
20.3079 2.62082e-17 2.62082e-17 7.15927e-24 2.73169e-07 -1.22877e-06 6.70944e-17 1.70723e-15 4.5945e-16 4.25762e-15 2.58725e-15 1.11924e-14 1.97499e-14 4.28028e-14 7.77075e-14 1.20857e-13
21.3503 2.3265e-17 2.3265e-17 5.84801e-24 2.51365e-07 -1.41579e-06 1.15655e-16 2.115e-15 7.20977e-16 5.21624e-15 3.73143e-15 1.3499e-14 2.57931e-14 5.01408e-14 9.49202e-14 1.37576e-13
22.4463 2.09572e-17 2.09572e-17 4.79236e-24 2.28673e-07 -1.56419e-06 1.93477e-16 2.60199e-15 1.10302e-15 6.34712e-15 5.2684e-15 1.61716e-14 3.31371e-14 5.83538e-14 1.14431e-13 1.55642e-13
23.5984 1.915e-17 1.915e-17 3.95074e-24 2.06305e-07 -1.70029e-06 3.14675e-16 3.1807e-15 1.64781e-15 7.6745e-15 7.29203e-15 1.92524e-14 4.1927e-14 6.74992e-14 1.36286e-13 1.7507e-13
24.8097 1.7775e-17 1.7775e-17 3.28507e-24 1.84814e-07 -1.88701e-06 4.99313e-16 3.87223e-15 2.41164e-15 9.24172e-15 9.92464e-15 2.28272e-14 5.23932e-14 7.77722e-14 1.60785e-13 1.96221e-13
26.0832 1.67811e-17 1.67811e-17 2.76691e-24 1.64882e-07 -2.01042e-06 7.75489e-16 4.70486e-15 3.46835e-15 1.1107e-14 1.33208e-14 2.70117e-14 6.48361e-14 8.94408e-14 1.88375e-13 2.19593e-13
27.4221 1.6082e-17 1.6082e-17 2.3627e-24 1.46916e-07 -2.10906e-06 1.17876e-15 5.69856e-15 4.90017e-15 1.3306e-14 1.76233e-14 3.18595e-14 7.94012e-14 1.02538e-13 2.18996e-13 2.45067e-13
28.8297 1.55257e-17 1.55257e-17 2.05154e-24 1.32138e-07 -2.14725e-06 1.74332e-15 6.83317e-15 6.76008e-15 1.57797e-14 2.28397e-14 3.71961e-14 9.5615e-14 1.16372e-13 2.50986e-13 2.70853e-13
30.3095 1.49997e-17 1.49997e-17 1.80333e-24 1.20224e-07 -2.16438e-06 2.49633e-15 8.06416e-15 9.06028e-15 1.84154e-14 2.8845e-14 4.27315e-14 1.12607e-13 1.29973e-13 2.82008e-13 2.94708e-13
31.8653 1.42225e-17 1.42225e-17 1.58444e-24 1.11403e-07 -2.1284e-06 3.39967e-15 9.19185e-15 1.15863e-14 2.07545e-14 3.486e-14 4.74028e-14 1.27342e-13 1.40189e-13 3.04965e-13 3.09802e-13
33.5009 1.32657e-17 1.32657e-17 1.38972e-24 1.04761e-07 -2.08953e-06 4.42027e-15 1.01491e-14 1.41894e-14 2.26546e-14 4.04576e-14 5.09248e-14 1.38744e-13 1.46454e-13 3.1845e-13 3.15564e-13
35.2206 1.19699e-17 1.19699e-17 1.19015e-24 9.94281e-08 -1.97085e-06 5.40406e-15 1.06818e-14 1.63875e-14 2.35677e-14 4.43966e-14 5.21341e-14 1.43379e-13 1.45821e-13 3.1607e-13 3.06491e-13
37.0284 1.05989e-17 1.05989e-17 1.0067e-24 9.49813e-08 -1.85305e-06 6.31037e-15 1.08767e-14 1.81274e-14 2.37155e-14 4.67804e-14 5.16209e-14 1.42698e-13 1.40452e-13 3.02737e-13 2.88095e-13
38.9291 9.23271e-18 9.23271e-18 8.36299e-25 9.058e-08 -1.6928e-06 7.06508e-15 1.07474e-14 1.92769e-14 2.31539e-14 4.75006e-14 4.95862e-14 1.37247e-13 1.31265e-13 2.80765e-13 2.62895e-13
40.9273 7.97673e-18 7.97673e-18 6.88042e-25 8.62561e-08 -1.52208e-06 7.65568e-15 1.0395e-14 1.98905e-14 2.2123e-14 4.69062e-14 4.66105e-14 1.28725e-13 1.20077e-13 2.54393e-13 2.34928e-13
43.0282 6.87729e-18 6.87729e-18 5.61316e-25 8.16188e-08 -1.29506e-06 8.08813e-15 9.90699e-15 2.00584e-14 2.08244e-14 4.53684e-14 4.31598e-14 1.18561e-13 1.08231e-13 2.26756e-13 2.06967e-13
45.2368 5.92841e-18 5.92841e-18 4.56392e-25 7.69839e-08 -1.04911e-06 8.3567e-15 9.32573e-15 1.98275e-14 1.93571e-14 4.31026e-14 3.94627e-14 1.0753e-13 9.63569e-14 1.9937e-13 1.80196e-13
47.5588 5.1357e-18 5.1357e-18 3.70158e-25 7.20754e-08 -6.28131e-07 8.49635e-15 8.7188e-15 1.93288e-14 1.78671e-14 4.04652e-14 3.58279e-14 9.66003e-14 8.52083e-14 1.73913e-13 1.55919e-13
50 4.45621e-18 4.45621e-18 3.00269e-25 6.73822e-08 -2.25998e-07 8.48114e-15 8.07252e-15 1.85386e-14 1.63293e-14 3.74475e-14 3.22063e-14 8.57393e-14 7.46315e-14 1.50119e-13 1.33706e-13
52.5665 3.88603e-18 3.88603e-18 2.4343e-25 6.26423e-08 2.18113e-07 8.34842e-15 7.43002e-15 1.75691e-14 1.4833e-14 3.43048e-14 2.87745e-14 7.54955e-14 6.49951e-14 1.28746e-13 1.14072e-13
55.2648 3.40174e-18 3.40174e-18 1.97389e-25 5.80259e-08 6.2048e-07 8.10164e-15 6.79275e-15 1.64464e-14 1.33812e-14 3.10955e-14 2.55321e-14 6.59146e-14 5.62387e-14 1.09642e-13 9.67543e-14
58.1015 2.98955e-18 2.98955e-18 1.60277e-25 5.36125e-08 9.69395e-07 7.75909e-15 6.17155e-15 1.52215e-14 1.19945e-14 2.79147e-14 2.25118e-14 5.71093e-14 4.83768e-14 9.27853e-14 8.16357e-14
61.0839 2.63556e-18 2.63556e-18 1.30194e-25 4.93992e-08 1.25171e-06 7.33411e-15 5.56986e-15 1.39286e-14 1.06786e-14 2.48157e-14 1.97154e-14 4.90937e-14 4.1355e-14 7.80099e-14 6.84942e-14
64.2193 2.32974e-18 2.32974e-18 1.05802e-25 4.54135e-08 1.47141e-06 6.84462e-15 4.99289e-15 1.26054e-14 9.44169e-15 2.18517e-14 1.71495e-14 4.18803e-14 3.51314e-14 6.51675e-14 5.71459e-14
67.5157 2.06527e-18 2.06527e-18 8.6046e-26 4.16633e-08 1.6199e-06 6.31289e-15 4.4476e-15 1.12922e-14 8.29484e-15 1.90749e-14 1.48244e-14 3.54795e-14 2.96747e-14 5.41276e-14 4.74372e-14
70.9813 1.83526e-18 1.83526e-18 7.00479e-26 3.81678e-08 1.70884e-06 5.75618e-15 3.93661e-15 1.00162e-14 7.24031e-15 1.65102e-14 1.2734e-14 2.9853e-14 2.49224e-14 4.47041e-14 3.91787e-14
