# 2.86846e-06 0 42 : grain size, compostion index, size index
# Heating and cooling timescale: 1.68226 8401.95
# Ratio of heating to cooling to determine stochastic cutoff: 100
# Equilibrium emission is recorded even for those grains in the stochastic regime.
# Emission spectrum was computed for: 
# Type: ISRF
# Scales: 0.25 0.5 1 1.5 2 2.5 3 3.5 4 4.5 5 5.5 6 6.5 7 7.5 8 8.5 9 9.5 10
# StochasticallyHeated: 0 0 0 0 0 0 0 0 0 0 0 0 0 0 0 0 0 0 0 0 0
# Temperature: -1
# Wavelength  CExt  CAbs  CSca  Albedo G EqEm1 StEm1 EqEm2 StEm2 EqEm3 StEm3 EqEm4 StEm4 EqEm5 StEm5 EqEm6 StEm6 EqEm7 StEm7 EqEm8 StEm8 EqEm9 StEm9 EqEm10 StEm10 EqEm11 StEm11 EqEm12 StEm12 EqEm13 StEm13 EqEm14 StEm14 EqEm15 StEm15 EqEm16 StEm16 EqEm17 StEm17 EqEm18 StEm18 EqEm19 StEm19 EqEm20 StEm20 EqEm21 StEm21
0.05 1.59676e-11 1.27928e-11 3.17477e-12 0.198826 0.8492 0 0 0 0 0 0 0 0 0 0 0 0 0 0 0 0 0 0 0 0 0 0 0 0 0 0 0 0 0 0 0 0 0 0 0 0 0 0 0 0 0 0
0.0525665 2.01398e-11 1.5289e-11 4.85086e-12 0.240859 0.836659 0 0 0 0 0 0 0 0 0 0 0 0 0 0 0 0 0 0 0 0 0 0 0 0 0 0 0 0 0 0 0 0 0 0 0 0 0 0 0 0 0 0
0.0552647 2.28358e-11 1.71889e-11 5.64693e-12 0.247284 0.82484 0 0 0 0 0 0 0 0 0 0 0 0 0 0 0 0 0 0 0 0 0 0 0 0 0 0 0 0 0 0 0 0 0 0 0 0 0 0 0 0 0 0
0.0581015 2.46989e-11 1.86205e-11 6.0784e-12 0.2461 0.812387 0 0 0 0 0 0 0 0 0 0 0 0 0 0 0 0 0 0 0 0 0 0 0 0 0 0 0 0 0 0 0 0 0 0 0 0 0 0 0 0 0 0
0.0610839 2.59661e-11 1.96807e-11 6.28534e-12 0.24206 0.799019 0 0 0 0 0 0 0 0 0 0 0 0 0 0 0 0 0 0 0 0 0 0 0 0 0 0 0 0 0 0 0 0 0 0 0 0 0 0 0 0 0 0
0.0642193 2.68452e-11 2.04717e-11 6.37351e-12 0.237417 0.784457 0 0 0 0 0 0 0 0 0 0 0 0 0 0 0 0 0 0 0 0 0 0 0 0 0 0 0 0 0 0 0 0 0 0 0 0 0 0 0 0 0 0
0.0675157 2.75173e-11 2.10977e-11 6.41957e-12 0.233292 0.768365 0 0 0 0 0 0 0 0 0 0 0 0 0 0 0 0 0 0 0 0 0 0 0 0 0 0 0 0 0 0 0 0 0 0 0 0 0 0 0 0 0 0
0.0709813 2.81555e-11 2.16793e-11 6.4762e-12 0.230015 0.750478 0 0 0 0 0 0 0 0 0 0 0 0 0 0 0 0 0 0 0 0 0 0 0 0 0 0 0 0 0 0 0 0 0 0 0 0 0 0 0 0 0 0
0.0746248 2.8846e-11 2.2287e-11 6.55899e-12 0.227379 0.730697 0 0 0 0 0 0 0 0 0 0 0 0 0 0 0 0 0 0 0 0 0 0 0 0 0 0 0 0 0 0 0 0 0 0 0 0 0 0 0 0 0 0
0.0784553 2.95463e-11 2.29057e-11 6.64062e-12 0.224753 0.709017 0 0 0 0 0 0 0 0 0 0 0 0 0 0 0 0 0 0 0 0 0 0 0 0 0 0 0 0 0 0 0 0 0 0 0 0 0 0 0 0 0 0
0.0824824 3.02302e-11 2.35197e-11 6.71053e-12 0.221981 0.685322 0 0 0 0 0 0 0 0 0 0 0 0 0 0 0 0 0 0 0 0 0 0 0 0 0 0 0 0 0 0 0 0 0 0 0 0 0 0 0 0 0 0
0.0867162 3.08918e-11 2.41225e-11 6.76934e-12 0.219131 0.65942 0 0 0 0 0 0 0 0 0 0 0 0 0 0 0 0 0 0 0 0 0 0 0 0 0 0 0 0 0 0 0 0 0 0 0 0 0 0 0 0 0 0
0.0911674 3.15438e-11 2.47213e-11 6.82255e-12 0.216288 0.631219 0 0 0 0 0 0 0 0 0 0 0 0 0 0 0 0 0 0 0 0 0 0 0 0 0 0 0 0 0 0 0 0 0 0 0 0 0 0 0 0 0 0
0.095847 3.21939e-11 2.53209e-11 6.87302e-12 0.213488 0.600763 0 0 0 0 0 0 0 0 0 0 0 0 0 0 0 0 0 0 0 0 0 0 0 0 0 0 0 0 0 0 0 0 0 0 0 0 0 0 0 0 0 0
0.100767 3.2836e-11 2.5918e-11 6.91797e-12 0.210683 0.568266 0 0 0 0 0 0 0 0 0 0 0 0 0 0 0 0 0 0 0 0 0 0 0 0 0 0 0 0 0 0 0 0 0 0 0 0 0 0 0 0 0 0
0.105939 3.34597e-11 2.65109e-11 6.94883e-12 0.207678 0.534299 0 0 0 0 0 0 0 0 0 0 0 0 0 0 0 0 0 0 0 0 0 0 0 0 0 0 0 0 0 0 0 0 0 0 0 0 0 0 0 0 0 0
0.111377 3.38422e-11 2.69499e-11 6.8923e-12 0.20366 0.498733 0 0 0 0 0 0 0 0 0 0 0 0 0 0 0 0 0 0 0 0 0 0 0 0 0 0 0 0 0 0 0 0 0 0 0 0 0 0 0 0 0 0
0.117094 3.38805e-11 2.71591e-11 6.72138e-12 0.198385 0.461497 0 0 0 0 0 0 0 0 0 0 0 0 0 0 0 0 0 0 0 0 0 0 0 0 0 0 0 0 0 0 0 0 0 0 0 0 0 0 0 0 0 0
0.123105 3.3882e-11 2.7333e-11 6.54903e-12 0.193289 0.423745 0 0 0 0 0 0 0 0 0 0 0 0 0 0 0 0 0 0 0 0 0 0 0 0 0 0 0 0 0 0 0 0 0 0 0 0 0 0 0 0 0 0
0.129424 3.38001e-11 2.74472e-11 6.35288e-12 0.187954 0.386844 0 0 0 0 0 0 0 0 0 0 0 0 0 0 0 0 0 0 0 0 0 0 0 0 0 0 0 0 0 0 0 0 0 0 0 0 0 0 0 0 0 0
0.136067 3.31563e-11 2.71866e-11 5.96973e-12 0.180048 0.350551 0 0 0 0 0 0 0 0 0 0 0 0 0 0 0 0 0 0 0 0 0 0 0 0 0 0 0 0 0 0 0 0 0 0 0 0 0 0 0 0 0 0
0.143051 3.24639e-11 2.68892e-11 5.57476e-12 0.171721 0.315721 0 0 0 0 0 0 0 0 0 0 0 0 0 0 0 0 0 0 0 0 0 0 0 0 0 0 0 0 0 0 0 0 0 0 0 0 0 0 0 0 0 0
0.150394 3.15125e-11 2.63751e-11 5.13737e-12 0.163026 0.283944 0 0 0 0 0 0 0 0 0 0 0 0 0 0 0 0 0 0 0 0 0 0 0 0 0 0 0 0 0 0 0 0 0 0 0 0 0 0 0 0 0 0
0.158114 2.87127e-11 2.45488e-11 4.16392e-12 0.14502 0.252606 0 0 0 0 0 0 0 0 0 0 0 0 0 0 0 0 0 0 0 0 0 0 0 0 0 0 0 0 0 0 0 0 0 0 0 0 0 0 0 0 0 0
0.16623 2.66768e-11 2.32958e-11 3.38105e-12 0.126741 0.222896 0 0 0 0 0 0 0 0 0 0 0 0 0 0 0 0 0 0 0 0 0 0 0 0 0 0 0 0 0 0 0 0 0 0 0 0 0 0 0 0 0 0
0.174762 2.63437e-11 2.32639e-11 3.07987e-12 0.116911 0.197434 0 0 0 0 0 0 0 0 0 0 0 0 0 0 0 0 0 0 0 0 0 0 0 0 0 0 0 0 0 0 0 0 0 0 0 0 0 0 0 0 0 0
0.183733 2.68027e-11 2.38099e-11 2.99282e-12 0.111661 0.175258 0 0 0 0 0 0 0 0 0 0 0 0 0 0 0 0 0 0 0 0 0 0 0 0 0 0 0 0 0 0 0 0 0 0 0 0 0 0 0 0 0 0
0.193164 2.81483e-11 2.504e-11 3.10824e-12 0.110424 0.1556 0 0 0 0 0 0 0 0 0 0 0 0 0 0 0 0 0 0 0 0 0 0 0 0 0 0 0 0 0 0 0 0 0 0 0 0 0 0 0 0 0 0
0.203079 3.03212e-11 2.69363e-11 3.38493e-12 0.111636 0.13844 0 0 0 0 0 0 0 0 0 0 0 0 0 0 0 0 0 0 0 0 0 0 0 0 0 0 0 0 0 0 0 0 0 0 0 0 0 0 0 0 0 0
0.213503 3.20961e-11 2.85518e-11 3.54424e-12 0.110426 0.123116 0 0 0 0 0 0 0 0 0 0 0 0 0 0 0 0 0 0 0 0 0 0 0 0 0 0 0 0 0 0 0 0 0 0 0 0 0 0 0 0 0 0
0.224463 3.35859e-11 2.99669e-11 3.61898e-12 0.107753 0.109363 0 0 0 0 0 0 0 0 0 0 0 0 0 0 0 0 0 0 0 0 0 0 0 0 0 0 0 0 0 0 0 0 0 0 0 0 0 0 0 0 0 0
0.235984 3.49299e-11 3.12838e-11 3.64617e-12 0.104385 0.0969419 0 0 0 0 0 0 0 0 0 0 0 0 0 0 0 0 0 0 0 0 0 0 0 0 0 0 0 0 0 0 0 0 0 0 0 0 0 0 0 0 0 0
0.248097 3.66375e-11 3.2899e-11 3.73847e-12 0.10204 0.0856878 0 0 0 0 0 0 0 0 0 0 0 0 0 0 0 0 0 0 0 0 0 0 0 0 0 0 0 0 0 0 0 0 0 0 0 0 0 0 0 0 0 0
0.260832 3.79138e-11 3.41632e-11 3.75055e-12 0.0989232 0.0758778 0 0 0 0 0 0 0 0 0 0 0 0 0 0 0 0 0 0 0 0 0 0 0 0 0 0 0 0 0 0 0 0 0 0 0 0 0 0 0 0 0 0
0.274221 3.85373e-11 3.48784e-11 3.65896e-12 0.0949458 0.0673583 0 0 0 0 0 0 0 0 0 0 0 0 0 0 0 0 0 0 0 0 0 0 0 0 0 0 0 0 0 0 0 0 0 0 0 0 0 0 0 0 0 0
0.288297 3.84317e-11 3.49719e-11 3.45985e-12 0.0900259 0.0599753 0 0 0 0 0 0 0 0 0 0 0 0 0 0 0 0 0 0 0 0 0 0 0 0 0 0 0 0 0 0 0 0 0 0 0 0 0 0 0 0 0 0
0.303095 3.77435e-11 3.45378e-11 3.20571e-12 0.0849341 0.0536177 0 0 0 0 0 0 0 0 0 0 0 0 0 0 0 0 0 0 0 0 0 0 0 0 0 0 0 0 0 0 0 0 0 0 0 0 0 0 0 0 0 0
0.318653 3.65169e-11 3.3614e-11 2.90292e-12 0.079495 0.0481215 0 0 0 0 0 0 0 0 0 0 0 0 0 0 0 0 0 0 0 0 0 0 0 0 0 0 0 0 0 0 0 0 0 0 0 0 0 0 0 0 0 0
0.335009 3.49037e-11 3.23194e-11 2.58435e-12 0.0740423 0.0433558 0 0 0 0 0 0 0 0 0 0 0 0 0 0 0 0 0 0 0 0 0 0 0 0 0 0 0 0 0 0 0 0 0 0 0 0 0 0 0 0 0 0
0.352205 3.29968e-11 3.07307e-11 2.26607e-12 0.0686753 0.0392253 0 0 0 0 0 0 0 0 0 0 0 0 0 0 0 0 0 0 0 0 0 0 0 0 0 0 0 0 0 0 0 0 0 0 0 0 0 0 0 0 0 0
0.370284 3.09554e-11 2.8989e-11 1.96631e-12 0.0635207 0.0355923 0 0 0 0 0 0 0 0 0 0 0 0 0 0 0 0 0 0 0 0 0 0 0 0 0 0 0 0 0 0 0 0 0 0 0 0 0 0 0 0 0 0
0.389291 2.88322e-11 2.71426e-11 1.68955e-12 0.0585996 0.0324011 0 0 0 0 0 0 0 0 0 0 0 0 0 0 0 0 0 0 0 0 0 0 0 0 0 0 0 0 0 0 0 0 0 0 0 0 0 0 0 0 0 0
0.409273 2.67205e-11 2.52781e-11 1.4424e-12 0.053981 0.0295654 0 0 0 0 0 0 0 0 0 0 0 0 0 0 0 0 0 0 0 0 0 0 0 0 0 0 0 0 0 0 0 0 0 0 0 0 0 0 0 0 0 0
0.430281 2.46324e-11 2.34083e-11 1.22412e-12 0.0496953 0.0270606 0 0 0 0 0 0 0 0 0 0 0 0 0 0 0 0 0 0 0 0 0 0 0 0 0 0 0 0 0 0 0 0 0 0 0 0 0 0 0 0 0 0
0.452368 2.25646e-11 2.15329e-11 1.03171e-12 0.0457226 0.0248769 0 0 0 0 0 0 0 0 0 0 0 0 0 0 0 0 0 0 0 0 0 0 0 0 0 0 0 0 0 0 0 0 0 0 0 0 0 0 0 0 0 0
0.475588 2.05712e-11 1.97061e-11 8.6512e-13 0.0420549 0.0229563 0 0 0 0 0 0 0 0 0 0 0 0 0 0 0 0 0 0 0 0 0 0 0 0 0 0 0 0 0 0 0 0 0 0 0 0 0 0 0 0 0 0
0.5 1.86365e-11 1.79166e-11 7.19932e-13 0.0386302 0.0213065 0 0 0 0 0 0 0 0 0 0 0 0 0 0 0 0 0 0 0 0 0 0 0 0 0 0 0 0 0 0 0 0 0 0 0 0 0 0 0 0 0 0
0.525665 1.68183e-11 1.62229e-11 5.95366e-13 0.0353999 0.0198635 0 0 0 0 0 0 0 0 0 0 0 0 0 0 0 0 0 0 0 0 0 0 0 0 0 0 0 0 0 0 0 0 0 0 0 0 0 0 0 0 0 0
0.552648 1.51477e-11 1.46577e-11 4.89988e-13 0.0323474 0.0185768 0 0 0 0 0 0 0 0 0 0 0 0 0 0 0 0 0 0 0 0 0 0 0 0 0 0 0 0 0 0 0 0 0 0 0 0 0 0 0 0 0 0
0.581015 1.3635e-11 1.3233e-11 4.02068e-13 0.0294879 0.0174069 0 0 0 0 0 0 0 0 0 0 0 0 0 0 0 0 0 0 0 0 0 0 0 0 0 0 0 0 0 0 0 0 0 0 0 0 0 0 0 0 0 0
0.610839 1.22753e-11 1.19457e-11 3.29528e-13 0.0268449 0.0163285 0 0 0 0 0 0 0 0 0 0 0 0 0 0 0 0 0 0 0 0 0 0 0 0 0 0 0 0 0 0 0 0 0 0 0 0 0 0 0 0 0 0
0.642193 1.10585e-11 1.07887e-11 2.69836e-13 0.0244007 0.0153248 0 0 0 0 0 0 0 0 0 0 0 0 0 0 0 0 0 0 0 0 0 0 0 0 0 0 0 0 0 0 0 0 0 0 0 0 0 0 0 0 0 0
0.675157 9.97359e-12 9.75263e-12 2.20962e-13 0.0221547 0.014382 0 0 0 0 0 0 0 0 0 0 0 0 0 0 0 0 0 0 0 0 0 0 0 0 0 0 0 0 0 0 0 0 0 0 0 0 0 0 0 0 0 0
0.709813 8.99432e-12 8.8134e-12 1.80919e-13 0.0201148 0.013508 0 0 0 0 0 0 0 0 0 0 0 0 0 0 0 0 0 0 0 0 0 0 0 0 0 0 0 0 0 0 0 0 0 0 0 0 0 0 0 0 0 0
0.746248 8.10987e-12 7.96181e-12 1.48052e-13 0.0182558 0.0126967 0 0 0 0 0 0 0 0 0 0 0 0 0 0 0 0 0 0 0 0 0 0 0 0 0 0 0 0 0 0 0 0 0 0 0 0 0 0 0 0 0 0
0.784553 7.29803e-12 7.177e-12 1.21031e-13 0.0165841 0.0119594 0 0 0 0 0 0 0 0 0 0 0 0 0 0 0 0 0 0 0 0 0 0 0 0 0 0 0 0 0 0 0 0 0 0 0 0 0 0 0 0 0 0
0.824824 6.5579e-12 6.45926e-12 9.86406e-14 0.0150415 0.0112802 0 0 0 0 0 0 0 0 0 0 0 0 0 0 0 0 0 0 0 0 0 0 0 0 0 0 0 0 0 0 0 0 0 0 0 0 0 0 0 0 0 0
0.867162 5.91502e-12 5.83479e-12 8.02254e-14 0.013563 0.0106018 0 0 0 0 0 0 0 0 0 0 0 0 0 0 0 0 0 0 0 0 0 0 0 0 0 0 0 0 0 0 0 0 0 0 0 0 0 0 0 0 0 0
0.911674 5.36573e-12 5.30042e-12 6.53029e-14 0.0121704 0.00991318 0 0 0 0 0 0 0 0 0 0 0 0 0 0 0 0 0 0 0 0 0 0 0 0 0 0 0 0 0 0 0 0 0 0 0 0 0 0 0 0 0 0
0.95847 4.89492e-12 4.84157e-12 5.33504e-14 0.0108991 0.00922794 0 0 0 0 0 0 0 0 0 0 0 0 0 0 0 0 0 0 0 0 0 0 0 0 0 0 0 0 0 0 0 0 0 0 0 0 0 0 0 0 0 0
1.00767 4.46476e-12 4.4211e-12 4.36647e-14 0.00977985 0.00859192 0 0 0 0 0 0 0 0 0 0 0 0 0 0 0 0 0 0 0 0 0 0 0 0 0 0 0 0 0 0 0 0 0 0 0 0 0 0 0 0 0 0
1.05939 4.0756e-12 4.03987e-12 3.57369e-14 0.00876849 0.00799354 0 0 0 0 0 0 0 0 0 0 0 0 0 0 0 0 0 0 0 0 0 0 0 0 0 0 0 0 0 0 0 0 0 0 0 0 0 0 0 0 0 0
1.11377 3.72386e-12 3.6946e-12 2.92545e-14 0.00785597 0.00743025 0 0 0 0 0 0 0 0 0 0 0 0 0 0 0 0 0 0 0 0 0 0 0 0 0 0 0 0 0 0 0 0 0 0 0 0 0 0 0 0 0 0
1.17094 3.40573e-12 3.38176e-12 2.39719e-14 0.00703871 0.00690165 0 0 0 0 0 0 0 0 0 0 0 0 0 0 0 0 0 0 0 0 0 0 0 0 0 0 0 0 0 0 0 0 0 0 0 0 0 0 0 0 0 0
1.23105 3.11795e-12 3.0983e-12 1.96524e-14 0.00630299 0.0064055 0 0 0 0 0 0 0 0 0 0 0 0 0 0 0 0 0 0 0 0 0 0 0 0 0 0 0 0 0 0 0 0 0 0 0 0 0 0 0 0 0 0
1.29424 2.85344e-12 2.83733e-12 1.61066e-14 0.00564463 0.00594447 0 0 0 0 0 0 0 0 0 0 0 0 0 0 0 0 0 0 0 0 0 0 0 0 0 0 0 0 0 0 0 0 0 0 0 0 0 0 0 0 0 0
1.36067 2.61305e-12 2.59987e-12 1.3179e-14 0.00504354 0.00550903 0 0 0 0 0 0 0 0 0 0 0 0 0 0 0 0 0 0 0 0 0 0 0 0 0 0 0 0 0 0 0 0 0 0 0 0 0 0 0 0 0 0
1.43051 2.40973e-12 2.39894e-12 1.07923e-14 0.00447862 0.00508099 0 0 0 0 0 0 0 0 0 0 0 0 0 0 0 0 0 0 0 0 0 0 0 0 0 0 0 0 0 0 0 0 0 0 0 0 0 0 0 0 0 0
1.50394 2.22649e-12 2.21763e-12 8.86134e-15 0.00397996 0.00468458 0 0 0 0 0 0 0 0 0 0 0 0 0 0 0 0 0 0 0 0 0 0 0 0 0 0 0 0 0 0 0 0 0 0 0 0 0 0 0 0 0 0
1.58114 2.05474e-12 2.04746e-12 7.27976e-15 0.00354292 0.00432317 0 0 0 0 0 0 0 0 0 0 0 0 0 0 0 0 0 0 0 0 0 0 0 0 0 0 0 0 0 0 0 0 0 0 0 0 0 0 0 0 0 0
1.6623 1.89399e-12 1.88802e-12 5.97734e-15 0.00315594 0.0039913 0 0 0 0 0 0 0 0 0 0 0 0 0 0 0 0 0 0 0 0 0 0 0 0 0 0 0 0 0 0 0 0 0 0 0 0 0 0 0 0 0 0
1.74763 1.74759e-12 1.74268e-12 4.9046e-15 0.00280649 0.00368075 0 0 0 0 0 0 0 0 0 0 0 0 0 0 0 0 0 0 0 0 0 0 0 0 0 0 0 0 0 0 0 0 0 0 0 0 0 0 0 0 0 0
1.83733 1.6221e-12 1.61807e-12 4.02725e-15 0.00248274 0.00338277 0 0 0 0 0 0 0 0 0 0 0 0 0 0 0 0 0 0 0 0 0 0 0 0 0 0 0 0 0 0 0 0 0 0 0 0 0 0 0 0 0 0
1.93164 1.50312e-12 1.49981e-12 3.31286e-15 0.00220399 0.00311507 0 0 0 0 0 0 0 0 0 0 0 0 0 0 0 0 0 0 0 0 0 0 0 0 0 0 0 0 0 0 0 0 0 0 0 0 0 0 0 0 0 0
2.03079 1.38925e-12 1.38653e-12 2.72169e-15 0.00195911 0.00287086 0 0 0 0 0 0 0 0 0 0 0 0 0 0 0 0 0 0 0 0 0 0 0 0 0 0 0 0 0 0 0 0 0 0 0 0 0 0 0 0 0 0
2.13503 1.28816e-12 1.28593e-12 2.2351e-15 0.00173511 0.00263986 0 0 0 0 0 0 0 0 0 0 0 0 0 0 0 0 0 0 0 0 0 0 0 0 0 0 0 0 0 0 0 0 0 0 0 0 0 0 0 0 0 0
2.24463 1.19617e-12 1.19434e-12 1.83583e-15 0.00153475 0.00242551 0 0 0 0 0 0 0 0 0 0 0 0 0 0 0 0 0 0 0 0 0 0 0 0 0 0 0 0 0 0 0 0 0 0 0 0 0 0 0 0 0 0
2.35984 1.11395e-12 1.11245e-12 1.50866e-15 0.00135433 0.00222547 0 0 0 0 0 0 0 0 0 0 0 0 0 0 0 0 0 0 0 0 0 0 0 0 0 0 0 0 0 0 0 0 0 0 0 0 0 0 0 0 0 0
2.48097 1.03577e-12 1.03453e-12 1.24074e-15 0.00119789 0.0020448 0 0 0 0 0 0 0 0 0 0 0 0 0 0 0 0 0 0 0 0 0 0 0 0 0 0 0 0 0 0 0 0 0 0 0 0 0 0 0 0 0 0
2.60832 9.64828e-13 9.6381e-13 1.01772e-15 0.00105482 0.00187344 0 0 0 0 0 0 0 0 0 0 0 0 0 0 0 0 0 0 0 0 0 0 0 0 0 0 0 0 0 0 0 0 0 0 0 0 0 0 0 0 0 0
2.74221 9.08411e-13 9.07573e-13 8.37879e-16 0.000922357 0.00171086 0 0 0 0 0 0 0 0 0 0 0 0 0 0 0 0 0 0 0 0 0 0 0 0 0 0 0 0 0 0 0 0 0 0 0 0 0 0 0 0 0 0
2.88297 8.47338e-13 8.46649e-13 6.89904e-16 0.000814201 0.00157077 0 0 0 0 0 0 0 0 0 0 0 0 0 0 0 0 0 0 0 0 0 0 0 0 0 0 0 0 0 0 0 0 0 0 0 0 0 0 0 0 0 0
3.03095 7.95135e-13 7.94568e-13 5.67283e-16 0.000713442 0.00143607 0 0 0 0 0 0 0 0 0 0 0 0 0 0 0 0 0 0 0 0 0 0 0 0 0 0 0 0 0 0 0 0 0 0 0 0 0 0 0 0 0 0
3.18653 7.47903e-13 7.47435e-13 4.67859e-16 0.000625561 0.00131432 0 0 0 0 0 0 0 0 0 0 0 0 0 0 0 0 0 0 0 0 0 0 0 0 0 0 0 0 0 0 0 0 0 0 0 0 0 0 0 0 0 0
3.35009 6.93377e-13 6.92992e-13 3.85498e-16 0.000555971 0.00121182 0 0 0 0 0 0 0 0 0 0 0 0 0 0 0 0 0 0 0 0 0 0 0 0 0 0 0 0 0 0 0 0 0 0 0 0 0 0 0 0 0 0
3.52205 6.53078e-13 6.52761e-13 3.16987e-16 0.000485374 0.001106 0 0 0 0 0 0 0 0 0 0 0 0 0 0 0 0 0 0 0 0 0 0 0 0 0 0 0 0 0 0 0 0 0 0 0 0 0 0 0 0 0 0
3.70284 6.12547e-13 6.12286e-13 2.61177e-16 0.000426378 0.00101345 0 0 0 0 0 0 0 0 0 0 0 0 0 0 0 0 0 0 0 0 0 0 0 0 0 0 0 0 0 0 0 0 0 0 0 0 0 0 0 0 0 0
3.89291 5.71972e-13 5.71757e-13 2.15324e-16 0.000376458 0.000931537 0 0 0 0 0 0 0 0 0 0 0 0 0 0 0 0 0 0 0 0 0 0 0 0 0 0 0 0 0 0 0 0 0 0 0 0 0 0 0 0 0 0
4.09273 5.36647e-13 5.36469e-13 1.77391e-16 0.000330555 0.000853599 0 0 0 0 0 0 0 0 0 0 0 0 0 0 0 0 0 0 0 0 0 0 0 0 0 0 0 0 0 0 0 0 0 0 1.4013e-45 0 2.8026e-45 0 5.60519e-45 0 1.54143e-44 0
4.30281 5.03466e-13 5.0332e-13 1.45822e-16 0.000289636 0.000780855 0 0 0 0 0 0 0 0 0 0 0 0 0 0 0 0 0 0 0 0 0 0 0 0 0 0 0 0 2.8026e-45 0 8.40779e-45 0 2.8026e-44 0 8.54792e-44 0 2.43826e-43 0 6.16571e-43 0 1.53442e-42 0
4.52368 4.70236e-13 4.70116e-13 1.19882e-16 0.000254941 0.00071613 0 0 0 0 0 0 0 0 0 0 0 0 0 0 0 0 0 0 0 0 0 0 2.8026e-45 0 1.68156e-44 0 7.00649e-44 0 2.64845e-43 0 8.75812e-43 0 2.64565e-42 0 7.5502e-42 0 2.04183e-41 0 4.93972e-41 0 1.17526e-40 0
4.75588 4.40664e-13 4.40566e-13 9.86594e-17 0.000223888 0.000656217 0 0 0 0 0 0 0 0 0 0 0 0 0 0 0 0 1.4013e-45 0 9.80909e-45 0 6.44597e-44 0 3.40516e-43 0 1.55544e-42 0 6.12648e-42 0 2.17748e-41 0 6.81073e-41 0 1.94886e-40 0 5.28396e-40 0 1.36123e-39 0 3.15419e-39 0 7.19346e-39 0
5 4.10169e-13 4.10088e-13 8.11272e-17 0.00019779 0.000603155 0 0 0 0 0 0 0 0 0 0 0 0 0 0 1.12104e-44 0 1.13505e-43 0 8.87022e-43 0 5.51831e-42 0 2.71558e-41 0 1.14974e-40 0 4.23705e-40 0 1.41542e-39 0 4.18736e-39 0 1.13825e-38 0 2.93946e-38 0 7.23058e-38 0 1.6081e-37 0 3.52274e-37 0
5.25665 3.85264e-13 3.85197e-13 6.65217e-17 0.000172665 0.000550232 0 0 0 0 0 0 0 0 0 0 2.8026e-45 0 6.72623e-44 0 9.90718e-43 0 9.50641e-42 0 6.69162e-41 0 3.81068e-40 0 1.73472e-39 0 6.84471e-39 0 2.36682e-38 0 7.45439e-38 0 2.09155e-37 0 5.41455e-37 0 1.33498e-36 0 3.14264e-36 0 6.72179e-36 0 1.41718e-35 0
5.52648 3.64474e-13 3.64419e-13 5.4525e-17 0.000149599 0.00049984 0 0 0 0 0 0 0 0 4.2039e-45 0 2.45227e-43 0 5.71309e-42 0 7.3798e-41 0 6.34067e-40 0 4.05732e-39 0 2.12241e-38 0 8.97262e-38 0 3.31084e-37 0 1.07756e-36 0 3.20895e-36 0 8.56137e-36 0 2.11577e-35 0 4.99167e-35 0 1.12697e-34 0 2.32263e-34 0 4.72177e-34 0
5.81015 3.53114e-13 3.5307e-13 4.45808e-17 0.00012625 0.000447216 0 0 0 0 0 0 2.8026e-45 0 4.68034e-43 0 1.97219e-41 0 3.94087e-40 0 4.49302e-39 0 3.47555e-38 0 2.03129e-37 0 9.80114e-37 0 3.86188e-36 0 1.33701e-35 0 4.10785e-35 0 1.15984e-34 0 2.94964e-34 0 6.97445e-34 0 1.57793e-33 0 3.42362e-33 0 6.81115e-33 0 1.33752e-32 0
6.10839 3.49763e-13 3.49726e-13 3.67724e-17 0.000105135 0.000398007 0 0 0 0 0 0 2.9147e-43 0 3.67617e-41 0 1.29135e-39 0 2.22943e-38 0 2.25703e-37 0 1.57995e-36 0 8.47139e-36 0 3.7852e-35 0 1.39487e-34 0 4.54504e-34 0 1.32196e-33 0 3.54806e-33 0 8.62127e-33 0 1.95463e-32 0 4.24942e-32 0 8.87777e-32 0 1.70786e-31 0 3.24507e-31 0
6.42193 3.34313e-13 3.34282e-13 3.0755e-17 9.19946e-05 0.000365151 0 0 0 0 2.24208e-44 0 2.23045e-41 0 2.22493e-39 0 6.5689e-38 0 9.86825e-37 0 8.92272e-36 0 5.67992e-35 0 2.80573e-34 0 1.1653e-33 0 4.02928e-33 0 1.23932e-32 0 3.42156e-32 0 8.75111e-32 0 2.03619e-31 0 4.43563e-31 0 9.28439e-31 0 1.87114e-30 0 3.48643e-30 0 6.4201e-30 0
6.75157 3.15171e-13 3.15146e-13 2.5395e-17 8.05753e-05 0.000334405 0 0 0 0 1.9408e-42 0 1.34478e-39 0 1.07146e-37 0 2.68146e-36 0 3.52911e-35 0 2.86572e-34 0 1.6666e-33 0 7.61493e-33 0 2.95029e-32 0 9.60173e-32 0 2.79564e-31 0 7.34496e-31 0 1.79438e-30 0 4.00649e-30 0 8.40217e-30 0 1.6964e-29 0 3.30385e-29 0 5.97172e-29 0 1.06737e-28 0
7.09813 3.04826e-13 3.04805e-13 2.09977e-17 6.88841e-05 0.000301329 0 0 1.4013e-45 0 1.33184e-40 0 6.7072e-38 0 4.31554e-36 0 9.22904e-35 0 1.07103e-33 0 7.85167e-33 0 4.19014e-32 0 1.77766e-31 0 6.44657e-31 0 1.98058e-30 0 5.47347e-30 0 1.37179e-29 0 3.2083e-29 0 6.88796e-29 0 1.3932e-28 0 2.71802e-28 0 5.12402e-28 0 8.99786e-28 0 1.56329e-27 0
7.46248 2.89279e-13 2.89261e-13 1.7494e-17 6.04745e-05 0.000276076 0 0 1.00893e-43 0 7.19632e-39 0 2.6747e-36 0 1.40434e-34 0 2.58613e-33 0 2.66266e-32 0 1.77107e-31 0 8.70953e-31 0 3.44327e-30 0 1.17256e-29 0 3.41034e-29 0 8.9684e-29 0 2.14911e-28 0 4.82203e-28 0 9.97345e-28 0 1.9491e-27 0 3.68045e-27 0 6.72689e-27 0 1.14922e-26 0 1.94353e-26 0
7.84553 2.69402e-13 2.69387e-13 1.45068e-17 5.38481e-05 0.000255507 0 0 7.52077e-42 0 3.09444e-37 0 8.61512e-35 0 3.72795e-33 0 5.95496e-32 0 5.47144e-31 0 3.31774e-30 0 1.50948e-29 0 5.58028e-29 0 1.78994e-28 0 4.94155e-28 0 1.23959e-27 0 2.84637e-27 0 6.1394e-27 0 1.22555e-26 0 2.318e-26 0 4.24328e-26 0 7.53057e-26 0 1.25332e-25 0 2.06589e-25 0
8.24824 2.49608e-13 2.49596e-13 1.2049e-17 4.82714e-05 0.000237586 4.2039e-45 0 4.42808e-40 0 1.08457e-35 0 2.29392e-33 0 8.25849e-32 0 1.15227e-30 0 9.50053e-30 0 5.27561e-29 0 2.22911e-28 0 7.73102e-28 0 2.34264e-27 0 6.15457e-27 0 1.47608e-26 0 3.2546e-26 0 6.76136e-26 0 1.30492e-25 0 2.39249e-25 0 4.25224e-25 0 7.33805e-25 0 1.19128e-24 0 1.91629e-24 0
8.67162 2.29147e-13 2.29137e-13 9.96482e-18 4.34867e-05 0.000222013 3.97969e-43 0 2.0837e-38 0 3.11592e-34 0 5.07429e-32 0 1.5336e-30 0 1.88139e-29 0 1.39939e-28 0 7.14684e-28 0 2.8146e-27 0 9.18652e-27 0 2.63701e-26 0 6.60881e-26 0 1.51876e-25 0 3.22188e-25 0 6.45865e-25 0 1.20712e-24 0 2.14863e-24 0 3.71309e-24 0 6.2392e-24 0 9.89206e-24 0 1.55474e-23 0
9.11674 2.08872e-13 2.08864e-13 8.21343e-18 3.93227e-05 0.000208254 2.57447e-41 0 7.93563e-37 0 7.42173e-33 0 9.42552e-31 0 2.41194e-29 0 2.61803e-28 0 1.76558e-27 0 8.32695e-27 0 3.06707e-26 0 9.44878e-26 0 2.57619e-25 0 6.17315e-25 0 1.36216e-24 0 2.7855e-24 0 5.39745e-24 0 9.78442e-24 0 1.69325e-23 0 2.84902e-23 0 4.66751e-23 0 7.23553e-23 0 1.11238e-22 0
9.5847 1.90072e-13 1.90065e-13 6.7529e-18 3.55282e-05 0.000195277 1.33481e-39 0 2.48399e-35 0 1.48661e-31 0 1.49032e-29 0 3.25532e-28 0 3.14514e-27 0 1.93233e-26 0 8.44875e-26 0 2.92e-25 0 8.51487e-25 0 2.21061e-24 0 5.07588e-24 0 1.07758e-23 0 2.12793e-23 0 3.99224e-23 0 7.0299e-23 0 1.18442e-22 0 1.94289e-22 0 3.1072e-22 0 4.71476e-22 0 7.09777e-22 0
10.0767 1.74538e-13 1.74532e-13 5.53547e-18 3.1715e-05 0.000181428 5.6632e-38 0 6.52117e-34 0 2.55248e-30 0 2.04336e-28 0 3.83944e-27 0 3.32062e-26 0 1.8671e-25 0 7.59618e-25 0 2.4711e-24 0 6.83898e-24 0 1.69471e-23 0 3.73654e-23 0 7.64623e-23 0 1.46058e-22 0 2.65732e-22 0 4.55175e-22 0 7.47609e-22 0 1.19707e-21 0 1.87105e-21 0 2.78186e-21 0 4.1051e-21 0
