# 3.1623e-05 1 118 : grain size, compostion index, size index
# Heating and cooling timescale: 0.0063466 4.4747e+06
# Ratio of heating to cooling to determine stochastic cutoff: 100
# Equilibrium emission is recorded even for those grains in the stochastic regime.
# Emission spectrum was computed for: 
# Type: IRSF
# Scales: 0.25 0.5 1 1.5 2 2.5 3 3.5 4 4.5 5 5.5 6 6.5 7 7.5 8 8.5 9 9.5 10
# StochasticallyHeated: 0 0 0 0 0 0 0 0 0 0 0 0 0 0 0 0 0 0 0 0 0
# Temperature: -1
# Wavelength  CExt  CAbs  CSca  Albedo G EqEm1 StEm1 EqEm2 StEm2 EqEm3 StEm3 EqEm4 StEm4 EqEm5 StEm5 EqEm6 StEm6 EqEm7 StEm7 EqEm8 StEm8 EqEm9 StEm9 EqEm10 StEm10 EqEm11 StEm11 EqEm12 StEm12 EqEm13 StEm13 EqEm14 StEm14 EqEm15 StEm15 EqEm16 StEm16 EqEm17 StEm17 EqEm18 StEm18 EqEm19 StEm19 EqEm20 StEm20 EqEm21 StEm21
0.05 1.78933e-09 7.96923e-10 9.92404e-10 0.554624 0.213722 0 0 0 0 0 0 0 0 0 0 0 0 0 0 0 0 0 0 0 0 0 0 0 0 0 0 0 0 0 0 0 0 0 0 0 0 0 0 0 0 0 0
0.0525665 1.97773e-09 8.80835e-10 1.0969e-09 0.554624 0.236226 0 0 0 0 0 0 0 0 0 0 0 0 0 0 0 0 0 0 0 0 0 0 0 0 0 0 0 0 0 0 0 0 0 0 0 0 0 0 0 0 0 0
0.0552647 2.18598e-09 9.73583e-10 1.2124e-09 0.554624 0.261099 0 0 0 0 0 0 0 0 0 0 0 0 0 0 0 0 0 0 0 0 0 0 0 0 0 0 0 0 0 0 0 0 0 0 0 0 0 0 0 0 0 0
0.0581015 2.41615e-09 1.0761e-09 1.34006e-09 0.554624 0.288591 0 0 0 0 0 0 0 0 0 0 0 0 0 0 0 0 0 0 0 0 0 0 0 0 0 0 0 0 0 0 0 0 0 0 0 0 0 0 0 0 0 0
0.0610839 2.67056e-09 1.1894e-09 1.48116e-09 0.554624 0.318979 0 0 0 0 0 0 0 0 0 0 0 0 0 0 0 0 0 0 0 0 0 0 0 0 0 0 0 0 0 0 0 0 0 0 0 0 0 0 0 0 0 0
0.0642193 2.95176e-09 1.31464e-09 1.63712e-09 0.554624 0.352566 0 0 0 0 0 0 0 0 0 0 0 0 0 0 0 0 0 0 0 0 0 0 0 0 0 0 0 0 0 0 0 0 0 0 0 0 0 0 0 0 0 0
0.0675157 3.26257e-09 1.45307e-09 1.8095e-09 0.554624 0.389689 0 0 0 0 0 0 0 0 0 0 0 0 0 0 0 0 0 0 0 0 0 0 0 0 0 0 0 0 0 0 0 0 0 0 0 0 0 0 0 0 0 0
0.0709813 3.6061e-09 1.60607e-09 2.00003e-09 0.554624 0.430721 0 0 0 0 0 0 0 0 0 0 0 0 0 0 0 0 0 0 0 0 0 0 0 0 0 0 0 0 0 0 0 0 0 0 0 0 0 0 0 0 0 0
0.0746248 3.9858e-09 1.77518e-09 2.21062e-09 0.554624 0.476074 0 0 0 0 0 0 0 0 0 0 0 0 0 0 0 0 0 0 0 0 0 0 0 0 0 0 0 0 0 0 0 0 0 0 0 0 0 0 0 0 0 0
0.0784553 4.40549e-09 1.9621e-09 2.44339e-09 0.554624 0.526202 0 0 0 0 0 0 0 0 0 0 0 0 0 0 0 0 0 0 0 0 0 0 0 0 0 0 0 0 0 0 0 0 0 0 0 0 0 0 0 0 0 0
0.0824824 4.86936e-09 2.1687e-09 2.70067e-09 0.554624 0.581609 0 0 0 0 0 0 0 0 0 0 0 0 0 0 0 0 0 0 0 0 0 0 0 0 0 0 0 0 0 0 0 0 0 0 0 0 0 0 0 0 0 0
0.0867162 5.38209e-09 2.39705e-09 2.98503e-09 0.554624 0.64285 0 0 0 0 0 0 0 0 0 0 0 0 0 0 0 0 0 0 0 0 0 0 0 0 0 0 0 0 0 0 0 0 0 0 0 0 0 0 0 0 0 0
0.0911674 5.94879e-09 2.64945e-09 3.29934e-09 0.554624 0.710539 0 0 0 0 0 0 0 0 0 0 0 0 0 0 0 0 0 0 0 0 0 0 0 0 0 0 0 0 0 0 0 0 0 0 0 0 0 0 0 0 0 0
0.095847 6.57517e-09 2.92842e-09 3.64675e-09 0.554624 0.785355 0 0 0 0 0 0 0 0 0 0 0 0 0 0 0 0 0 0 0 0 0 0 0 0 0 0 0 0 0 0 0 0 0 0 0 0 0 0 0 0 0 0
0.100767 7.16304e-09 3.19204e-09 3.971e-09 0.554374 0.854814 0 0 0 0 0 0 0 0 0 0 0 0 0 0 0 0 0 0 0 0 0 0 0 0 0 0 0 0 0 0 0 0 0 0 0 0 0 0 0 0 0 0
0.105939 7.20221e-09 3.22099e-09 3.98122e-09 0.552778 0.857639 0 0 0 0 0 0 0 0 0 0 0 0 0 0 0 0 0 0 0 0 0 0 0 0 0 0 0 0 0 0 0 0 0 0 0 0 0 0 0 0 0 0
0.111377 7.23862e-09 3.25142e-09 3.9872e-09 0.550823 0.861505 0 0 0 0 0 0 0 0 0 0 0 0 0 0 0 0 0 0 0 0 0 0 0 0 0 0 0 0 0 0 0 0 0 0 0 0 0 0 0 0 0 0
0.117094 7.27455e-09 3.28155e-09 3.993e-09 0.548901 0.863668 0 0 0 0 0 0 0 0 0 0 0 0 0 0 0 0 0 0 0 0 0 0 0 0 0 0 0 0 0 0 0 0 0 0 0 0 0 0 0 0 0 0
0.123105 7.30847e-09 3.31494e-09 3.99353e-09 0.546425 0.864683 0 0 0 0 0 0 0 0 0 0 0 0 0 0 0 0 0 0 0 0 0 0 0 0 0 0 0 0 0 0 0 0 0 0 0 0 0 0 0 0 0 0
0.129424 7.34055e-09 3.35112e-09 3.98943e-09 0.543479 0.86468 0 0 0 0 0 0 0 0 0 0 0 0 0 0 0 0 0 0 0 0 0 0 0 0 0 0 0 0 0 0 0 0 0 0 0 0 0 0 0 0 0 0
0.136067 7.37425e-09 3.38257e-09 3.99168e-09 0.5413 0.863473 0 0 0 0 0 0 0 0 0 0 0 0 0 0 0 0 0 0 0 0 0 0 0 0 0 0 0 0 0 0 0 0 0 0 0 0 0 0 0 0 0 0
0.143051 7.40709e-09 3.422e-09 3.98508e-09 0.53801 0.860257 0 0 0 0 0 0 0 0 0 0 0 0 0 0 0 0 0 0 0 0 0 0 0 0 0 0 0 0 0 0 0 0 0 0 0 0 0 0 0 0 0 0
0.150394 7.44154e-09 3.47478e-09 3.96676e-09 0.533056 0.860191 0 0 0 0 0 0 0 0 0 0 0 0 0 0 0 0 0 0 0 0 0 0 0 0 0 0 0 0 0 0 0 0 0 0 0 0 0 0 0 0 0 0
0.158114 7.48602e-09 3.54077e-09 3.94525e-09 0.527015 0.865047 0 0 0 0 0 0 0 0 0 0 0 0 0 0 0 0 0 0 0 0 0 0 0 0 0 0 0 0 0 0 0 0 0 0 0 0 0 0 0 0 0 0
0.16623 7.5349e-09 3.60645e-09 3.92845e-09 0.521367 0.87111 0 0 0 0 0 0 0 0 0 0 0 0 0 0 0 0 0 0 0 0 0 0 0 0 0 0 0 0 0 0 0 0 0 0 0 0 0 0 0 0 0 0
0.174762 7.47288e-09 3.63516e-09 3.83772e-09 0.513552 0.875625 0 0 0 0 0 0 0 0 0 0 0 0 0 0 0 0 0 0 0 0 0 0 0 0 0 0 0 0 0 0 0 0 0 0 0 0 0 0 0 0 0 0
0.183733 7.70966e-09 3.58928e-09 4.12037e-09 0.534443 0.867577 0 0 0 0 0 0 0 0 0 0 0 0 0 0 0 0 0 0 0 0 0 0 0 0 0 0 0 0 0 0 0 0 0 0 0 0 0 0 0 0 0 0
0.193164 7.94831e-09 3.47175e-09 4.47656e-09 0.563209 0.855239 0 0 0 0 0 0 0 0 0 0 0 0 0 0 0 0 0 0 0 0 0 0 0 0 0 0 0 0 0 0 0 0 0 0 0 0 0 0 0 0 0 0
0.203079 7.67487e-09 3.46337e-09 4.2115e-09 0.548739 0.834069 0 0 0 0 0 0 0 0 0 0 0 0 0 0 0 0 0 0 0 0 0 0 0 0 0 0 0 0 0 0 0 0 0 0 0 0 0 0 0 0 0 0
0.213503 7.55932e-09 3.47229e-09 4.08703e-09 0.540661 0.77012 0 0 0 0 0 0 0 0 0 0 0 0 0 0 0 0 0 0 0 0 0 0 0 0 0 0 0 0 0 0 0 0 0 0 0 0 0 0 0 0 0 0
0.224463 7.74073e-09 3.46852e-09 4.27221e-09 0.551913 0.703185 0 0 0 0 0 0 0 0 0 0 0 0 0 0 0 0 0 0 0 0 0 0 0 0 0 0 0 0 0 0 0 0 0 0 0 0 0 0 0 0 0 0
0.235984 8.00341e-09 3.4741e-09 4.52932e-09 0.565923 0.742639 0 0 0 0 0 0 0 0 0 0 0 0 0 0 0 0 0 0 0 0 0 0 0 0 0 0 0 0 0 0 0 0 0 0 0 0 0 0 0 0 0 0
0.248097 8.12636e-09 3.44519e-09 4.68117e-09 0.576048 0.777266 0 0 0 0 0 0 0 0 0 0 0 0 0 0 0 0 0 0 0 0 0 0 0 0 0 0 0 0 0 0 0 0 0 0 0 0 0 0 0 0 0 0
0.260832 8.08818e-09 3.4187e-09 4.66949e-09 0.577322 0.813897 0 0 0 0 0 0 0 0 0 0 0 0 0 0 0 0 0 0 0 0 0 0 0 0 0 0 0 0 0 0 0 0 0 0 0 0 0 0 0 0 0 0
0.274221 7.95165e-09 3.4028e-09 4.54885e-09 0.572064 0.816537 0 0 0 0 0 0 0 0 0 0 0 0 0 0 0 0 0 0 0 0 0 0 0 0 0 0 0 0 0 0 0 0 0 0 0 0 0 0 0 0 0 0
0.288297 7.75604e-09 3.35635e-09 4.3997e-09 0.56726 0.798822 0 0 0 0 0 0 0 0 0 0 0 0 0 0 0 0 0 0 0 0 0 0 0 0 0 0 0 0 0 0 0 0 0 0 0 0 0 0 0 0 0 0
0.303095 7.69644e-09 3.31929e-09 4.37714e-09 0.568723 0.758977 0 0 0 0 0 0 0 0 0 0 0 0 0 0 0 0 0 0 0 0 0 0 0 0 0 0 0 0 0 0 0 0 0 0 0 0 0 0 0 0 0 0
0.318653 7.66835e-09 3.24436e-09 4.42399e-09 0.576916 0.696482 0 0 0 0 0 0 0 0 0 0 0 0 0 0 0 0 0 0 0 0 0 0 0 0 0 0 0 0 0 0 0 0 0 0 0 0 0 0 0 0 0 0
0.335009 7.91779e-09 3.21324e-09 4.70455e-09 0.594175 0.623106 0 0 0 0 0 0 0 0 0 0 0 0 0 0 0 0 0 0 0 0 0 0 0 0 0 0 0 0 0 0 0 0 0 0 0 0 0 0 0 0 0 0
0.352205 8.19014e-09 3.15975e-09 5.03039e-09 0.614201 0.52327 0 0 0 0 0 0 0 0 0 0 0 0 0 0 0 0 0 0 0 0 0 0 0 0 0 0 0 0 0 0 0 0 0 0 0 0 0 0 0 0 0 0
0.370284 8.65843e-09 3.06041e-09 5.59802e-09 0.64654 0.499198 0 0 0 0 0 0 0 0 0 0 0 0 0 0 0 0 0 0 0 0 0 0 0 0 0 0 0 0 0 0 0 0 0 0 0 0 0 0 0 0 0 0
0.389291 9.23224e-09 3.01487e-09 6.21736e-09 0.673441 0.442157 0 0 0 0 0 0 0 0 0 0 0 0 0 0 0 0 0 0 0 0 0 0 0 0 0 0 0 0 0 0 0 0 0 0 0 0 0 0 0 0 0 0
0.409273 9.71063e-09 2.94032e-09 6.77032e-09 0.697206 0.498412 0 0 0 0 0 0 0 0 0 0 0 0 0 0 0 0 0 0 0 0 0 0 0 0 0 0 0 0 0 0 0 0 0 0 0 0 0 0 0 0 0 0
0.430281 1.0311e-08 2.86794e-09 7.44302e-09 0.721855 0.536357 0 0 0 0 0 0 0 0 0 0 0 0 0 0 0 0 0 0 0 0 0 0 0 0 0 0 0 0 0 0 0 0 0 0 0 0 0 0 0 0 0 0
0.452368 1.08703e-08 2.80101e-09 8.06932e-09 0.742325 0.544331 0 0 0 0 0 0 0 0 0 0 0 0 0 0 0 0 0 0 0 0 0 0 0 0 0 0 0 0 0 0 0 0 0 0 0 0 0 0 0 0 0 0
0.475588 1.12907e-08 2.72127e-09 8.56944e-09 0.758981 0.61157 0 0 0 0 0 0 0 0 0 0 0 0 0 0 0 0 0 0 0 0 0 0 0 0 0 0 0 0 0 0 0 0 0 0 0 0 0 0 0 0 0 0
0.5 1.16141e-08 2.63346e-09 8.98067e-09 0.773254 0.636369 0 0 0 0 0 0 0 0 0 0 0 0 0 0 0 0 0 0 0 0 0 0 0 0 0 0 0 0 0 0 0 0 0 0 0 0 0 0 0 0 0 0
0.525665 1.18216e-08 2.52966e-09 9.29192e-09 0.786013 0.626662 0 0 0 0 0 0 0 0 0 0 0 0 0 0 0 0 0 0 0 0 0 0 0 0 0 0 0 0 0 0 0 0 0 0 0 0 0 0 0 0 0 0
0.552648 1.19472e-08 2.44402e-09 9.50322e-09 0.795432 0.652893 0 0 0 0 0 0 0 0 0 0 0 0 0 0 0 0 0 0 0 0 0 0 0 0 0 0 0 0 0 0 0 0 0 0 0 0 0 0 0 0 0 0
0.581015 1.20268e-08 2.40818e-09 9.61858e-09 0.799765 0.689534 0 0 0 0 0 0 0 0 0 0 0 0 0 0 0 0 0 0 0 0 0 0 0 0 0 0 0 0 0 0 0 0 0 0 0 0 0 0 0 0 0 0
0.610839 1.19182e-08 2.35149e-09 9.56673e-09 0.802698 0.695926 0 0 0 0 0 0 0 0 0 0 0 0 0 0 0 0 0 0 0 0 0 0 0 0 0 0 0 0 0 0 0 0 0 0 0 0 0 0 0 0 0 0
0.642193 1.15859e-08 2.22386e-09 9.36204e-09 0.808054 0.676651 0 0 0 0 0 0 0 0 0 0 0 0 0 0 0 0 0 0 0 0 0 0 0 0 0 0 0 0 0 0 0 0 0 0 0 0 0 0 0 0 0 0
0.675157 1.11977e-08 2.07684e-09 9.12081e-09 0.814529 0.658116 0 0 0 0 0 0 0 0 0 0 0 0 0 0 0 0 0 0 0 0 0 0 0 0 0 0 0 0 0 0 0 0 0 0 0 0 0 0 0 0 0 0
0.709813 1.08849e-08 1.98245e-09 8.90242e-09 0.817871 0.666276 0 0 0 0 0 0 0 0 0 0 0 0 0 0 0 0 0 0 0 0 0 0 0 0 0 0 0 0 0 0 0 0 0 0 0 0 0 0 0 0 0 0
0.746248 1.05609e-08 1.94268e-09 8.61818e-09 0.816049 0.684358 0 0 0 0 0 0 0 0 0 0 0 0 0 0 0 0 0 0 0 0 0 0 0 0 0 0 0 0 0 0 0 0 0 0 0 0 0 0 0 0 0 0
0.784553 1.00588e-08 1.89965e-09 8.15911e-09 0.811145 0.694474 0 0 0 0 0 0 0 0 0 0 0 0 0 0 0 0 0 0 0 0 0 0 0 0 0 0 0 0 0 0 0 0 0 0 0 0 0 0 0 0 0 0
0.824824 9.35907e-09 1.80638e-09 7.55269e-09 0.806992 0.686485 0 0 0 0 0 0 0 0 0 0 0 0 0 0 0 0 0 0 0 0 0 0 0 0 0 0 0 0 0 0 0 0 0 0 0 0 0 0 0 0 0 0
0.867162 8.61861e-09 1.67468e-09 6.94392e-09 0.80569 0.657447 0 0 0 0 0 0 0 0 0 0 0 0 0 0 0 0 0 0 0 0 0 0 0 0 0 0 0 0 0 0 0 0 0 0 0 0 0 0 0 0 0 0
0.911674 7.98167e-09 1.55159e-09 6.43007e-09 0.805605 0.61924 0 0 0 0 0 0 0 0 0 0 0 0 0 0 0 0 0 0 0 0 0 0 0 0 0 0 0 0 0 0 0 0 0 0 0 0 0 0 0 0 0 0
0.95847 7.46129e-09 1.46371e-09 5.99758e-09 0.803826 0.588383 0 0 0 0 0 0 0 0 0 0 0 0 0 0 0 0 0 0 0 0 0 0 0 0 0 0 0 0 0 0 0 0 0 0 0 0 0 0 0 0 0 0
1.00767 6.97071e-09 1.40482e-09 5.56589e-09 0.798468 0.57236 0 0 0 0 0 0 0 0 0 0 0 0 0 0 0 0 0 0 0 0 0 0 0 0 0 0 0 0 0 0 0 0 0 0 0 0 0 0 0 0 0 0
1.05939 6.44955e-09 1.38054e-09 5.06901e-09 0.785948 0.57116 0 0 0 0 0 0 0 0 0 0 0 0 0 0 0 0 0 0 0 0 0 0 0 0 0 0 0 0 0 0 0 0 0 0 0 0 0 0 0 0 0 0
1.11377 5.87935e-09 1.3504e-09 4.52894e-09 0.770314 0.580332 0 0 0 0 0 0 0 0 0 0 0 0 0 0 0 0 0 0 0 0 0 0 0 0 0 0 0 0 0 0 0 0 0 0 0 0 0 0 0 0 0 0
1.17094 5.28674e-09 1.30547e-09 3.98127e-09 0.753067 0.591491 0 0 0 0 0 0 0 0 0 0 0 0 0 0 0 0 0 0 0 0 0 0 0 0 0 0 0 0 0 0 0 0 0 0 0 0 0 0 0 0 0 0
1.23105 4.7058e-09 1.24471e-09 3.46109e-09 0.735495 0.593301 0 0 0 0 0 0 0 0 0 0 0 0 0 0 0 0 0 0 0 0 0 0 0 0 0 0 0 0 0 0 0 0 0 0 0 0 0 0 0 0 0 0
1.29424 4.17625e-09 1.17368e-09 3.00257e-09 0.718963 0.576726 0 0 0 0 0 0 0 0 0 0 0 0 0 0 0 0 0 0 0 0 0 0 0 0 0 0 0 0 0 0 0 0 0 0 0 0 0 0 0 0 0 0
1.36067 3.72714e-09 1.10329e-09 2.62385e-09 0.703986 0.541096 0 0 0 0 0 0 0 0 0 0 0 0 0 0 0 0 0 0 0 0 0 0 0 0 0 0 0 0 0 0 0 0 0 0 0 0 0 0 0 0 0 0
1.43051 3.2988e-09 1.03077e-09 2.26804e-09 0.687533 0.492676 0 0 0 0 0 0 0 0 0 0 0 0 0 0 0 0 0 0 0 0 0 0 0 0 0 0 0 0 0 0 0 0 0 0 0 0 0 0 0 0 0 0
1.50394 2.94101e-09 9.68619e-10 1.97239e-09 0.670651 0.439949 0 0 0 0 0 0 0 0 0 0 0 0 0 0 0 0 0 0 0 0 0 0 0 0 0 0 0 0 0 0 0 0 0 0 0 0 0 0 0 0 0 0
1.58114 2.62826e-09 9.15118e-10 1.71314e-09 0.651816 0.389156 0 0 0 0 0 0 0 0 0 0 0 0 0 0 0 0 0 0 0 0 0 0 0 0 0 0 0 0 0 0 0 0 0 0 0 0 0 0 0 0 0 0
1.6623 2.34976e-09 8.69266e-10 1.4805e-09 0.630062 0.343179 0 0 0 0 0 0 0 0 0 0 0 0 0 0 0 0 0 0 0 0 0 0 0 0 0 0 0 0 0 0 0 0 0 0 0 0 0 0 0 0 0 0
1.74763 2.10135e-09 8.30353e-10 1.271e-09 0.604848 0.302923 0 0 0 0 0 0 0 0 0 0 0 0 0 0 0 0 0 0 0 0 0 0 0 0 0 0 0 0 0 0 0 0 0 0 0 0 0 0 0 0 0 0
1.83733 1.88105e-09 7.98141e-10 1.08291e-09 0.575693 0.268115 0 0 0 0 0 0 0 0 0 0 0 0 0 0 0 0 0 0 0 0 0 0 0 0 0 0 0 0 0 0 0 0 0 0 0 0 0 0 0 0 0 0
1.93164 1.68794e-09 7.72104e-10 9.15833e-10 0.542575 0.238186 0 0 0 0 0 0 0 0 0 0 0 0 0 0 0 0 0 0 0 0 0 0 0 0 0 0 0 0 0 0 0 0 0 0 0 0 0 0 0 0 0 0
2.03079 1.5219e-09 7.51735e-10 7.70164e-10 0.506055 0.212314 0 0 0 0 0 0 0 0 0 0 0 0 0 0 0 0 0 0 0 0 0 0 0 0 0 0 0 0 0 0 0 0 0 0 0 0 0 0 0 0 0 0
2.13503 1.38034e-09 7.35592e-10 6.44752e-10 0.467095 0.189792 0 0 0 0 0 0 0 0 0 0 0 0 0 0 0 0 0 0 0 0 0 0 0 0 0 0 0 0 0 0 0 0 0 0 0 0 0 0 0 0 0 0
2.24463 1.25905e-09 7.2114e-10 5.37914e-10 0.427236 0.170078 0 0 0 0 0 0 0 0 0 0 0 0 0 0 0 0 0 0 0 0 0 0 0 0 0 0 0 0 0 0 0 0 0 0 0 0 0 0 0 0 0 0
2.35984 1.15499e-09 7.07602e-10 4.4739e-10 0.387353 0.152769 0 0 0 0 0 0 0 0 0 0 0 0 0 0 0 0 0 0 0 0 0 0 0 0 0 0 0 0 0 0 0 0 0 0 0 0 0 0 0 0 0 0
2.48097 1.06689e-09 6.95807e-10 3.7108e-10 0.347816 0.137437 0 0 0 0 0 0 0 0 0 0 0 0 0 0 0 0 0 0 0 0 0 0 0 0 0 0 0 0 0 0 0 0 0 0 0 0 0 0 0 0 0 0
2.60832 9.93088e-10 6.85882e-10 3.07206e-10 0.309344 0.123807 0 0 0 0 0 0 0 0 0 0 0 0 0 0 0 0 0 0 0 0 0 0 0 0 0 0 0 0 0 0 0 0 0 0 0 0 0 0 0 0 0 0
2.74221 9.32634e-10 6.78625e-10 2.5401e-10 0.272357 0.111644 0 0 0 0 0 0 0 0 0 0 0 0 0 0 0 0 0 0 0 0 0 0 0 0 0 0 0 0 0 0 0 0 0 0 0 0 0 0 0 0 0 0
2.88297 8.84218e-10 6.74172e-10 2.10046e-10 0.23755 0.100746 0 0 0 0 0 0 0 0 0 0 0 0 0 0 0 0 0 0 0 0 0 0 0 0 0 0 0 0 0 0 0 0 0 0 0 0 0 0 0 0 0 0
3.03095 8.46612e-10 6.72423e-10 1.7419e-10 0.205749 0.0909676 0 0 0 0 0 0 0 0 0 0 0 0 0 0 0 0 0 0 0 0 0 0 0 0 0 0 0 0 0 0 0 0 0 0 0 0 0 0 0 0 0 0
3.18653 8.10104e-10 6.65374e-10 1.44729e-10 0.178655 0.0821656 0 0 0 0 0 0 0 0 0 0 0 0 0 0 0 0 0 0 0 0 0 0 0 0 0 0 0 0 0 0 0 0 0 0 0 0 0 0 0 0 0 0
3.35009 7.89298e-10 6.70861e-10 1.18436e-10 0.150053 0.0742237 0 0 0 0 0 0 0 0 0 0 0 0 0 0 0 0 0 0 0 0 0 0 0 0 0 0 0 0 0 0 0 0 0 0 0 0 0 0 0 0 0 0
3.52205 7.67079e-10 6.63344e-10 1.03735e-10 0.135234 0.0670523 0 0 0 0 0 0 0 0 0 0 0 0 0 0 0 0 0 0 0 0 0 0 0 0 0 0 0 0 0 0 0 0 0 0 0 0 0 0 0 0 0 0
3.70284 6.95914e-10 6.11368e-10 8.45459e-11 0.121489 0.0605759 0 0 0 0 0 0 0 0 0 0 0 0 0 0 0 0 0 0 0 0 0 0 0 0 0 0 0 0 0 0 0 0 0 0 0 0 0 0 0 0 0 0
3.89291 6.60723e-10 5.91406e-10 6.93168e-11 0.104911 0.0547107 0 0 0 0 0 0 0 0 0 0 0 0 0 0 0 0 0 0 0 0 0 0 0 0 0 0 0 0 0 0 0 0 0 0 0 0 0 0 0 0 0 0
4.09273 6.31784e-10 5.74933e-10 5.68511e-11 0.089985 0.0493922 0 0 0 0 0 0 0 0 0 0 0 0 0 0 0 0 0 0 0 0 0 0 0 0 0 0 0 0 0 0 0 0 0 0 0 0 0 0 0 0 0 0
4.30281 6.08456e-10 5.61823e-10 4.6633e-11 0.0766416 0.0445709 0 0 0 0 0 0 0 0 0 0 0 0 0 0 0 0 0 0 0 0 0 0 0 0 0 0 0 0 0 0 0 0 0 0 0 0 0 0 0 0 0 0
4.52368 5.90458e-10 5.52174e-10 3.82835e-11 0.0648371 0.0402049 0 0 0 0 0 0 0 0 0 0 0 0 0 0 0 0 0 0 0 0 0 0 0 0 0 0 0 0 0 0 0 0 0 0 0 0 0 0 0 0 0 0
4.75588 5.76608e-10 5.45129e-10 3.14797e-11 0.0545946 0.0362403 0 0 0 0 0 0 0 0 0 0 0 0 0 0 0 0 0 0 0 0 0 0 0 0 0 0 0 0 0 0 0 0 0 0 0 0 0 0 0 0 0 0
5 5.65081e-10 5.39144e-10 2.59371e-11 0.0458998 0.0326318 0 0 0 0 0 0 0 0 0 0 0 0 0 0 0 0 0 0 0 0 0 0 0 0 0 0 0 0 0 0 0 0 0 0 0 0 0 0 0 0 0 0
5.25665 5.54255e-10 5.32862e-10 2.13935e-11 0.0385987 0.0293491 0 0 0 0 0 0 0 0 0 0 0 0 0 0 0 0 0 0 0 0 0 0 0 0 0 0 0 0 0 0 0 0 0 0 0 0 0 0 0 0 0 0
5.52648 5.43897e-10 5.26252e-10 1.76446e-11 0.0324411 0.026374 0 0 0 0 0 0 0 0 0 0 0 0 0 0 0 0 0 0 0 0 0 0 0 0 0 0 0 0 0 0 0 0 0 0 0 0 0 0 0 0 0 0
5.81015 5.33472e-10 5.18936e-10 1.45359e-11 0.0272478 0.023659 0 0 0 0 0 0 0 0 0 0 0 0 0 0 0 0 0 0 0 0 0 0 0 0 0 0 0 0 0 0 0 0 0 0 0 0 0 0 0 0 0 0
6.10839 5.23393e-10 5.11443e-10 1.19493e-11 0.0228304 0.0211883 0 0 0 0 0 0 0 0 0 0 0 0 0 0 0 0 0 0 0 0 0 0 0 0 0 0 0 0 0 0 0 0 0 0 1.4013e-45 0 5.60519e-45 0 1.54143e-44 0 3.64338e-44 0
6.42193 5.13394e-10 5.03608e-10 9.78615e-12 0.0190617 0.0189314 0 0 0 0 0 0 0 0 0 0 0 0 0 0 0 0 0 0 0 0 0 0 0 0 0 0 2.8026e-45 0 1.12104e-44 0 3.36312e-44 0 1.05097e-43 0 2.98477e-43 0 7.88931e-43 0 1.9464e-42 0 4.60747e-42 0
6.75157 5.05249e-10 4.97299e-10 7.95017e-12 0.0157352 0.0168495 0 0 0 0 0 0 0 0 0 0 0 0 0 0 0 0 0 0 0 0 4.2039e-45 0 2.24208e-44 0 1.00893e-43 0 3.95166e-43 0 1.38588e-42 0 4.23753e-42 0 1.23188e-41 0 3.3285e-41 0 8.38999e-41 0 1.97966e-40 0 4.492e-40 0
7.09813 4.93336e-10 4.8688e-10 6.45583e-12 0.0130861 0.0148886 0 0 0 0 0 0 0 0 0 0 0 0 0 0 1.4013e-45 0 1.26117e-44 0 9.3887e-44 0 5.59118e-43 0 2.71432e-42 0 1.15663e-41 0 4.25757e-41 0 1.40249e-40 0 4.06035e-40 0 1.12047e-39 0 2.88404e-39 0 6.94891e-39 0 1.57233e-38 0 3.42782e-38 0
7.46248 4.83047e-10 4.77937e-10 5.11053e-12 0.0105798 0.0129824 0 0 0 0 0 0 0 0 0 0 0 0 1.12104e-44 0 1.59748e-43 0 1.52321e-42 0 1.07844e-41 0 5.85434e-41 0 2.62955e-40 0 1.04417e-39 0 3.60654e-39 0 1.12086e-38 0 3.08086e-38 0 8.09068e-38 0 1.98857e-37 0 4.58995e-37 0 9.97978e-37 0 2.09445e-36 0
7.84553 4.72415e-10 4.68554e-10 3.86088e-12 0.00817264 0.0111672 0 0 0 0 0 0 0 0 1.4013e-45 0 6.30584e-44 0 1.41531e-42 0 1.75555e-41 0 1.49576e-40 0 9.62852e-40 0 4.8128e-39 0 2.00884e-38 0 7.45752e-38 0 2.42456e-37 0 7.12932e-37 0 1.86522e-36 0 4.67273e-36 0 1.09915e-35 0 2.43551e-35 0 5.09838e-35 0 1.03196e-34 0
8.24824 5.21273e-10 5.18443e-10 2.8307e-12 0.00543035 0.00962031 0 0 0 0 0 0 1.4013e-45 0 1.97583e-43 0 8.08689e-42 0 1.55475e-40 0 1.70489e-39 0 1.30832e-38 0 7.69001e-38 0 3.55341e-37 0 1.38323e-36 0 4.8165e-36 0 1.47833e-35 0 4.12397e-35 0 1.02945e-34 0 2.46588e-34 0 5.56315e-34 0 1.18572e-33 0 2.39421e-33 0 4.6821e-33 0
8.67162 6.28643e-10 6.26194e-10 2.44884e-12 0.00389544 0.00838026 0 0 0 0 0 0 2.22806e-43 0 2.58287e-41 0 8.83849e-40 0 1.47096e-38 0 1.435e-37 0 9.96923e-37 0 5.37426e-36 0 2.30454e-35 0 8.39489e-35 0 2.7504e-34 0 7.992e-34 0 2.12055e-33 0 5.0622e-33 0 1.16194e-32 0 2.51931e-32 0 5.17484e-32 0 1.00966e-31 0 1.91088e-31 0
9.11674 8.59094e-10 8.56185e-10 2.90986e-12 0.00338712 0.00715181 0 0 0 0 3.64338e-44 0 3.27708e-41 0 3.01052e-39 0 8.66986e-38 0 1.25779e-36 0 1.0979e-35 0 6.93858e-35 0 3.44513e-34 0 1.37594e-33 0 4.70566e-33 0 1.45492e-32 0 4.0131e-32 0 1.01527e-31 0 2.32286e-31 0 5.11976e-31 0 1.0689e-30 0 2.11977e-30 0 4.00309e-30 0 7.34388e-30 0
9.5847 1.05127e-09 1.04722e-09 4.05652e-12 0.00385867 0.00637765 0 0 0 0 5.27589e-42 0 3.38785e-39 0 2.49591e-37 0 6.10022e-36 0 7.76655e-35 0 6.09876e-34 0 3.52254e-33 0 1.61738e-32 0 6.03732e-32 0 1.94443e-31 0 5.68951e-31 0 1.49349e-30 0 3.61096e-30 0 7.93441e-30 0 1.68261e-29 0 3.38893e-29 0 6.49976e-29 0 1.18993e-28 0 2.11927e-28 0
10.0767 1.02501e-09 1.02051e-09 4.49511e-12 0.00438544 0.00603329 0 0 4.2039e-45 0 4.73996e-40 0 2.21963e-37 0 1.32561e-35 0 2.77178e-34 0 3.11671e-33 0 2.21316e-32 0 1.17339e-31 0 5.00124e-31 0 1.75058e-30 0 5.32511e-30 0 1.47859e-29 0 3.70263e-29 0 8.57453e-29 0 1.81305e-28 0 3.70629e-28 0 7.21393e-28 0 1.34029e-27 0 2.38232e-27 0 4.12502e-27 0
10.5939 8.76227e-10 8.72221e-10 4.00608e-12 0.00457197 0.00591375 0 0 4.90454e-43 0 2.95806e-38 0 1.02595e-35 0 5.01815e-34 0 9.0453e-33 0 9.03753e-32 0 5.83177e-31 0 2.8501e-30 0 1.13176e-29 0 3.72643e-29 0 1.07362e-28 0 2.83606e-28 0 6.79069e-28 0 1.50941e-27 0 3.07702e-27 0 6.07433e-27 0 1.14448e-26 0 2.063e-26 0 3.56539e-26 0 6.01023e-26 0
11.1377 7.3312e-10 7.29748e-10 3.37261e-12 0.00460034 0.00605109 0 0 4.10524e-41 0 1.44773e-36 0 3.77388e-34 0 1.52659e-32 0 2.38937e-31 0 2.13356e-30 0 1.25696e-29 0 5.68508e-29 0 2.11053e-28 0 6.55634e-28 0 1.79383e-27 0 4.51907e-27 0 1.03689e-26 0 2.21662e-26 0 4.36426e-26 0 8.33409e-26 0 1.52243e-25 0 2.66645e-25 0 4.48683e-25 0 7.37313e-25 0
11.7094 5.88228e-10 5.85591e-10 2.63696e-12 0.0044829 0.00609153 3.36312e-44 0 2.60216e-39 0 5.50375e-35 0 1.09344e-32 0 3.69209e-31 0 5.05256e-30 0 4.05424e-29 0 2.19038e-28 0 9.20315e-28 0 3.20464e-27 0 9.41919e-27 0 2.45354e-26 0 5.90837e-26 0 1.3018e-25 0 2.68158e-25 0 5.10793e-25 0 9.45094e-25 0 1.6764e-24 0 2.85687e-24 0 4.68665e-24 0 7.51696e-24 0
12.3105 4.71133e-10 4.6917e-10 1.96258e-12 0.00416566 0.00606847 2.92171e-42 0 1.31428e-37 0 1.70935e-33 0 2.6228e-31 0 7.45787e-30 0 8.9821e-29 0 6.51058e-28 0 3.23937e-27 0 1.26894e-26 0 4.15745e-26 0 1.15931e-25 0 2.88191e-25 0 6.64845e-25 0 1.40943e-24 0 2.80265e-24 0 5.17321e-24 0 9.28845e-24 0 1.60212e-23 0 2.66013e-23 0 4.2597e-23 0 6.67638e-23 0
12.9424 4.26144e-10 4.2472e-10 1.42421e-12 0.0033421 0.00581404 2.27022e-40 0 6.0521e-36 0 4.95657e-32 0 5.94824e-30 0 1.43633e-28 0 1.53197e-27 0 1.00807e-26 0 4.63779e-26 0 1.69957e-25 0 5.25488e-25 0 1.39377e-24 0 3.31407e-24 0 7.33967e-24 0 1.49992e-23 0 2.88415e-23 0 5.16669e-23 0 9.0154e-23 0 1.51418e-22 0 2.45264e-22 0 3.83819e-22 0 5.88519e-22 0
