# 0.0005 0 97 : grain size, compostion index, size index
# Heating and cooling timescale: 1.26865e-05 6.12572e+11
# Ratio of heating to cooling to determine stochastic cutoff: 100
# Equilibrium emission is recorded even for those grains in the stochastic regime.
# Emission spectrum was computed for: 
# Type: ISRF
# Scales: 0.25 0.5 1 1.5 2 2.5 3 3.5 4 4.5 5 5.5 6 6.5 7 7.5 8 8.5 9 9.5 10
# StochasticallyHeated: 0 0 0 0 0 0 0 0 0 0 0 0 0 0 0 0 0 0 0 0 0
# Temperature: -1
# Wavelength  CExt  CAbs  CSca  Albedo G EqEm1 StEm1 EqEm2 StEm2 EqEm3 StEm3 EqEm4 StEm4 EqEm5 StEm5 EqEm6 StEm6 EqEm7 StEm7 EqEm8 StEm8 EqEm9 StEm9 EqEm10 StEm10 EqEm11 StEm11 EqEm12 StEm12 EqEm13 StEm13 EqEm14 StEm14 EqEm15 StEm15 EqEm16 StEm16 EqEm17 StEm17 EqEm18 StEm18 EqEm19 StEm19 EqEm20 StEm20 EqEm21 StEm21
0.05 6.99122e-05 6.59734e-07 6.92525e-05 0.990563 0 0 0 0 0 0 0 0 0 0 0 0 0 0 0 0 0 0 0 0 0 0 0 0 0 0 0 0 0 0 0 0 0 0 0 0 0 0 0 0 0 0 0
0.0525665 4.91303e-05 6.59734e-07 4.84706e-05 0.986572 0 0 0 0 0 0 0 0 0 0 0 0 0 0 0 0 0 0 0 0 0 0 0 0 0 0 0 0 0 0 0 0 0 0 0 0 0 0 0 0 0 0 0
0.0552647 3.85043e-05 6.59734e-07 3.78446e-05 0.982866 0 0 0 0 0 0 0 0 0 0 0 0 0 0 0 0 0 0 0 0 0 0 0 0 0 0 0 0 0 0 0 0 0 0 0 0 0 0 0 0 0 0 0
0.0581015 3.07718e-05 6.59734e-07 3.0112e-05 0.97856 0 0 0 0 0 0 0 0 0 0 0 0 0 0 0 0 0 0 0 0 0 0 0 0 0 0 0 0 0 0 0 0 0 0 0 0 0 0 0 0 0 0 0
0.0610839 2.49661e-05 6.59734e-07 2.43064e-05 0.973575 0 0 0 0 0 0 0 0 0 0 0 0 0 0 0 0 0 0 0 0 0 0 0 0 0 0 0 0 0 0 0 0 0 0 0 0 0 0 0 0 0 0 0
0.0642193 1.98697e-05 6.59734e-07 1.921e-05 0.966797 0 0 0 0 0 0 0 0 0 0 0 0 0 0 0 0 0 0 0 0 0 0 0 0 0 0 0 0 0 0 0 0 0 0 0 0 0 0 0 0 0 0 0
0.0675157 1.67347e-05 6.59734e-07 1.60749e-05 0.960577 0 0 0 0 0 0 0 0 0 0 0 0 0 0 0 0 0 0 0 0 0 0 0 0 0 0 0 0 0 0 0 0 0 0 0 0 0 0 0 0 0 0 0
0.0709813 1.40731e-05 6.59734e-07 1.34134e-05 0.953121 0 0 0 0 0 0 0 0 0 0 0 0 0 0 0 0 0 0 0 0 0 0 0 0 0 0 0 0 0 0 0 0 0 0 0 0 0 0 0 0 0 0 0
0.0746248 1.2525e-05 6.59734e-07 1.18652e-05 0.947326 0.00440237 0 0 0 0 0 0 0 0 0 0 0 0 0 0 0 0 0 0 0 0 0 0 0 0 0 0 0 0 0 0 0 0 0 0 0 0 0 0 0 0 0 0
0.0784553 1.10869e-05 6.59734e-07 1.04272e-05 0.940494 0.0408331 0 0 0 0 0 0 0 0 0 0 0 0 0 0 0 0 0 0 0 0 0 0 0 0 0 0 0 0 0 0 0 0 0 0 0 0 0 0 0 0 0 0
0.0824824 1.02439e-05 6.59734e-07 9.58412e-06 0.935597 0.0800651 0 0 0 0 0 0 0 0 0 0 0 0 0 0 0 0 0 0 0 0 0 0 0 0 0 0 0 0 0 0 0 0 0 0 0 0 0 0 0 0 0 0
0.0867162 9.92403e-06 6.59734e-07 9.2643e-06 0.933522 0.108828 0 0 0 0 0 0 0 0 0 0 0 0 0 0 0 0 0 0 0 0 0 0 0 0 0 0 0 0 0 0 0 0 0 0 0 0 0 0 0 0 0 0
0.0911674 1.0095e-05 6.59734e-07 9.43522e-06 0.934647 0.144684 0 0 0 0 0 0 0 0 0 0 0 0 0 0 0 0 0 0 0 0 0 0 0 0 0 0 0 0 0 0 0 0 0 0 0 0 0 0 0 0 0 0
0.095847 9.79009e-06 6.59734e-07 9.13036e-06 0.932612 0.199099 0 0 0 0 0 0 0 0 0 0 0 0 0 0 0 0 0 0 0 0 0 0 0 0 0 0 0 0 0 0 0 0 0 0 0 0 0 0 0 0 0 0
0.100767 1.00943e-05 6.59734e-07 9.43458e-06 0.934643 0.232419 0 0 0 0 0 0 0 0 0 0 0 0 0 0 0 0 0 0 0 0 0 0 0 0 0 0 0 0 0 0 0 0 0 0 0 0 0 0 0 0 0 0
0.105939 1.08854e-05 6.59734e-07 1.02256e-05 0.939392 0.257384 0 0 0 0 0 0 0 0 0 0 0 0 0 0 0 0 0 0 0 0 0 0 0 0 0 0 0 0 0 0 0 0 0 0 0 0 0 0 0 0 0 0
0.111377 1.02841e-05 6.59734e-07 9.62441e-06 0.935849 0.318857 0 0 0 0 0 0 0 0 0 0 0 0 0 0 0 0 0 0 0 0 0 0 0 0 0 0 0 0 0 0 0 0 0 0 0 0 0 0 0 0 0 0
0.117094 1.06713e-05 6.59734e-07 1.00116e-05 0.938177 0.368438 0 0 0 0 0 0 0 0 0 0 0 0 0 0 0 0 0 0 0 0 0 0 0 0 0 0 0 0 0 0 0 0 0 0 0 0 0 0 0 0 0 0
0.123105 1.24599e-05 6.59734e-07 1.18002e-05 0.947051 0.30531 0 0 0 0 0 0 0 0 0 0 0 0 0 0 0 0 0 0 0 0 0 0 0 0 0 0 0 0 0 0 0 0 0 0 0 0 0 0 0 0 0 0
0.129424 9.67216e-06 6.59734e-07 9.01242e-06 0.93179 0.431639 0 0 0 0 0 0 0 0 0 0 0 0 0 0 0 0 0 0 0 0 0 0 0 0 0 0 0 0 0 0 0 0 0 0 0 0 0 0 0 0 0 0
0.136067 8.34325e-06 6.59734e-07 7.68351e-06 0.920926 0.480082 0 0 0 0 0 0 0 0 0 0 0 0 0 0 0 0 0 0 0 0 0 0 0 0 0 0 0 0 0 0 0 0 0 0 0 0 0 0 0 0 0 0
0.143051 6.74304e-06 6.59734e-07 6.0833e-06 0.902161 0.505869 0 0 0 0 0 0 0 0 0 0 0 0 0 0 0 0 0 0 0 0 0 0 0 0 0 0 0 0 0 0 0 0 0 0 0 0 0 0 0 0 0 0
0.150394 5.80823e-06 6.59734e-07 5.1485e-06 0.886414 0.584287 0 0 0 0 0 0 0 0 0 0 0 0 0 0 0 0 0 0 0 0 0 0 0 0 0 0 0 0 0 0 0 0 0 0 0 0 0 0 0 0 0 0
0.158114 5.3771e-06 6.59734e-07 4.71736e-06 0.877307 0.555609 0 0 0 0 0 0 0 0 0 0 0 0 0 0 0 0 0 0 0 0 0 0 0 0 0 0 0 0 0 0 0 0 0 0 0 0 0 0 0 0 0 0
0.16623 5.16172e-06 6.59734e-07 4.50198e-06 0.872187 0.562194 0 0 0 0 0 0 0 0 0 0 0 0 0 0 0 0 0 0 0 0 0 0 0 0 0 0 0 0 0 0 0 0 0 0 0 0 0 0 0 0 0 0
0.174762 6.04734e-06 6.59734e-07 5.3876e-06 0.890905 0.442897 0 0 0 0 0 0 0 0 0 0 0 0 0 0 0 0 0 0 0 0 0 0 0 0 0 0 0 0 0 0 0 0 0 0 0 0 0 0 0 0 0 0
0.183733 4.58286e-06 6.59734e-07 3.92312e-06 0.856043 0.570099 0 0 0 0 0 0 0 0 0 0 0 0 0 0 0 0 0 0 0 0 0 0 0 0 0 0 0 0 0 0 0 0 0 0 0 0 0 0 0 0 0 0
0.193164 3.8645e-06 6.59734e-07 3.20477e-06 0.829283 0.655929 0 0 0 0 0 0 0 0 0 0 0 0 0 0 0 0 0 0 0 0 0 0 0 0 0 0 0 0 0 0 0 0 0 0 0 0 0 0 0 0 0 0
0.203079 3.84429e-06 6.59734e-07 3.18456e-06 0.828386 0.639078 0 0 0 0 0 0 0 0 0 0 0 0 0 0 0 0 0 0 0 0 0 0 0 0 0 0 0 0 0 0 0 0 0 0 0 0 0 0 0 0 0 0
0.213503 3.44036e-06 6.59734e-07 2.78063e-06 0.808237 0.668047 0 0 0 0 0 0 0 0 0 0 0 0 0 0 0 0 0 0 0 0 0 0 0 0 0 0 0 0 0 0 0 0 0 0 0 0 0 0 0 0 0 0
0.224463 3.30711e-06 6.59734e-07 2.64738e-06 0.80051 0.645616 0 0 0 0 0 0 0 0 0 0 0 0 0 0 0 0 0 0 0 0 0 0 0 0 0 0 0 0 0 0 0 0 0 0 0 0 0 0 0 0 0 0
0.235984 2.50784e-06 6.59734e-07 1.8481e-06 0.736931 0.776403 0 0 0 0 0 0 0 0 0 0 0 0 0 0 0 0 0 0 0 0 0 0 0 0 0 0 0 0 0 0 0 0 0 0 0 0 0 0 0 0 0 0
0.248097 2.19426e-06 6.59734e-07 1.53452e-06 0.699336 0.804371 0 0 0 0 0 0 0 0 0 0 0 0 0 0 0 0 0 0 0 0 0 0 0 0 0 0 0 0 0 0 0 0 0 0 0 0 0 0 0 0 0 0
0.260832 1.9332e-06 6.59734e-07 1.27347e-06 0.658735 0.834175 0 0 0 0 0 0 0 0 0 0 0 0 0 0 0 0 0 0 0 0 0 0 0 0 0 0 0 0 0 0 0 0 0 0 0 0 0 0 0 0 0 0
0.274221 1.66731e-06 6.59734e-07 1.00757e-06 0.604312 0.863911 0 0 0 0 0 0 0 0 0 0 0 0 0 0 0 0 0 0 0 0 0 0 0 0 0 0 0 0 0 0 0 0 0 0 0 0 0 0 0 0 0 0
0.288297 1.63437e-06 6.59734e-07 9.74634e-07 0.596337 0.877489 0 0 0 0 0 0 0 0 0 0 0 0 0 0 0 0 0 0 0 0 0 0 0 0 0 0 0 0 0 0 0 0 0 0 0 0 0 0 0 0 0 0
0.303095 1.64228e-06 6.70672e-07 9.71608e-07 0.591622 0.880423 0 0 0 0 0 0 0 0 0 0 0 0 0 0 0 0 0 0 0 0 0 0 0 0 0 0 0 0 0 0 0 0 0 0 0 0 0 0 0 0 0 0
0.318653 1.64493e-06 6.72387e-07 9.72548e-07 0.591238 0.879477 0 0 0 0 0 0 0 0 0 0 0 0 0 0 0 0 0 0 0 0 0 0 0 0 0 0 0 0 0 0 0 0 0 0 0 0 0 0 0 0 0 0
0.335009 1.64772e-06 6.73935e-07 9.73789e-07 0.59099 0.878416 0 0 0 0 0 0 0 0 0 0 0 0 0 0 0 0 0 0 0 0 0 0 0 0 0 0 0 0 0 0 0 0 0 0 0 0 0 0 0 0 0 0
0.352205 1.65052e-06 6.7536e-07 9.75158e-07 0.59082 0.877269 0 0 0 0 0 0 0 0 0 0 0 0 0 0 0 0 0 0 0 0 0 0 0 0 0 0 0 0 0 0 0 0 0 0 0 0 0 0 0 0 0 0
0.370284 1.65339e-06 6.7671e-07 9.76685e-07 0.590715 0.87606 0 0 0 0 0 0 0 0 0 0 0 0 0 0 0 0 0 0 0 0 0 0 0 0 0 0 0 0 0 0 0 0 0 0 0 0 0 0 0 0 0 0
0.389291 1.65635e-06 6.78011e-07 9.78342e-07 0.59066 0.874792 0 0 0 0 0 0 0 0 0 0 0 0 0 0 0 0 0 0 0 0 0 0 0 0 0 0 0 0 0 0 0 0 0 0 0 0 0 0 0 0 0 0
0.409273 1.6594e-06 6.79292e-07 9.80109e-07 0.59064 0.873474 0 0 0 0 0 0 0 0 0 0 0 0 0 0 0 0 0 0 0 0 0 0 0 0 0 0 0 0 0 0 0 0 0 0 0 0 0 0 0 0 0 0
0.430281 1.6625e-06 6.80563e-07 9.8194e-07 0.59064 0.872115 0 0 0 0 0 0 0 0 0 0 0 0 0 0 0 0 0 0 0 0 0 0 0 0 0 0 0 0 0 0 0 0 0 0 0 0 0 0 0 0 0 0
0.452368 1.66571e-06 6.8184e-07 9.83871e-07 0.590661 0.870707 0 0 0 0 0 0 0 0 0 0 0 0 0 0 0 0 0 0 0 0 0 0 0 0 0 0 0 0 0 0 0 0 0 0 0 0 0 0 0 0 0 0
0.475588 1.66901e-06 6.83134e-07 9.85876e-07 0.590695 0.869273 0 0 0 0 0 0 0 0 0 0 0 0 0 0 0 0 0 0 0 0 0 0 0 0 0 0 0 0 0 0 0 0 0 0 0 0 0 0 0 0 0 0
0.5 1.67241e-06 6.84446e-07 9.87968e-07 0.590744 0.867808 0 0 0 0 0 0 0 0 0 0 0 0 0 0 0 0 0 0 0 0 0 0 0 0 0 0 0 0 0 0 0 0 0 0 0 0 0 0 0 0 0 0
0.525665 1.67585e-06 6.8579e-07 9.90063e-07 0.590781 0.866313 0 0 0 0 0 0 0 0 0 0 0 0 0 0 0 0 0 0 0 0 0 0 0 0 0 0 0 0 0 0 0 0 0 0 0 0 0 0 0 0 0 0
0.552648 1.67941e-06 6.87175e-07 9.92234e-07 0.590823 0.864794 0 0 0 0 0 0 0 0 0 0 0 0 0 0 0 0 0 0 0 0 0 0 0 0 0 0 0 0 0 0 0 0 0 0 0 0 0 0 0 0 0 0
0.581015 1.68309e-06 6.88603e-07 9.94484e-07 0.590869 0.863247 0 0 0 0 0 0 0 0 0 0 0 0 0 0 0 0 0 0 0 0 0 0 0 0 0 0 0 0 0 0 0 0 0 0 0 0 0 0 0 0 0 0
0.610839 1.68682e-06 6.90088e-07 9.96734e-07 0.590895 0.861671 0 0 0 0 0 0 0 0 0 0 0 0 0 0 0 0 0 0 0 0 0 0 0 0 0 0 0 0 0 0 0 0 0 0 0 0 0 0 0 0 0 0
0.642193 1.69068e-06 6.91622e-07 9.99063e-07 0.590922 0.86008 0 0 0 0 0 0 0 0 0 0 0 0 0 0 0 0 0 0 0 0 0 0 0 0 0 0 0 0 0 0 0 0 0 0 0 0 0 0 0 0 0 0
0.675157 1.69464e-06 6.93217e-07 1.00143e-06 0.590937 0.858468 0 0 0 0 0 0 0 0 0 0 0 0 0 0 0 0 0 0 0 0 0 0 0 0 0 0 0 0 0 0 0 0 0 0 0 0 0 0 0 0 0 0
0.709813 1.69872e-06 6.94882e-07 1.00384e-06 0.590939 0.856834 0 0 0 0 0 0 0 0 0 0 0 0 0 0 0 0 0 0 0 0 0 0 0 0 0 0 0 0 0 0 0 0 0 0 0 0 0 0 0 0 0 0
0.746248 1.70287e-06 6.96616e-07 1.00625e-06 0.590916 0.855175 0 0 0 0 0 0 0 0 0 0 0 0 0 0 0 0 0 0 0 0 0 0 0 0 0 0 0 0 0 0 0 0 0 0 0 0 0 0 0 0 0 0
0.784553 1.70716e-06 6.98417e-07 1.00875e-06 0.59089 0.853506 0 0 0 0 0 0 0 0 0 0 0 0 0 0 0 0 0 0 0 0 0 0 0 0 0 0 0 0 0 0 0 0 0 0 0 0 0 0 0 0 0 0
0.824824 1.71154e-06 7.003e-07 1.01124e-06 0.590835 0.851809 0 0 0 0 0 0 0 0 0 0 0 0 0 0 0 0 0 0 0 0 0 0 0 0 0 0 0 0 0 0 0 0 0 0 0 0 0 0 0 0 0 0
0.867162 1.71606e-06 7.02264e-07 1.01379e-06 0.590769 0.850101 0 0 0 0 0 0 0 0 0 0 0 0 0 0 0 0 0 0 0 0 0 0 0 0 0 0 0 0 0 0 0 0 0 0 0 0 0 0 0 0 0 0
0.911674 1.72061e-06 7.04312e-07 1.0163e-06 0.590662 0.84837 0 0 0 0 0 0 0 0 0 0 0 0 0 0 0 0 0 0 0 0 0 0 0 0 0 0 0 0 0 0 0 0 0 0 0 0 0 0 0 0 0 0
0.95847 1.72539e-06 7.06449e-07 1.01895e-06 0.590558 0.84661 0 0 0 0 0 0 0 0 0 0 0 0 0 0 0 0 0 0 0 0 0 0 0 0 0 0 0 0 0 0 0 0 0 0 0 0 0 0 0 0 0 0
1.00767 1.7302e-06 7.08679e-07 1.02152e-06 0.590407 0.844846 0 0 0 0 0 0 0 0 0 0 0 0 0 0 0 0 0 0 0 0 0 0 0 0 0 0 0 0 0 0 0 0 0 0 0 0 0 0 0 0 0 0
1.05939 1.73518e-06 7.11004e-07 1.02417e-06 0.590242 0.843047 0 0 0 0 0 0 0 0 0 0 0 0 0 0 0 0 0 0 0 0 0 0 0 0 0 0 0 0 0 0 0 0 0 0 0 0 0 0 0 0 0 0
1.11377 1.74027e-06 7.13428e-07 1.02684e-06 0.590047 0.841234 0 0 0 0 0 0 0 0 0 0 0 0 0 0 0 0 0 0 0 0 0 0 0 0 0 0 0 0 0 0 0 0 0 0 0 0 0 0 0 0 0 0
1.17094 1.74552e-06 7.15962e-07 1.02956e-06 0.58983 0.839398 0 0 0 0 0 0 0 0 0 0 0 0 0 0 0 0 0 0 0 0 0 0 0 0 0 0 0 0 0 0 0 0 0 0 0 0 0 0 0 0 0 0
1.23105 1.75089e-06 7.18596e-07 1.03229e-06 0.589583 0.837541 0 0 0 0 0 0 0 0 0 0 0 0 0 0 0 0 0 0 0 0 0 0 0 0 0 0 0 0 0 0 0 0 0 0 0 0 0 0 0 0 0 0
1.29424 1.75637e-06 7.21346e-07 1.03503e-06 0.589298 0.835653 0 0 0 0 0 0 0 0 0 0 0 0 0 0 0 0 0 0 0 0 0 0 0 0 0 0 0 0 0 0 0 0 0 0 0 0 0 0 0 0 0 0
1.36067 1.76197e-06 7.24208e-07 1.03776e-06 0.588978 0.833743 0 0 0 0 0 0 0 0 0 0 0 0 0 0 0 0 0 0 0 0 0 0 0 0 0 0 0 0 0 0 0 0 0 0 0 0 0 0 0 0 0 0
1.43051 1.76776e-06 7.27186e-07 1.04057e-06 0.588639 0.831804 0 0 0 0 0 0 0 0 0 0 0 0 0 0 0 0 0 0 0 0 0 0 0 0 0 0 0 0 0 0 0 0 0 0 0 0 0 0 0 0 0 0
1.50394 1.77364e-06 7.3029e-07 1.04335e-06 0.588254 0.829837 0 0 0 0 0 0 0 0 0 0 0 0 0 0 0 0 0 0 0 0 0 0 0 0 0 0 0 0 0 0 0 0 0 0 0 0 0 0 0 0 0 0
1.58114 1.77969e-06 7.33523e-07 1.04617e-06 0.587837 0.827834 0 0 0 0 0 0 0 0 0 0 0 0 0 0 0 0 0 0 0 0 0 0 0 0 0 0 0 0 0 0 0 0 0 0 0 0 0 0 0 0 0 0
1.6623 1.78587e-06 7.36883e-07 1.04899e-06 0.587381 0.825799 0 0 0 0 0 0 0 0 0 0 0 0 0 0 0 0 0 0 0 0 0 0 0 0 0 0 0 0 0 0 0 0 0 0 0 0 0 0 0 0 0 0
1.74763 1.79226e-06 7.40381e-07 1.05188e-06 0.586902 0.823724 0 0 0 0 0 0 0 0 0 0 0 0 0 0 0 0 0 0 0 0 0 0 0 0 0 0 0 0 0 0 0 0 0 0 0 0 0 0 0 0 0 0
1.83733 1.79872e-06 7.44021e-07 1.0547e-06 0.586361 0.821614 0 0 0 0 0 0 0 0 0 0 0 0 0 0 0 0 0 0 0 0 0 0 0 0 0 0 0 0 0 0 0 0 0 0 0 0 0 0 0 0 0 0
1.93164 1.80549e-06 7.47814e-07 1.05768e-06 0.585811 0.819465 0 0 0 0 0 0 0 0 0 0 0 0 0 0 0 0 0 0 0 0 0 0 0 0 0 0 0 0 0 0 0 0 0 0 0 0 0 0 0 0 0 0
2.03079 1.813e-06 7.51708e-07 1.06129e-06 0.585378 0.817301 0 0 0 0 0 0 0 0 0 0 0 0 0 0 0 0 0 0 0 0 0 0 0 0 0 0 0 0 0 0 0 0 0 0 0 0 0 0 0 0 0 0
2.13503 1.76947e-06 7.08331e-07 1.06114e-06 0.599693 0.783118 0 0 0 0 0 0 0 0 0 0 0 0 0 0 0 0 0 0 0 0 0 0 0 0 0 0 0 0 0 0 0 0 0 0 0 0 0 0 0 0 0 0
2.24463 1.90051e-06 7.07089e-07 1.19342e-06 0.627947 0.710168 0 0 0 0 0 0 0 0 0 0 0 0 0 0 0 0 0 0 0 0 0 0 0 0 0 0 0 0 0 0 0 0 0 0 0 0 0 0 0 0 0 0
2.35984 8.81176e-06 6.59734e-07 8.15203e-06 0.92513 0.248049 0 0 0 0 0 0 0 0 0 0 0 0 0 0 0 0 0 0 0 0 0 0 0 0 0 0 0 0 0 0 0 0 0 0 0 0 0 0 0 0 0 0
2.48097 2.45483e-06 6.59734e-07 1.79509e-06 0.73125 0.759904 0 0 0 0 0 0 0 0 0 0 0 0 0 0 0 0 0 0 0 0 0 0 0 0 0 0 0 0 0 0 0 0 0 0 0 0 0 0 0 0 0 0
2.60832 2.48754e-06 6.59734e-07 1.82781e-06 0.734785 0.748953 0 0 0 0 0 0 0 0 0 0 0 0 0 0 0 0 0 0 0 0 0 0 0 0 0 0 0 0 0 0 0 0 0 0 0 0 0 0 0 0 0 0
2.74221 2.42229e-06 6.59734e-07 1.76256e-06 0.72764 0.732046 0 0 0 0 0 0 0 0 0 0 0 0 0 0 0 0 0 0 0 0 0 0 0 0 0 0 0 0 0 0 0 0 0 0 0 0 0 0 0 0 0 0
2.88297 2.26802e-06 6.59734e-07 1.60829e-06 0.709114 0.697841 0 0 0 0 0 0 0 0 0 0 0 0 0 0 0 0 0 0 0 0 0 0 0 0 0 0 0 0 0 0 0 0 0 0 0 0 0 0 0 0 0 0
3.03095 1.65223e-06 2.15863e-07 1.43637e-06 0.869351 0.65441 0 0 0 0 0 0 0 0 0 0 0 0 0 0 0 0 0 0 0 0 0 0 0 0 0 0 0 0 0 0 0 0 0 0 0 0 0 0 0 0 0 0
3.18653 1.55843e-06 2.43929e-07 1.3145e-06 0.843477 0.661381 0 0 0 0 0 0 0 0 0 0 0 0 0 0 0 0 0 0 0 0 0 0 0 0 0 0 0 0 0 0 0 0 0 0 0 0 0 0 0 0 0 0
3.35009 1.76779e-06 5.04833e-07 1.26296e-06 0.714427 0.752154 0 0 0 0 0 0 0 0 0 0 0 0 0 0 0 0 0 0 0 0 0 0 0 0 0 0 0 0 0 0 0 0 0 0 0 0 0 0 0 0 0 0
3.52205 1.80908e-06 5.2559e-07 1.28349e-06 0.709471 0.741362 0 0 0 0 0 0 0 0 0 0 0 0 0 0 0 0 0 0 0 0 0 0 0 0 0 0 0 0 0 0 0 0 0 0 0 0 0 0 0 0 0 0
3.70284 2.02834e-06 2.60022e-07 1.76831e-06 0.871805 0.733336 0 0 0 0 0 0 0 0 0 0 0 0 0 0 0 0 0 0 0 0 0 0 0 0 0 0 0 0 0 0 0 0 0 0 0 0 0 0 0 0 0 0
3.89291 2.22294e-06 1.87917e-07 2.03502e-06 0.915465 0.780952 0 0 0 0 0 0 0 0 0 0 0 0 0 0 0 0 0 0 0 0 0 0 0 0 0 0 0 0 0 0 0 0 0 0 0 0 0 0 0 0 0 0
4.09273 2.40776e-06 2.22943e-07 2.18482e-06 0.907407 0.763433 0 0 0 0 0 0 0 0 0 0 0 0 0 0 0 0 0 0 0 0 0 0 0 0 0 0 0 0 0 0 0 0 0 0 0 0 0 0 0 0 0 0
4.30281 2.27415e-06 1.97531e-07 2.07662e-06 0.913141 0.782821 0 0 0 0 0 0 0 0 0 0 0 0 0 0 0 0 0 0 0 0 0 0 0 0 0 0 0 0 0 0 0 0 0 0 0 0 0 0 0 0 0 0
4.52368 2.39268e-06 2.21912e-07 2.17077e-06 0.907254 0.707999 0 0 0 0 0 0 0 0 0 0 0 0 0 0 0 0 0 0 0 0 0 0 0 0 0 0 0 0 0 0 0 0 0 0 0 0 0 0 0 0 0 0
4.75588 1.94099e-06 2.06055e-07 1.73494e-06 0.89384 0.705151 0 0 0 0 0 0 0 0 0 0 0 0 0 0 0 0 0 0 0 0 0 0 0 0 0 0 0 0 0 0 0 0 0 0 0 0 0 0 0 0 0 0
5 1.92045e-06 2.02952e-07 1.7175e-06 0.894321 0.606896 0 0 0 0 0 0 0 0 0 0 0 0 0 0 0 0 0 0 0 0 0 0 0 0 0 0 0 0 0 0 0 0 0 0 0 0 0 0 0 0 0 0
5.25665 1.51463e-06 1.83632e-07 1.331e-06 0.878761 0.560663 0 0 0 0 0 0 0 0 0 0 0 0 0 0 0 0 0 0 0 0 0 0 0 0 0 0 0 0 0 0 0 0 0 0 0 0 0 0 0 0 0 0
5.52648 1.45503e-06 2.15768e-07 1.23926e-06 0.851709 0.412356 0 0 0 0 0 0 0 0 0 0 0 0 0 0 0 0 0 0 0 0 0 0 0 0 0 0 0 0 0 0 0 0 0 0 0 0 0 0 0 0 0 0
5.81015 1.50395e-06 1.59804e-07 1.34414e-06 0.893744 0.37429 0 0 0 0 0 0 0 0 0 0 0 0 0 0 0 0 0 0 0 0 0 0 0 0 0 0 0 0 0 0 0 0 0 0 0 0 1.4013e-45 0 4.2039e-45 0 1.12104e-44 0
6.10839 1.57126e-06 2.95406e-07 1.27585e-06 0.811994 0.348784 0 0 0 0 0 0 0 0 0 0 0 0 0 0 0 0 0 0 0 0 0 0 0 0 0 0 0 0 1.4013e-45 0 7.00649e-45 0 3.22299e-44 0 1.16308e-43 0 3.89561e-43 0 1.27098e-42 0 3.62656e-42 0
6.42193 1.62102e-06 1.6642e-07 1.4546e-06 0.897336 0.376704 0 0 0 0 0 0 0 0 0 0 0 0 0 0 0 0 0 0 0 0 0 0 1.4013e-45 0 7.00649e-45 0 3.64338e-44 0 1.79366e-43 0 7.84727e-43 0 3.11789e-42 0 1.06961e-41 0 3.37881e-41 0 1.04084e-40 0 2.82073e-40 0
6.75157 1.87807e-06 2.01464e-07 1.67661e-06 0.892728 0.433573 0 0 0 0 0 0 0 0 0 0 0 0 0 0 0 0 0 0 2.8026e-45 0 2.94273e-44 0 2.22806e-43 0 1.4069e-42 0 7.4451e-42 0 3.33957e-41 0 1.35832e-40 0 5.04109e-40 0 1.6286e-39 0 4.86362e-39 0 1.41816e-38 0 3.66068e-38 0
7.09813 2.12581e-06 3.4898e-07 1.77683e-06 0.835837 0.45799 0 0 0 0 0 0 0 0 0 0 0 0 0 0 4.2039e-45 0 7.56701e-44 0 9.20653e-43 0 8.38257e-42 0 5.83613e-41 0 3.37508e-40 0 1.64627e-39 0 6.86258e-39 0 2.60648e-38 0 9.07335e-38 0 2.76816e-37 0 7.8368e-37 0 2.16876e-36 0 5.34493e-36 0
7.46248 2.17655e-06 1.7377e-07 2.00278e-06 0.920162 0.519832 0 0 0 0 0 0 0 0 0 0 0 0 1.4013e-44 0 3.68541e-43 0 6.07183e-42 0 6.58036e-41 0 5.37538e-40 0 3.40409e-39 0 1.80697e-38 0 8.15766e-38 0 3.17162e-37 0 1.12863e-36 0 3.69672e-36 0 1.06804e-35 0 2.87389e-35 0 7.56762e-35 0 1.78469e-34 0
7.84553 2.6313e-06 1.45414e-07 2.48589e-06 0.944737 0.566356 0 0 0 0 0 0 0 0 0 0 4.06377e-44 0 1.88755e-42 0 4.41913e-41 0 6.34624e-40 0 6.12276e-39 0 4.51412e-38 0 2.61233e-37 0 1.27815e-36 0 5.36089e-36 0 1.95056e-35 0 6.52401e-35 0 2.01661e-34 0 5.5322e-34 0 1.41837e-33 0 3.56246e-33 0 8.0568e-33 0
8.24824 3.03577e-06 1.99777e-07 2.836e-06 0.934192 0.566512 0 0 0 0 0 0 0 0 8.12753e-44 0 8.78334e-42 0 3.35883e-40 0 6.74068e-39 0 8.49931e-38 0 7.34093e-37 0 4.90925e-36 0 2.60762e-35 0 1.18068e-34 0 4.61727e-34 0 1.57733e-33 0 4.97366e-33 0 1.45497e-32 0 3.79955e-32 0 9.30381e-32 0 2.23405e-31 0 4.85513e-31 0
8.67162 2.91287e-06 1.80271e-07 2.7326e-06 0.938112 0.569991 0 0 0 0 0 0 2.66247e-44 0 1.11445e-41 0 9.55278e-40 0 3.05785e-38 0 5.30075e-37 0 5.90579e-36 0 4.59121e-35 0 2.79833e-34 0 1.37e-33 0 5.76215e-33 0 2.10825e-32 0 6.7828e-32 0 2.02214e-31 0 5.61344e-31 0 1.39879e-30 0 3.27863e-30 0 7.54311e-30 0 1.57834e-29 0
9.11674 3.08561e-06 1.23674e-07 2.96194e-06 0.959919 0.63655 0 0 0 0 0 0 2.85585e-42 0 8.95302e-40 0 6.1756e-38 0 1.66906e-36 0 2.51712e-35 0 2.49303e-34 0 1.75345e-33 0 9.78452e-33 0 4.43281e-32 0 1.73814e-31 0 5.96922e-31 0 1.81396e-30 0 5.12705e-30 0 1.35406e-29 0 3.22701e-29 0 7.25567e-29 0 1.60276e-28 0 3.23491e-28 0
9.5847 3.48415e-06 1.22851e-07 3.3613e-06 0.96474 0.663682 0 0 0 0 8.82818e-44 0 3.44349e-40 0 8.15354e-38 0 4.57386e-36 0 1.05237e-34 0 1.39016e-33 0 1.23103e-32 0 7.87176e-32 0 4.03891e-31 0 1.69969e-30 0 6.2345e-30 0 2.01592e-29 0 5.8025e-29 0 1.55892e-28 0 3.92645e-28 0 8.9691e-28 0 1.93841e-27 0 4.11938e-27 0 8.03406e-27 0
10.0767 3.75074e-06 1.57602e-07 3.59314e-06 0.957981 0.652042 0 0 0 0 1.60014e-41 0 4.19055e-38 0 7.59789e-36 0 3.50138e-34 0 6.91246e-33 0 8.05012e-32 0 6.40856e-31 0 3.74301e-30 0 1.77312e-29 0 6.95619e-29 0 2.39467e-28 0 7.31196e-28 0 1.99875e-27 0 5.11695e-27 0 1.23197e-26 0 2.70292e-26 0 5.62588e-26 0 1.15237e-25 0 2.17536e-25 0
10.5939 3.4784e-06 1.49611e-07 3.32878e-06 0.956988 0.619425 0 0 1.4013e-45 0 1.67376e-39 0 2.98485e-36 0 4.19835e-34 0 1.60474e-32 0 2.73875e-31 0 2.82922e-30 0 2.03534e-29 0 1.09062e-28 0 4.78862e-28 0 1.75736e-27 0 5.69539e-27 0 1.6468e-26 0 4.28591e-26 0 1.04801e-25 0 2.41725e-25 0 5.10382e-25 0 1.02496e-24 0 2.02724e-24 0 3.70998e-24 0
11.1377 3.25091e-06 1.09192e-07 3.14171e-06 0.966412 0.619565 0 0 1.34525e-43 0 1.05692e-37 0 1.30778e-34 0 1.4448e-32 0 4.62252e-31 0 6.86859e-30 0 6.33096e-29 0 4.13617e-28 0 2.04194e-27 0 8.34079e-27 0 2.87269e-26 0 8.7906e-26 0 2.41336e-25 0 5.99437e-25 0 1.40315e-24 0 3.107e-24 0 6.32511e-24 0 1.22771e-23 0 2.34872e-23 0 4.17334e-23 0
11.7094 3.33598e-06 9.40604e-08 3.24192e-06 0.971804 0.644565 0 0 1.5518e-41 0 6.25889e-36 0 5.47017e-33 0 4.80302e-31 0 1.29748e-29 0 1.68993e-28 0 1.39757e-27 0 8.33117e-27 0 3.80446e-26 0 1.45084e-25 0 4.70411e-25 0 1.36299e-24 0 3.5619e-24 0 8.46274e-24 0 1.90037e-23 0 4.04781e-23 0 7.95926e-23 0 1.49568e-22 0 2.77216e-22 0 4.78941e-22 0
12.3105 3.51452e-06 1.02378e-07 3.41215e-06 0.97087 0.667951 1.4013e-45 0 1.75212e-39 0 3.76294e-34 0 2.36273e-31 0 1.66739e-29 0 3.83468e-28 0 4.40625e-27 0 3.28684e-26 0 1.79579e-25 0 7.61445e-25 0 2.72008e-24 0 8.32718e-24 0 2.29063e-23 0 5.71184e-23 0 1.30094e-22 0 2.80821e-22 0 5.76473e-22 0 1.09672e-21 0 1.99841e-21 0 3.59402e-21 0 6.04574e-21 0
12.9424 3.54251e-06 1.19939e-07 3.42257e-06 0.966143 0.674734 2.55036e-43 0 1.67691e-37 0 1.97763e-32 0 9.06626e-30 0 5.1975e-28 0 1.02566e-26 0 1.0461e-25 0 7.07412e-25 0 3.55748e-24 0 1.40571e-23 0 4.71889e-23 0 1.36783e-22 0 3.58124e-22 0 8.54044e-22 0 1.86856e-21 0 3.88476e-21 0 7.69951e-21 0 1.41952e-20 0 2.51193e-20 0 4.38995e-20 0 7.19947e-20 0
