# 0.000100404 0 76 : grain size, compostion index, size index
# Heating and cooling timescale: 0.000197302 5.87781e+06
# Ratio of heating to cooling to determine stochastic cutoff: 100
# Equilibrium emission is recorded even for those grains in the stochastic regime.
# Emission spectrum was computed for: 
# Type: ISRF
# Scales: 0.25 0.5 1 1.5 2 2.5 3 3.5 4 4.5 5 5.5 6 6.5 7 7.5 8 8.5 9 9.5 10
# StochasticallyHeated: 0 0 0 0 0 0 0 0 0 0 0 0 0 0 0 0 0 0 0 0 0
# Temperature: -1
# Wavelength  CExt  CAbs  CSca  Albedo G EqEm1 StEm1 EqEm2 StEm2 EqEm3 StEm3 EqEm4 StEm4 EqEm5 StEm5 EqEm6 StEm6 EqEm7 StEm7 EqEm8 StEm8 EqEm9 StEm9 EqEm10 StEm10 EqEm11 StEm11 EqEm12 StEm12 EqEm13 StEm13 EqEm14 StEm14 EqEm15 StEm15 EqEm16 StEm16 EqEm17 StEm17 EqEm18 StEm18 EqEm19 StEm19 EqEm20 StEm20 EqEm21 StEm21
0.05 6.37626e-08 3.01974e-08 3.35651e-08 0.526408 0.989111 0 0 0 0 0 0 0 0 0 0 0 0 0 0 0 0 0 0 0 0 0 0 0 0 0 0 0 0 0 0 0 0 0 0 0 0 0 0 0 0 0 0
0.0525665 6.41408e-08 2.97089e-08 3.44318e-08 0.536817 0.982446 0 0 0 0 0 0 0 0 0 0 0 0 0 0 0 0 0 0 0 0 0 0 0 0 0 0 0 0 0 0 0 0 0 0 0 0 0 0 0 0 0 0
0.0552647 6.43559e-08 2.9638e-08 3.47179e-08 0.539467 0.978821 0 0 0 0 0 0 0 0 0 0 0 0 0 0 0 0 0 0 0 0 0 0 0 0 0 0 0 0 0 0 0 0 0 0 0 0 0 0 0 0 0 0
0.0581015 6.45201e-08 2.96527e-08 3.48674e-08 0.540411 0.976289 0 0 0 0 0 0 0 0 0 0 0 0 0 0 0 0 0 0 0 0 0 0 0 0 0 0 0 0 0 0 0 0 0 0 0 0 0 0 0 0 0 0
0.0610839 6.46555e-08 2.96956e-08 3.49599e-08 0.540711 0.974381 0 0 0 0 0 0 0 0 0 0 0 0 0 0 0 0 0 0 0 0 0 0 0 0 0 0 0 0 0 0 0 0 0 0 0 0 0 0 0 0 0 0
0.0642193 6.47747e-08 2.97331e-08 3.50415e-08 0.540976 0.972699 0 0 0 0 0 0 0 0 0 0 0 0 0 0 0 0 0 0 0 0 0 0 0 0 0 0 0 0 0 0 0 0 0 0 0 0 0 0 0 0 0 0
0.0675157 6.48869e-08 2.97477e-08 3.51392e-08 0.541546 0.970931 0 0 0 0 0 0 0 0 0 0 0 0 0 0 0 0 0 0 0 0 0 0 0 0 0 0 0 0 0 0 0 0 0 0 0 0 0 0 0 0 0 0
0.0709813 6.50011e-08 2.97409e-08 3.52602e-08 0.542456 0.968912 0 0 0 0 0 0 0 0 0 0 0 0 0 0 0 0 0 0 0 0 0 0 0 0 0 0 0 0 0 0 0 0 0 0 0 0 0 0 0 0 0 0
0.0746248 6.51229e-08 2.97242e-08 3.53987e-08 0.543567 0.966636 0 0 0 0 0 0 0 0 0 0 0 0 0 0 0 0 0 0 0 0 0 0 0 0 0 0 0 0 0 0 0 0 0 0 0 0 0 0 0 0 0 0
0.0784553 6.52503e-08 2.97113e-08 3.5539e-08 0.544657 0.96426 0 0 0 0 0 0 0 0 0 0 0 0 0 0 0 0 0 0 0 0 0 0 0 0 0 0 0 0 0 0 0 0 0 0 0 0 0 0 0 0 0 0
0.0824824 6.53828e-08 2.97048e-08 3.56779e-08 0.545678 0.961844 0 0 0 0 0 0 0 0 0 0 0 0 0 0 0 0 0 0 0 0 0 0 0 0 0 0 0 0 0 0 0 0 0 0 0 0 0 0 0 0 0 0
0.0867162 6.55197e-08 2.97031e-08 3.58167e-08 0.546655 0.959377 0 0 0 0 0 0 0 0 0 0 0 0 0 0 0 0 0 0 0 0 0 0 0 0 0 0 0 0 0 0 0 0 0 0 0 0 0 0 0 0 0 0
0.0911674 6.56624e-08 2.97062e-08 3.59561e-08 0.547591 0.956846 0 0 0 0 0 0 0 0 0 0 0 0 0 0 0 0 0 0 0 0 0 0 0 0 0 0 0 0 0 0 0 0 0 0 0 0 0 0 0 0 0 0
0.095847 6.58122e-08 2.97164e-08 3.60958e-08 0.548467 0.954263 0 0 0 0 0 0 0 0 0 0 0 0 0 0 0 0 0 0 0 0 0 0 0 0 0 0 0 0 0 0 0 0 0 0 0 0 0 0 0 0 0 0
0.100767 6.59696e-08 2.97383e-08 3.62312e-08 0.549211 0.951679 0 0 0 0 0 0 0 0 0 0 0 0 0 0 0 0 0 0 0 0 0 0 0 0 0 0 0 0 0 0 0 0 0 0 0 0 0 0 0 0 0 0
0.105939 6.61374e-08 2.97899e-08 3.63475e-08 0.549576 0.949297 0 0 0 0 0 0 0 0 0 0 0 0 0 0 0 0 0 0 0 0 0 0 0 0 0 0 0 0 0 0 0 0 0 0 0 0 0 0 0 0 0 0
0.111377 6.63029e-08 2.98776e-08 3.64253e-08 0.549378 0.947477 0 0 0 0 0 0 0 0 0 0 0 0 0 0 0 0 0 0 0 0 0 0 0 0 0 0 0 0 0 0 0 0 0 0 0 0 0 0 0 0 0 0
0.117094 6.64573e-08 2.99843e-08 3.6473e-08 0.548818 0.946187 0 0 0 0 0 0 0 0 0 0 0 0 0 0 0 0 0 0 0 0 0 0 0 0 0 0 0 0 0 0 0 0 0 0 0 0 0 0 0 0 0 0
0.123105 6.66159e-08 3.0078e-08 3.65379e-08 0.548486 0.944683 0 0 0 0 0 0 0 0 0 0 0 0 0 0 0 0 0 0 0 0 0 0 0 0 0 0 0 0 0 0 0 0 0 0 0 0 0 0 0 0 0 0
0.129424 6.67847e-08 3.02029e-08 3.65819e-08 0.547758 0.943464 0 0 0 0 0 0 0 0 0 0 0 0 0 0 0 0 0 0 0 0 0 0 0 0 0 0 0 0 0 0 0 0 0 0 0 0 0 0 0 0 0 0
0.136067 6.69328e-08 3.03787e-08 3.65541e-08 0.546132 0.943399 0 0 0 0 0 0 0 0 0 0 0 0 0 0 0 0 0 0 0 0 0 0 0 0 0 0 0 0 0 0 0 0 0 0 0 0 0 0 0 0 0 0
0.143051 6.70752e-08 3.05172e-08 3.6558e-08 0.54503 0.94293 0 0 0 0 0 0 0 0 0 0 0 0 0 0 0 0 0 0 0 0 0 0 0 0 0 0 0 0 0 0 0 0 0 0 0 0 0 0 0 0 0 0
0.150394 6.72352e-08 3.07403e-08 3.64949e-08 0.542795 0.943386 0 0 0 0 0 0 0 0 0 0 0 0 0 0 0 0 0 0 0 0 0 0 0 0 0 0 0 0 0 0 0 0 0 0 0 0 0 0 0 0 0 0
0.158114 6.72654e-08 3.10832e-08 3.61822e-08 0.537902 0.947659 0 0 0 0 0 0 0 0 0 0 0 0 0 0 0 0 0 0 0 0 0 0 0 0 0 0 0 0 0 0 0 0 0 0 0 0 0 0 0 0 0 0
0.16623 6.71995e-08 3.11215e-08 3.6078e-08 0.536879 0.948823 0 0 0 0 0 0 0 0 0 0 0 0 0 0 0 0 0 0 0 0 0 0 0 0 0 0 0 0 0 0 0 0 0 0 0 0 0 0 0 0 0 0
0.174762 6.72268e-08 3.09147e-08 3.63121e-08 0.540143 0.94524 0 0 0 0 0 0 0 0 0 0 0 0 0 0 0 0 0 0 0 0 0 0 0 0 0 0 0 0 0 0 0 0 0 0 0 0 0 0 0 0 0 0
0.183733 6.73485e-08 3.06122e-08 3.67363e-08 0.545466 0.939033 0 0 0 0 0 0 0 0 0 0 0 0 0 0 0 0 0 0 0 0 0 0 0 0 0 0 0 0 0 0 0 0 0 0 0 0 0 0 0 0 0 0
0.193164 6.75801e-08 3.01858e-08 3.73943e-08 0.553334 0.929419 0 0 0 0 0 0 0 0 0 0 0 0 0 0 0 0 0 0 0 0 0 0 0 0 0 0 0 0 0 0 0 0 0 0 0 0 0 0 0 0 0 0
0.203079 6.7953e-08 2.98271e-08 3.81259e-08 0.561062 0.918118 0 0 0 0 0 0 0 0 0 0 0 0 0 0 0 0 0 0 0 0 0 0 0 0 0 0 0 0 0 0 0 0 0 0 0 0 0 0 0 0 0 0
0.213503 6.8328e-08 2.96208e-08 3.87072e-08 0.566491 0.90867 0 0 0 0 0 0 0 0 0 0 0 0 0 0 0 0 0 0 0 0 0 0 0 0 0 0 0 0 0 0 0 0 0 0 0 0 0 0 0 0 0 0
0.224463 6.87037e-08 2.94856e-08 3.92181e-08 0.57083 0.900165 0 0 0 0 0 0 0 0 0 0 0 0 0 0 0 0 0 0 0 0 0 0 0 0 0 0 0 0 0 0 0 0 0 0 0 0 0 0 0 0 0 0
0.235984 6.90859e-08 2.9352e-08 3.97339e-08 0.575138 0.891631 0 0 0 0 0 0 0 0 0 0 0 0 0 0 0 0 0 0 0 0 0 0 0 0 0 0 0 0 0 0 0 0 0 0 0 0 0 0 0 0 0 0
0.248097 6.95311e-08 2.91886e-08 4.03425e-08 0.580208 0.881622 0 0 0 0 0 0 0 0 0 0 0 0 0 0 0 0 0 0 0 0 0 0 0 0 0 0 0 0 0 0 0 0 0 0 0 0 0 0 0 0 0 0
0.260832 6.99999e-08 2.91515e-08 4.08484e-08 0.58355 0.873089 0 0 0 0 0 0 0 0 0 0 0 0 0 0 0 0 0 0 0 0 0 0 0 0 0 0 0 0 0 0 0 0 0 0 0 0 0 0 0 0 0 0
0.274221 7.04694e-08 2.91977e-08 4.12717e-08 0.585668 0.865865 0 0 0 0 0 0 0 0 0 0 0 0 0 0 0 0 0 0 0 0 0 0 0 0 0 0 0 0 0 0 0 0 0 0 0 0 0 0 0 0 0 0
0.288297 7.09218e-08 2.92954e-08 4.16263e-08 0.586933 0.859817 0 0 0 0 0 0 0 0 0 0 0 0 0 0 0 0 0 0 0 0 0 0 0 0 0 0 0 0 0 0 0 0 0 0 0 0 0 0 0 0 0 0
0.303095 7.13769e-08 2.94349e-08 4.1942e-08 0.587613 0.854393 0 0 0 0 0 0 0 0 0 0 0 0 0 0 0 0 0 0 0 0 0 0 0 0 0 0 0 0 0 0 0 0 0 0 0 0 0 0 0 0 0 0
0.318653 7.18197e-08 2.95995e-08 4.22202e-08 0.587864 0.849619 0 0 0 0 0 0 0 0 0 0 0 0 0 0 0 0 0 0 0 0 0 0 0 0 0 0 0 0 0 0 0 0 0 0 0 0 0 0 0 0 0 0
0.335009 7.22587e-08 2.97798e-08 4.24788e-08 0.587872 0.845193 0 0 0 0 0 0 0 0 0 0 0 0 0 0 0 0 0 0 0 0 0 0 0 0 0 0 0 0 0 0 0 0 0 0 0 0 0 0 0 0 0 0
0.352205 7.26925e-08 2.99745e-08 4.2718e-08 0.587653 0.841077 0 0 0 0 0 0 0 0 0 0 0 0 0 0 0 0 0 0 0 0 0 0 0 0 0 0 0 0 0 0 0 0 0 0 0 0 0 0 0 0 0 0
0.370284 7.31263e-08 3.01689e-08 4.29573e-08 0.587441 0.836992 0 0 0 0 0 0 0 0 0 0 0 0 0 0 0 0 0 0 0 0 0 0 0 0 0 0 0 0 0 0 0 0 0 0 0 0 0 0 0 0 0 0
0.389291 7.35583e-08 3.03668e-08 4.31916e-08 0.587174 0.832991 0 0 0 0 0 0 0 0 0 0 0 0 0 0 0 0 0 0 0 0 0 0 0 0 0 0 0 0 0 0 0 0 0 0 0 0 0 0 0 0 0 0
0.409273 7.39926e-08 3.05594e-08 4.34332e-08 0.586993 0.828891 0 0 0 0 0 0 0 0 0 0 0 0 0 0 0 0 0 0 0 0 0 0 0 0 0 0 0 0 0 0 0 0 0 0 0 0 0 0 0 0 0 0
0.430281 7.44281e-08 3.07497e-08 4.36784e-08 0.586853 0.82471 0 0 0 0 0 0 0 0 0 0 0 0 0 0 0 0 0 0 0 0 0 0 0 0 0 0 0 0 0 0 0 0 0 0 0 0 0 0 0 0 0 0
0.452368 7.4859e-08 3.09443e-08 4.39147e-08 0.586632 0.820587 0 0 0 0 0 0 0 0 0 0 0 0 0 0 0 0 0 0 0 0 0 0 0 0 0 0 0 0 0 0 0 0 0 0 0 0 0 0 0 0 0 0
0.475588 7.52852e-08 3.1137e-08 4.41482e-08 0.586413 0.816429 0 0 0 0 0 0 0 0 0 0 0 0 0 0 0 0 0 0 0 0 0 0 0 0 0 0 0 0 0 0 0 0 0 0 0 0 0 0 0 0 0 0
0.5 7.56955e-08 3.13413e-08 4.43542e-08 0.585955 0.812528 0 0 0 0 0 0 0 0 0 0 0 0 0 0 0 0 0 0 0 0 0 0 0 0 0 0 0 0 0 0 0 0 0 0 0 0 0 0 0 0 0 0
0.525665 7.60893e-08 3.15556e-08 4.45337e-08 0.585282 0.808887 0 0 0 0 0 0 0 0 0 0 0 0 0 0 0 0 0 0 0 0 0 0 0 0 0 0 0 0 0 0 0 0 0 0 0 0 0 0 0 0 0 0
0.552648 7.64688e-08 3.17795e-08 4.46893e-08 0.584412 0.805477 0 0 0 0 0 0 0 0 0 0 0 0 0 0 0 0 0 0 0 0 0 0 0 0 0 0 0 0 0 0 0 0 0 0 0 0 0 0 0 0 0 0
0.581015 7.68398e-08 3.20098e-08 4.483e-08 0.583421 0.802189 0 0 0 0 0 0 0 0 0 0 0 0 0 0 0 0 0 0 0 0 0 0 0 0 0 0 0 0 0 0 0 0 0 0 0 0 0 0 0 0 0 0
0.610839 7.72058e-08 3.22394e-08 4.49664e-08 0.582423 0.798867 0 0 0 0 0 0 0 0 0 0 0 0 0 0 0 0 0 0 0 0 0 0 0 0 0 0 0 0 0 0 0 0 0 0 0 0 0 0 0 0 0 0
0.642193 7.75705e-08 3.24733e-08 4.50971e-08 0.58137 0.795523 0 0 0 0 0 0 0 0 0 0 0 0 0 0 0 0 0 0 0 0 0 0 0 0 0 0 0 0 0 0 0 0 0 0 0 0 0 0 0 0 0 0
0.675157 7.79347e-08 3.27056e-08 4.52291e-08 0.580346 0.792083 0 0 0 0 0 0 0 0 0 0 0 0 0 0 0 0 0 0 0 0 0 0 0 0 0 0 0 0 0 0 0 0 0 0 0 0 0 0 0 0 0 0
0.709813 7.82996e-08 3.29396e-08 4.536e-08 0.579313 0.788499 0 0 0 0 0 0 0 0 0 0 0 0 0 0 0 0 0 0 0 0 0 0 0 0 0 0 0 0 0 0 0 0 0 0 0 0 0 0 0 0 0 0
0.746248 7.86617e-08 3.3175e-08 4.54867e-08 0.578257 0.784857 0 0 0 0 0 0 0 0 0 0 0 0 0 0 0 0 0 0 0 0 0 0 0 0 0 0 0 0 0 0 0 0 0 0 0 0 0 0 0 0 0 0
0.784553 7.90198e-08 3.34199e-08 4.55999e-08 0.577069 0.781147 0 0 0 0 0 0 0 0 0 0 0 0 0 0 0 0 0 0 0 0 0 0 0 0 0 0 0 0 0 0 0 0 0 0 0 0 0 0 0 0 0 0
0.824824 7.93652e-08 3.36854e-08 4.56798e-08 0.575565 0.777701 0 0 0 0 0 0 0 0 0 0 0 0 0 0 0 0 0 0 0 0 0 0 0 0 0 0 0 0 0 0 0 0 0 0 0 0 0 0 0 0 0 0
0.867162 7.97253e-08 3.39963e-08 4.5729e-08 0.573582 0.774614 0 0 0 0 0 0 0 0 0 0 0 0 0 0 0 0 0 0 0 0 0 0 0 0 0 0 0 0 0 0 0 0 0 0 0 0 0 0 0 0 0 0
0.911674 8.00942e-08 3.43152e-08 4.5779e-08 0.571564 0.77138 0 0 0 0 0 0 0 0 0 0 0 0 0 0 0 0 0 0 0 0 0 0 0 0 0 0 0 0 0 0 0 0 0 0 0 0 0 0 0 0 0 0
0.95847 8.04986e-08 3.46296e-08 4.58689e-08 0.569811 0.767728 0 0 0 0 0 0 0 0 0 0 0 0 0 0 0 0 0 0 0 0 0 0 0 0 0 0 0 0 0 0 0 0 0 0 0 0 0 0 0 0 0 0
1.00767 8.09107e-08 3.49418e-08 4.59689e-08 0.568143 0.763556 0 0 0 0 0 0 0 0 0 0 0 0 0 0 0 0 0 0 0 0 0 0 0 0 0 0 0 0 0 0 0 0 0 0 0 0 0 0 0 0 0 0
1.05939 8.13155e-08 3.52465e-08 4.6069e-08 0.566546 0.759119 0 0 0 0 0 0 0 0 0 0 0 0 0 0 0 0 0 0 0 0 0 0 0 0 0 0 0 0 0 0 0 0 0 0 0 0 0 0 0 0 0 0
1.11377 8.17547e-08 3.55789e-08 4.61758e-08 0.564809 0.754677 0 0 0 0 0 0 0 0 0 0 0 0 0 0 0 0 0 0 0 0 0 0 0 0 0 0 0 0 0 0 0 0 0 0 0 0 0 0 0 0 0 0
1.17094 8.21997e-08 3.59222e-08 4.62775e-08 0.562988 0.749771 0 0 0 0 0 0 0 0 0 0 0 0 0 0 0 0 0 0 0 0 0 0 0 0 0 0 0 0 0 0 0 0 0 0 0 0 0 0 0 0 0 0
1.23105 8.26248e-08 3.62426e-08 4.63822e-08 0.561359 0.744322 0 0 0 0 0 0 0 0 0 0 0 0 0 0 0 0 0 0 0 0 0 0 0 0 0 0 0 0 0 0 0 0 0 0 0 0 0 0 0 0 0 0
1.29424 8.30868e-08 3.65877e-08 4.64991e-08 0.559645 0.738925 0 0 0 0 0 0 0 0 0 0 0 0 0 0 0 0 0 0 0 0 0 0 0 0 0 0 0 0 0 0 0 0 0 0 0 0 0 0 0 0 0 0
1.36067 8.35866e-08 3.70064e-08 4.65801e-08 0.557268 0.73375 0 0 0 0 0 0 0 0 0 0 0 0 0 0 0 0 0 0 0 0 0 0 0 0 0 0 0 0 0 0 0 0 0 0 0 0 0 0 0 0 0 0
1.43051 8.40662e-08 3.74229e-08 4.66433e-08 0.55484 0.727825 0 0 0 0 0 0 0 0 0 0 0 0 0 0 0 0 0 0 0 0 0 0 0 0 0 0 0 0 0 0 0 0 0 0 0 0 0 0 0 0 0 0
1.50394 8.45295e-08 3.77744e-08 4.6755e-08 0.553121 0.720778 0 0 0 0 0 0 0 0 0 0 0 0 0 0 0 0 0 0 0 0 0 0 0 0 0 0 0 0 0 0 0 0 0 0 0 0 0 0 0 0 0 0
1.58114 8.50607e-08 3.81549e-08 4.69058e-08 0.551439 0.713741 0 0 0 0 0 0 0 0 0 0 0 0 0 0 0 0 0 0 0 0 0 0 0 0 0 0 0 0 0 0 0 0 0 0 0 0 0 0 0 0 0 0
1.6623 8.56526e-08 3.86164e-08 4.70362e-08 0.549151 0.706936 0 0 0 0 0 0 0 0 0 0 0 0 0 0 0 0 0 0 0 0 0 0 0 0 0 0 0 0 0 0 0 0 0 0 0 0 0 0 0 0 0 0
1.74763 8.61989e-08 3.90939e-08 4.7105e-08 0.546469 0.699358 0 0 0 0 0 0 0 0 0 0 0 0 0 0 0 0 0 0 0 0 0 0 0 0 0 0 0 0 0 0 0 0 0 0 0 0 0 0 0 0 0 0
1.83733 8.66742e-08 3.9504e-08 4.71702e-08 0.544225 0.690165 0 0 0 0 0 0 0 0 0 0 0 0 0 0 0 0 0 0 0 0 0 0 0 0 0 0 0 0 0 0 0 0 0 0 0 0 0 0 0 0 0 0
1.93164 8.71669e-08 3.98497e-08 4.73172e-08 0.542834 0.679757 0 0 0 0 0 0 0 0 0 0 0 0 0 0 0 0 0 0 0 0 0 0 0 0 0 0 0 0 0 0 0 0 0 0 0 0 0 0 0 0 0 0
2.03079 8.78001e-08 4.02912e-08 4.75089e-08 0.541103 0.670093 0 0 0 0 0 0 0 0 0 0 0 0 0 0 0 0 0 0 0 0 0 0 0 0 0 0 0 0 0 0 0 0 0 0 0 0 0 0 0 0 0 0
2.13503 8.85494e-08 4.08659e-08 4.76835e-08 0.538496 0.661395 0 0 0 0 0 0 0 0 0 0 0 0 0 0 0 0 0 0 0 0 0 0 0 0 0 0 0 0 0 0 0 0 0 0 0 0 0 0 0 0 0 0
2.24463 8.92465e-08 4.14763e-08 4.77702e-08 0.535262 0.652142 0 0 0 0 0 0 0 0 0 0 0 0 0 0 0 0 0 0 0 0 0 0 0 0 0 0 0 0 0 0 0 0 0 0 0 0 0 0 0 0 0 0
2.35984 8.97786e-08 4.20092e-08 4.77694e-08 0.53208 0.64057 0 0 0 0 0 0 0 0 0 0 0 0 0 0 0 0 0 0 0 0 0 0 0 0 0 0 0 0 0 0 0 0 0 0 0 0 0 0 0 0 0 0
2.48097 9.01753e-08 4.24124e-08 4.7763e-08 0.529668 0.625883 0 0 0 0 0 0 0 0 0 0 0 0 0 0 0 0 0 0 0 0 0 0 0 0 0 0 0 0 0 0 0 0 0 0 0 0 0 0 0 0 0 0
2.60832 9.06033e-08 4.28401e-08 4.77632e-08 0.527169 0.60991 0 0 0 0 0 0 0 0 0 0 0 0 0 0 0 0 0 0 0 0 0 0 0 0 0 0 0 0 0 0 0 0 0 0 0 0 0 0 0 0 0 0
2.74221 9.11558e-08 4.32843e-08 4.78715e-08 0.525162 0.593023 0 0 0 0 0 0 0 0 0 0 0 0 0 0 0 0 0 0 0 0 0 0 0 0 0 0 0 0 0 0 0 0 0 0 0 0 0 0 0 0 0 0
2.88297 9.18336e-08 4.38405e-08 4.79931e-08 0.52261 0.576845 0 0 0 0 0 0 0 0 0 0 0 0 0 0 0 0 0 0 0 0 0 0 0 0 0 0 0 0 0 0 0 0 0 0 0 0 0 0 0 0 0 0
3.03095 9.26083e-08 4.46025e-08 4.80058e-08 0.518374 0.562063 0 0 0 0 0 0 0 0 0 0 0 0 0 0 0 0 0 0 0 0 0 0 0 0 0 0 0 0 0 0 0 0 0 0 0 0 0 0 0 0 0 0
3.18653 9.33964e-08 4.54142e-08 4.79822e-08 0.513748 0.546885 0 0 0 0 0 0 0 0 0 0 0 0 0 0 0 0 0 0 0 0 0 0 0 0 0 0 0 0 0 0 0 0 0 0 0 0 0 0 0 0 0 0
3.35009 9.40107e-08 4.62294e-08 4.77814e-08 0.508254 0.530366 0 0 0 0 0 0 0 0 0 0 0 0 0 0 0 0 0 0 0 0 0 0 0 0 0 0 0 0 0 0 0 0 0 0 0 0 0 0 0 0 0 0
3.52205 9.44821e-08 4.70512e-08 4.74309e-08 0.502009 0.511338 0 0 0 0 0 0 0 0 0 0 0 0 0 0 0 0 0 0 0 0 0 0 0 0 0 0 0 0 0 0 0 0 0 0 0 0 0 0 0 0 0 0
3.70284 9.46093e-08 4.75751e-08 4.70342e-08 0.497142 0.48674 0 0 0 0 0 0 0 0 0 0 0 0 0 0 0 0 0 0 0 0 0 0 0 0 0 0 0 0 0 0 0 0 0 0 0 0 0 0 0 0 0 0
3.89291 9.43998e-08 4.77842e-08 4.66156e-08 0.493811 0.455264 0 0 0 0 0 0 0 0 0 0 0 0 0 0 0 0 0 0 0 0 0 0 0 0 0 0 0 0 0 0 0 0 0 0 0 0 0 0 0 0 0 0
4.09273 9.41253e-08 4.78185e-08 4.63068e-08 0.491969 0.417286 0 0 0 0 0 0 0 0 0 0 0 0 0 0 0 0 0 0 0 0 0 0 0 0 0 0 0 0 0 0 0 0 0 0 0 0 0 0 0 0 0 0
4.30281 9.41703e-08 4.79219e-08 4.62484e-08 0.491115 0.37476 0 0 0 0 0 0 0 0 0 0 0 0 0 0 0 0 0 0 0 0 0 0 0 0 0 0 0 0 0 0 0 0 0 0 0 0 0 0 0 0 0 0
4.52368 9.49113e-08 4.82576e-08 4.66536e-08 0.49155 0.330152 0 0 0 0 0 0 0 0 0 0 0 0 0 0 0 0 0 0 0 0 0 0 0 0 0 0 0 0 0 0 0 0 0 0 0 0 0 0 0 0 0 0
4.75588 9.66477e-08 4.89433e-08 4.77044e-08 0.493591 0.286658 0 0 0 0 0 0 0 0 0 0 0 0 0 0 0 0 0 0 0 0 0 0 0 0 0 0 0 0 0 0 0 0 0 0 0 0 0 0 0 0 0 0
5 9.9357e-08 5.00472e-08 4.93098e-08 0.496289 0.247002 0 0 0 0 0 0 0 0 0 0 0 0 0 0 0 0 0 0 0 0 0 0 0 0 0 0 0 0 0 0 0 0 0 0 0 0 0 0 0 0 0 0
5.25665 1.0308e-07 5.15153e-08 5.15647e-08 0.50024 0.213112 0 0 0 0 0 0 0 0 0 0 0 0 0 0 0 0 0 0 0 0 0 0 0 0 0 0 0 0 0 0 0 0 0 0 0 0 0 0 0 0 0 0
5.52648 1.07171e-07 5.30613e-08 5.41094e-08 0.50489 0.184367 0 0 0 0 0 0 0 0 0 0 0 0 0 0 0 0 0 0 0 0 0 0 0 0 0 0 0 0 0 0 0 0 0 0 0 0 0 0 0 0 0 0
5.81015 1.10823e-07 5.45203e-08 5.63023e-08 0.50804 0.162431 0 0 0 0 0 0 0 0 0 0 0 0 0 0 0 0 0 0 0 0 0 0 0 0 0 0 0 0 0 0 0 0 0 0 0 0 0 0 0 0 0 0
6.10839 1.11952e-07 5.54517e-08 5.65006e-08 0.504685 0.143783 0 0 0 0 0 0 0 0 0 0 0 0 0 0 0 0 0 0 0 0 0 0 0 0 0 0 0 0 0 0 0 0 0 0 1.4013e-45 0 4.2039e-45 0 9.80909e-45 0 2.8026e-44 0
6.42193 1.10489e-07 5.56439e-08 5.48455e-08 0.496387 0.121449 0 0 0 0 0 0 0 0 0 0 0 0 0 0 0 0 0 0 0 0 0 0 0 0 0 0 1.4013e-45 0 5.60519e-45 0 1.96182e-44 0 6.72623e-44 0 2.20004e-43 0 6.41795e-43 0 1.732e-42 0 4.46173e-42 0
6.75157 1.07718e-07 5.56295e-08 5.20881e-08 0.483561 0.107541 0 0 0 0 0 0 0 0 0 0 0 0 0 0 0 0 0 0 0 0 1.4013e-45 0 8.40779e-45 0 4.76441e-44 0 2.18603e-43 0 8.99634e-43 0 3.18375e-42 0 1.03318e-41 0 3.1759e-41 0 8.7825e-41 0 2.25645e-40 0 5.54934e-40 0
7.09813 1.02398e-07 5.48016e-08 4.7596e-08 0.464815 0.0986784 0 0 0 0 0 0 0 0 0 0 0 0 0 0 0 0 2.8026e-45 0 3.36312e-44 0 2.49431e-43 0 1.48958e-42 0 7.21949e-42 0 3.0603e-41 0 1.1779e-40 0 3.91908e-40 0 1.2007e-39 0 3.4941e-39 0 9.19416e-39 0 2.25587e-38 0 5.30942e-38 0
7.46248 9.5613e-08 5.30806e-08 4.25324e-08 0.44484 0.086908 0 0 0 0 0 0 0 0 0 0 0 0 2.8026e-45 0 4.48416e-44 0 5.57717e-43 0 4.969e-42 0 3.37489e-41 0 1.84653e-40 0 8.2869e-40 0 3.2737e-39 0 1.1798e-38 0 3.70163e-38 0 1.07375e-37 0 2.96588e-37 0 7.44417e-37 0 1.74818e-36 0 3.94612e-36 0
7.84553 8.81795e-08 5.09204e-08 3.72591e-08 0.422537 0.0791835 0 0 0 0 0 0 0 0 0 0 1.26117e-44 0 3.81153e-43 0 6.44037e-42 0 7.08987e-41 0 5.67375e-40 0 3.50988e-39 0 1.76749e-38 0 7.37153e-38 0 2.72316e-37 0 9.21848e-37 0 2.73526e-36 0 7.5323e-36 0 1.97986e-35 0 4.75098e-35 0 1.07017e-34 0 2.32151e-34 0
8.24824 8.02987e-08 4.82583e-08 3.20403e-08 0.399014 0.0722619 0 0 0 0 0 0 0 0 2.8026e-44 0 1.78105e-42 0 4.80673e-41 0 7.07275e-40 0 6.9258e-39 0 5.0073e-38 0 2.83391e-37 0 1.31878e-36 0 5.12971e-36 0 1.77787e-35 0 5.6706e-35 0 1.59554e-34 0 4.18174e-34 0 1.04851e-33 0 2.4108e-33 0 5.21927e-33 0 1.09021e-32 0
8.67162 7.24678e-08 4.53899e-08 2.70779e-08 0.373654 0.0702315 0 0 0 0 0 0 1.82169e-44 0 3.8872e-42 0 2.03611e-40 0 4.67932e-39 0 6.03823e-38 0 5.28947e-37 0 3.47216e-36 0 1.80563e-35 0 7.79489e-35 0 2.83745e-34 0 9.25509e-34 0 2.78943e-33 0 7.46205e-33 0 1.86585e-32 0 4.47302e-32 0 9.87496e-32 0 2.05876e-31 0 4.14846e-31 0
9.11674 6.49083e-08 4.23695e-08 2.25388e-08 0.347241 0.0730546 0 0 0 0 1.4013e-45 0 2.55597e-42 0 4.18271e-40 0 1.80562e-38 0 3.56072e-37 0 4.0554e-36 0 3.19536e-35 0 1.91342e-34 0 9.18075e-34 0 3.69018e-33 0 1.26116e-32 0 3.88288e-32 0 1.10891e-31 0 2.82731e-31 0 6.7602e-31 0 1.5529e-30 0 3.29827e-30 0 6.63405e-30 0 1.29182e-29 0
9.5847 5.76752e-08 3.91679e-08 1.85073e-08 0.320889 0.0803664 0 0 0 0 1.90577e-43 0 2.73632e-40 0 3.49168e-38 0 1.2542e-36 0 2.13824e-35 0 2.16257e-34 0 1.54059e-33 0 8.45327e-33 0 3.757e-32 0 1.41095e-31 0 4.54126e-31 0 1.32347e-30 0 3.59092e-30 0 8.74657e-30 0 2.00419e-29 0 4.42068e-29 0 9.05022e-29 0 1.75928e-28 0 3.3161e-28 0
10.0767 5.06127e-08 3.56333e-08 1.49794e-08 0.295961 0.0918464 0 0 0 0 2.23647e-41 0 2.25847e-38 0 2.27439e-36 0 6.85901e-35 0 1.01816e-33 0 9.19738e-33 0 5.95316e-32 0 3.00599e-31 0 1.24215e-30 0 4.3731e-30 0 1.32944e-29 0 3.67727e-29 0 9.50278e-29 0 2.21619e-28 0 4.8767e-28 0 1.03491e-27 0 2.04588e-27 0 3.85e-27 0 7.03579e-27 0
10.5939 4.3665e-08 3.16962e-08 1.19688e-08 0.274104 0.10351 0 0 8.40779e-45 0 2.00549e-39 0 1.44476e-36 0 1.16159e-34 0 2.96631e-33 0 3.85985e-32 0 3.13149e-31 0 1.85027e-30 0 8.63257e-30 0 3.32846e-29 0 1.10197e-28 0 3.173e-28 0 8.35132e-28 0 2.06039e-27 0 4.61052e-27 0 9.76217e-27 0 1.99695e-26 0 3.81852e-26 0 6.96738e-26 0 1.23634e-25 0
11.1377 3.75238e-08 2.79527e-08 9.5711e-09 0.255067 0.104555 0 0 1.06078e-42 0 1.40611e-37 0 7.34647e-35 0 4.76773e-33 0 1.03938e-31 0 1.19322e-30 0 8.74e-30 0 4.73508e-29 0 2.04915e-28 0 7.39709e-28 0 2.30995e-27 0 6.31654e-27 0 1.58578e-26 0 3.7436e-26 0 8.05399e-26 0 1.644e-25 0 3.24749e-25 0 6.01628e-25 0 1.06599e-24 0 1.83933e-24 0
11.7094 3.2538e-08 2.48221e-08 7.71593e-09 0.237136 0.103976 0 0 1.06232e-40 0 7.92003e-36 0 3.04845e-33 0 1.61373e-31 0 3.02653e-30 0 3.08418e-29 0 2.04979e-28 0 1.02258e-27 0 4.11984e-27 0 1.39684e-26 0 4.12614e-26 0 1.07421e-25 0 2.57832e-25 0 5.83672e-25 0 1.20961e-24 0 2.38455e-24 0 4.55635e-24 0 8.19076e-24 0 1.4113e-23 0 2.37115e-23 0
12.3105 2.80582e-08 2.18598e-08 6.19847e-09 0.220914 0.104357 4.76441e-44 0 8.27851e-39 0 3.56883e-34 0 1.02719e-31 0 4.47964e-30 0 7.28111e-29 0 6.62473e-28 0 4.01399e-27 0 1.85134e-26 0 6.96821e-26 0 2.22587e-25 0 6.23633e-25 0 1.54948e-24 0 3.56343e-24 0 7.75132e-24 0 1.55025e-23 0 2.95644e-23 0 5.47332e-23 0 9.56142e-23 0 1.60428e-22 0 2.62796e-22 0
12.9424 2.40698e-08 1.91124e-08 4.95744e-09 0.205961 0.0996569 5.24226e-42 0 5.08331e-37 0 1.30149e-32 0 2.8412e-30 0 1.03049e-28 0 1.46175e-27 0 1.19405e-26 0 6.62569e-26 0 2.83613e-25 0 1.00059e-24 0 3.02001e-24 0 8.04623e-24 0 1.91228e-23 0 4.22255e-23 0 8.8431e-23 0 1.70975e-22 0 3.15945e-22 0 5.67589e-22 0 9.64888e-22 0 1.57856e-21 0 2.52426e-21 0
