# 1.9953e-06 1 70 : grain size, compostion index, size index
# Heating and cooling timescale: 28.2609 24359.3
# Ratio of heating to cooling to determine stochastic cutoff: 100
# Equilibrium emission is recorded even for those grains in the stochastic regime.
# Emission spectrum was computed for: 
# Type: IRSF
# Scales: 0.25 0.5 1 1.5 2 2.5 3 3.5 4 4.5 5 5.5 6 6.5 7 7.5 8 8.5 9 9.5 10
# StochasticallyHeated: 1 1 1 0 0 0 0 0 0 0 0 0 0 0 0 0 0 0 0 0 0
# Temperature: -1
# Wavelength  CExt  CAbs  CSca  Albedo G EqEm1 StEm1 EqEm2 StEm2 EqEm3 StEm3 EqEm4 StEm4 EqEm5 StEm5 EqEm6 StEm6 EqEm7 StEm7 EqEm8 StEm8 EqEm9 StEm9 EqEm10 StEm10 EqEm11 StEm11 EqEm12 StEm12 EqEm13 StEm13 EqEm14 StEm14 EqEm15 StEm15 EqEm16 StEm16 EqEm17 StEm17 EqEm18 StEm18 EqEm19 StEm19 EqEm20 StEm20 EqEm21 StEm21
0.05 6.44202e-12 4.59624e-12 1.84578e-12 0.286521 0.0845392 0 0 0 0 0 0 0 0 0 0 0 0 0 0 0 0 0 0 0 0 0 0 0 0 0 0 0 0 0 0 0 0 0 0 0 0 0 0 0 0 0 0
0.0525665 7.12033e-12 5.0802e-12 2.04013e-12 0.286521 0.0934408 0 0 0 0 0 0 0 0 0 0 0 0 0 0 0 0 0 0 0 0 0 0 0 0 0 0 0 0 0 0 0 0 0 0 0 0 0 0 0 0 0 0
0.0552647 7.87007e-12 5.61512e-12 2.25494e-12 0.286521 0.10328 0 0 0 0 0 0 0 0 0 0 0 0 0 0 0 0 0 0 0 0 0 0 0 0 0 0 0 0 0 0 0 0 0 0 0 0 0 0 0 0 0 0
0.0581015 8.69875e-12 6.20637e-12 2.49238e-12 0.286521 0.114155 0 0 0 0 0 0 0 0 0 0 0 0 0 0 0 0 0 0 0 0 0 0 0 0 0 0 0 0 0 0 0 0 0 0 0 0 0 0 0 0 0 0
0.0610839 9.61468e-12 6.85987e-12 2.75481e-12 0.286521 0.126174 0 0 0 0 0 0 0 0 0 0 0 0 0 0 0 0 0 0 0 0 0 0 0 0 0 0 0 0 0 0 0 0 0 0 0 0 0 0 0 0 0 0
0.0642193 1.06271e-11 7.58218e-12 3.04488e-12 0.286521 0.13946 0 0 0 0 0 0 0 0 0 0 0 0 0 0 0 0 0 0 0 0 0 0 0 0 0 0 0 0 0 0 0 0 0 0 0 0 0 0 0 0 0 0
0.0675157 1.1746e-11 8.38055e-12 3.36549e-12 0.286521 0.154144 0 0 0 0 0 0 0 0 0 0 0 0 0 0 0 0 0 0 0 0 0 0 0 0 0 0 0 0 0 0 0 0 0 0 0 0 0 0 0 0 0 0
0.0709813 1.29828e-11 9.26298e-12 3.71986e-12 0.286521 0.170375 0 0 0 0 0 0 0 0 0 0 0 0 0 0 0 0 0 0 0 0 0 0 0 0 0 0 0 0 0 0 0 0 0 0 0 0 0 0 0 0 0 0
0.0746248 1.43499e-11 1.02383e-11 4.11154e-12 0.286521 0.188315 0 0 0 0 0 0 0 0 0 0 0 0 0 0 0 0 0 0 0 0 0 0 0 0 0 0 0 0 0 0 0 0 0 0 0 0 0 0 0 0 0 0
0.0784553 1.58608e-11 1.13164e-11 4.54447e-12 0.286521 0.208143 0 0 0 0 0 0 0 0 0 0 0 0 0 0 0 0 0 0 0 0 0 0 0 0 0 0 0 0 0 0 0 0 0 0 0 0 0 0 0 0 0 0
0.0824824 1.75309e-11 1.25079e-11 5.02298e-12 0.286521 0.23006 0 0 0 0 0 0 0 0 0 0 0 0 0 0 0 0 0 0 0 0 0 0 0 0 0 0 0 0 0 0 0 0 0 0 0 0 0 0 0 0 0 0
0.0867162 1.93768e-11 1.3825e-11 5.55188e-12 0.286521 0.254284 0 0 0 0 0 0 0 0 0 0 0 0 0 0 0 0 0 0 0 0 0 0 0 0 0 0 0 0 0 0 0 0 0 0 0 0 0 0 0 0 0 0
0.0911674 2.14171e-11 1.52807e-11 6.13646e-12 0.286521 0.281059 0 0 0 0 0 0 0 0 0 0 0 0 0 0 0 0 0 0 0 0 0 0 0 0 0 0 0 0 0 0 0 0 0 0 0 0 0 0 0 0 0 0
0.095847 2.36722e-11 1.68896e-11 6.7826e-12 0.286521 0.310653 0 0 0 0 0 0 0 0 0 0 0 0 0 0 0 0 0 0 0 0 0 0 0 0 0 0 0 0 0 0 0 0 0 0 0 0 0 0 0 0 0 0
0.100767 2.57499e-11 1.83729e-11 7.37706e-12 0.286488 0.334115 0 0 0 0 0 0 0 0 0 0 0 0 0 0 0 0 0 0 0 0 0 0 0 0 0 0 0 0 0 0 0 0 0 0 0 0 0 0 0 0 0 0
0.105939 2.55803e-11 1.82402e-11 7.34004e-12 0.286941 0.312881 0 0 0 0 0 0 0 0 0 0 0 0 0 0 0 0 0 0 0 0 0 0 0 0 0 0 0 0 0 0 0 0 0 0 0 0 0 0 0 0 0 0
0.111377 2.51406e-11 1.79121e-11 7.22855e-12 0.287524 0.293158 0 0 0 0 0 0 0 0 0 0 0 0 0 0 0 0 0 0 0 0 0 0 0 0 0 0 0 0 0 0 0 0 0 0 0 0 0 0 0 0 0 0
0.117094 2.44083e-11 1.73552e-11 7.05314e-12 0.288965 0.273545 0 0 0 0 0 0 0 0 0 0 0 0 0 0 0 0 0 0 0 0 0 0 0 0 0 0 0 0 0 0 0 0 0 0 0 0 0 0 0 0 0 0
0.123105 2.3112e-11 1.6373e-11 6.73909e-12 0.291583 0.254391 0 0 0 0 0 0 0 0 0 0 0 0 0 0 0 0 0 0 0 0 0 0 0 0 0 0 0 0 0 0 0 0 0 0 0 0 0 0 0 0 0 0
0.129424 2.11855e-11 1.4961e-11 6.22456e-12 0.293812 0.236114 0 0 0 0 0 0 0 0 0 0 0 0 0 0 0 0 0 0 0 0 0 0 0 0 0 0 0 0 0 0 0 0 0 0 0 0 0 0 0 0 0 0
0.136067 1.89966e-11 1.3263e-11 5.73362e-12 0.301824 0.219445 0 0 0 0 0 0 0 0 0 0 0 0 0 0 0 0 0 0 0 0 0 0 0 0 0 0 0 0 0 0 0 0 0 0 0 0 0 0 0 0 0 0
0.143051 1.5903e-11 1.08213e-11 5.08162e-12 0.31954 0.206812 0 0 0 0 0 0 0 0 0 0 0 0 0 0 0 0 0 0 0 0 0 0 0 0 0 0 0 0 0 0 0 0 0 0 0 0 0 0 0 0 0 0
0.150394 1.21017e-11 7.88138e-12 4.22034e-12 0.348739 0.197106 0 0 0 0 0 0 0 0 0 0 0 0 0 0 0 0 0 0 0 0 0 0 0 0 0 0 0 0 0 0 0 0 0 0 0 0 0 0 0 0 0 0
0.158114 8.45557e-12 5.18021e-12 3.27536e-12 0.387361 0.177849 0 0 0 0 0 0 0 0 0 0 0 0 0 0 0 0 0 0 0 0 0 0 0 0 0 0 0 0 0 0 0 0 0 0 0 0 0 0 0 0 0 0
0.16623 5.69693e-12 3.26712e-12 2.4298e-12 0.426511 0.154319 0 0 0 0 0 0 0 0 0 0 0 0 0 0 0 0 0 0 0 0 0 0 0 0 0 0 0 0 0 0 0 0 0 0 0 0 0 0 0 0 0 0
0.174762 4.02517e-12 2.23389e-12 1.79128e-12 0.44502 0.133378 0 0 0 0 0 0 0 0 0 0 0 0 0 0 0 0 0 0 0 0 0 0 0 0 0 0 0 0 0 0 0 0 0 0 0 0 0 0 0 0 0 0
0.183733 2.85221e-12 1.53121e-12 1.321e-12 0.463149 0.11599 0 0 0 0 0 0 0 0 0 0 0 0 0 0 0 0 0 0 0 0 0 0 0 0 0 0 0 0 0 0 0 0 0 0 0 0 0 0 0 0 0 0
0.193164 2.10045e-12 1.11829e-12 9.82162e-13 0.467596 0.101731 0 0 0 0 0 0 0 0 0 0 0 0 0 0 0 0 0 0 0 0 0 0 0 0 0 0 0 0 0 0 0 0 0 0 0 0 0 0 0 0 0 0
0.203079 1.74151e-12 1.00173e-12 7.39776e-13 0.424791 0.0898198 0 0 0 0 0 0 0 0 0 0 0 0 0 0 0 0 0 0 0 0 0 0 0 0 0 0 0 0 0 0 0 0 0 0 0 0 0 0 0 0 0 0
0.213503 1.5036e-12 9.3564e-13 5.67956e-13 0.377732 0.0796667 0 0 0 0 0 0 0 0 0 0 0 0 0 0 0 0 0 0 0 0 0 0 0 0 0 0 0 0 0 0 0 0 0 0 0 0 0 0 0 0 0 0
0.224463 1.31087e-12 8.66274e-13 4.44593e-13 0.339159 0.0709818 0 0 0 0 0 0 0 0 0 0 0 0 0 0 0 0 0 0 0 0 0 0 0 0 0 0 0 0 0 0 0 0 0 0 0 0 0 0 0 0 0 0
0.235984 1.16264e-12 8.1216e-13 3.50481e-13 0.301453 0.0635211 0 0 0 0 0 0 0 0 0 0 0 0 0 0 0 0 0 0 0 0 0 0 0 0 0 0 0 0 0 0 0 0 0 0 0 0 0 0 0 0 0 0
0.248097 1.04323e-12 7.65331e-13 2.77897e-13 0.266382 0.0570262 0 0 0 0 0 0 0 0 0 0 0 0 0 0 0 0 0 0 0 0 0 0 0 0 0 0 0 0 0 0 0 0 0 0 0 0 0 0 0 0 0 0
0.260832 9.4729e-13 7.25451e-13 2.21839e-13 0.234182 0.05129 0 0 0 0 0 0 0 0 0 0 0 0 0 0 0 0 0 0 0 0 0 0 0 0 0 0 0 0 0 0 0 0 0 0 0 0 0 0 0 0 0 0
0.274221 8.65678e-13 6.8787e-13 1.77808e-13 0.205397 0.0461842 0 0 0 0 0 0 0 0 0 0 0 0 0 0 0 0 0 0 0 0 0 0 0 0 0 0 0 0 0 0 0 0 0 0 0 0 0 0 0 0 0 0
0.288297 7.95028e-13 6.51968e-13 1.4306e-13 0.179944 0.0416342 0 0 0 0 0 0 0 0 0 0 0 0 0 0 0 0 0 0 0 0 0 0 0 0 0 0 0 0 0 0 0 0 0 0 0 0 0 0 0 0 0 0
0.303095 7.3317e-13 6.17779e-13 1.1539e-13 0.157385 0.0375625 0 0 0 0 0 0 0 0 0 0 0 0 0 0 0 0 0 0 0 0 0 0 0 0 0 0 0 0 0 0 0 0 0 0 0 0 0 0 0 0 0 0
0.318653 6.78506e-13 5.85187e-13 9.33197e-14 0.137537 0.0339044 0 0 0 0 0 0 0 0 0 0 0 0 0 0 0 0 0 0 0 0 0 0 0 0 0 0 0 0 0 0 0 0 0 0 0 0 0 0 0 0 0 0
0.335009 6.29852e-13 5.54225e-13 7.5627e-14 0.120071 0.0306157 0 0 0 0 0 0 0 0 0 0 0 0 0 0 0 0 0 0 0 0 0 0 0 0 0 0 0 0 0 0 0 0 0 0 0 0 0 0 0 0 0 0
0.352205 5.86312e-13 5.2492e-13 6.13914e-14 0.104708 0.0276569 0 0 0 0 0 0 0 0 0 0 0 0 0 0 0 0 0 0 0 0 0 0 0 0 0 0 0 0 0 0 0 0 0 0 0 0 0 0 0 0 0 0
0.370284 5.47069e-13 4.97136e-13 4.99333e-14 0.0912743 0.0249919 0 0 0 0 0 0 0 0 0 0 0 0 0 0 0 0 0 0 0 0 0 0 0 0 0 0 0 0 0 0 0 0 0 0 0 0 0 0 0 0 0 0
0.389291 5.11526e-13 4.70877e-13 4.06485e-14 0.0794653 0.0225898 0 0 0 0 0 0 0 0 0 0 0 0 0 0 0 0 0 0 0 0 0 0 0 0 0 0 0 0 0 0 0 0 0 0 0 0 0 0 0 0 0 0
0.409273 4.7916e-13 4.46023e-13 3.31369e-14 0.0691562 0.0204218 0 0 0 0 0 0 0 0 0 0 0 0 0 0 0 0 0 0 0 0 0 0 0 0 0 0 0 0 0 0 0 0 0 0 0 0 0 0 0 0 0 0
0.430281 4.49603e-13 4.2257e-13 2.70338e-14 0.060128 0.0184634 0 0 0 0 0 0 0 0 0 0 0 0 0 0 0 0 0 0 0 0 0 0 0 0 0 0 0 0 0 0 0 0 0 0 0 0 0 0 0 0 0 0
0.452368 4.2247e-13 4.00398e-13 2.2072e-14 0.0522451 0.0166994 0 0 0 0 0 0 0 0 0 0 0 0 0 0 0 0 0 0 0 0 0 0 0 0 0 0 0 0 0 0 0 0 0 0 0 0 0 0 0 0 0 0
0.475588 3.97462e-13 3.79431e-13 1.80312e-14 0.0453658 0.0151038 0 0 0 0 0 0 0 0 0 0 0 0 0 0 0 0 0 0 0 0 0 0 0 0 0 0 0 0 0 0 0 0 0 0 0 0 0 0 0 0 0 0
0.5 3.74365e-13 3.59626e-13 1.47394e-14 0.0393718 0.0136608 0 0 0 0 0 0 0 0 0 0 0 0 0 0 0 0 0 0 0 0 0 0 0 0 0 0 0 0 0 0 0 0 0 0 0 0 0 0 0 0 0 0
0.525665 3.52966e-13 3.40908e-13 1.20578e-14 0.0341615 0.0123561 0 0 0 0 0 0 0 0 0 0 0 0 0 0 0 0 0 0 0 0 0 0 0 0 0 0 0 0 0 0 0 0 0 0 0 0 0 0 0 0 0 0
0.552648 3.33044e-13 3.23175e-13 9.86965e-15 0.0296346 0.0111774 0 0 0 0 0 0 0 0 0 0 0 0 0 0 0 0 0 0 0 0 0 0 0 0 0 0 0 0 0 0 0 0 0 0 0 0 0 0 0 0 0 0
0.581015 3.14558e-13 3.06481e-13 8.07657e-15 0.025676 0.0101135 0 0 0 0 0 0 0 0 0 0 0 0 0 0 0 0 0 0 0 0 0 0 0 0 0 0 0 0 0 0 0 0 0 0 0 0 0 0 0 0 0 0
0.610839 2.97314e-13 2.90704e-13 6.61048e-15 0.022234 0.00914998 0 0 0 0 0 0 0 0 0 0 0 0 0 0 0 0 0 0 0 0 0 0 0 0 0 0 0 0 0 0 0 0 0 0 0 0 0 0 0 0 0 0
0.642193 2.81066e-13 2.75652e-13 5.4138e-15 0.0192617 0.00827742 0 0 0 0 0 0 0 0 0 0 0 0 0 0 0 0 0 0 0 0 0 0 0 0 0 0 0 0 0 0 0 0 0 0 0 0 0 0 0 0 0 0
0.675157 2.65917e-13 2.61484e-13 4.4338e-15 0.0166736 0.00748986 0 0 0 0 0 0 0 0 0 0 0 0 0 0 0 0 0 0 0 0 0 0 0 0 0 0 0 0 0 0 0 0 0 0 0 0 0 0 0 0 0 0
0.709813 2.51809e-13 2.48179e-13 3.63065e-15 0.0144182 0.00677729 0 0 0 0 0 0 0 0 0 0 0 0 0 0 0 0 0 0 0 0 0 0 0 0 0 0 0 0 0 0 0 0 0 0 0 0 0 0 0 0 0 0
0.746248 2.38585e-13 2.35611e-13 2.97366e-15 0.0124638 0.00613203 0 0 0 0 0 0 0 0 0 0 0 0 0 0 0 0 0 0 0 0 0 0 0 0 0 0 0 0 0 0 0 0 0 0 0 0 0 0 0 0 0 0
0.784553 2.26161e-13 2.23727e-13 2.43484e-15 0.010766 0.00554767 0 0 0 0 0 0 0 0 0 0 0 0 0 0 0 0 0 0 0 0 0 0 0 0 0 0 0 0 0 0 0 0 0 0 0 0 0 0 0 0 0 0
0.824824 2.14491e-13 2.12497e-13 1.99391e-15 0.009296 0.00502012 0 0 0 0 0 0 0 0 0 0 0 0 0 0 0 0 0 0 0 0 0 0 0 0 0 0 0 0 0 0 0 0 0 0 0 0 0 0 0 0 0 0
0.867162 2.03442e-13 2.01809e-13 1.63276e-15 0.00802566 0.0045429 0 0 0 0 0 0 0 0 0 0 0 0 0 0 0 0 0 0 0 0 0 0 0 0 0 0 0 0 0 0 0 0 0 0 0 0 0 0 0 0 0 0
0.911674 1.93168e-13 1.91831e-13 1.33631e-15 0.00691787 0.00411075 0 0 0 0 0 0 0 0 0 0 0 0 0 0 0 0 0 0 0 0 0 0 0 0 0 0 0 0 0 0 0 0 0 0 0 0 0 0 0 0 0 0
0.95847 1.83593e-13 1.825e-13 1.09292e-15 0.00595296 0.00371954 0 0 0 0 0 0 0 0 0 0 0 0 0 0 0 0 0 0 0 0 0 0 0 0 0 0 0 0 0 0 0 0 0 0 0 0 0 0 0 0 0 0
1.00767 1.74556e-13 1.73664e-13 8.91606e-16 0.00510786 0.00336581 0 0 0 0 0 0 0 0 0 0 0 0 0 0 0 0 0 0 0 0 0 0 0 0 0 0 0 0 0 0 0 0 0 0 0 0 0 0 0 0 0 0
1.05939 1.69719e-13 1.68992e-13 7.27539e-16 0.00428672 0.00304583 0 0 0 0 0 0 0 0 0 0 0 0 0 0 0 0 0 0 0 0 0 0 0 0 0 0 0 0 0 0 0 0 0 0 0 0 0 0 0 0 0 0
1.11377 1.65666e-13 1.65071e-13 5.94547e-16 0.00358883 0.00275605 0 0 0 0 0 0 0 0 0 0 0 0 0 0 0 0 0 0 0 0 0 0 0 0 0 0 0 0 0 0 0 0 0 0 0 0 0 0 0 0 0 0
1.17094 1.62367e-13 1.6188e-13 4.8686e-16 0.00299852 0.0024936 0 0 0 0 0 0 0 0 0 0 0 0 0 0 0 0 0 0 0 0 0 0 0 0 0 0 0 0 0 0 0 0 0 0 0 0 0 0 0 0 0 0
1.23105 1.59447e-13 1.59049e-13 3.98556e-16 0.00249961 0.00225616 0 0 0 0 0 0 0 0 0 0 0 0 0 0 0 0 0 0 0 0 0 0 0 0 0 0 0 0 0 0 0 0 0 0 0 0 0 0 0 0 0 0
1.29424 1.5631e-13 1.55984e-13 3.26429e-16 0.00208835 0.00204137 0 0 0 0 0 0 0 0 0 0 0 0 0 0 0 0 0 0 0 0 0 0 0 0 0 0 0 0 0 0 0 0 0 0 0 0 0 0 0 0 0 0
1.36067 1.52837e-13 1.52569e-13 2.68514e-16 0.00175686 0.00184717 0 0 0 0 0 0 0 0 0 0 0 0 0 0 0 0 0 0 0 0 0 0 0 0 0 0 0 0 0 0 0 0 0 0 0 0 0 0 0 0 0 0
1.43051 1.49138e-13 1.48919e-13 2.18461e-16 0.00146483 0.00167107 0 0 0 0 0 0 0 0 0 0 0 0 0 0 0 0 0 0 0 0 0 0 0 0 0 0 0 0 0 0 0 0 0 0 0 0 0 0 0 0 0 0
1.50394 1.45358e-13 1.45179e-13 1.78553e-16 0.00122837 0.0015118 0 0 0 0 0 0 0 0 0 0 0 0 0 0 0 0 0 0 0 0 0 0 0 0 0 0 0 0 0 0 0 0 0 0 0 0 0 0 0 0 0 0
1.58114 1.41716e-13 1.4157e-13 1.461e-16 0.00103094 0.00136789 0 0 0 0 0 0 0 0 0 0 0 0 0 0 0 0 0 0 0 0 0 0 0 0 0 0 0 0 0 0 0 0 0 0 0 0 0 0 0 0 0 0
1.6623 1.38392e-13 1.38273e-13 1.19534e-16 0.000863736 0.00123744 0 0 0 0 0 0 0 0 0 0 0 0 0 0 0 0 0 0 0 0 0 0 0 0 0 0 0 0 0 0 0 0 0 0 0 0 0 0 0 0 0 0
1.74763 1.3558e-13 1.35483e-13 9.77909e-17 0.000721276 0.00111934 0 0 0 0 0 0 0 0 0 0 0 0 0 0 0 0 0 0 0 0 0 0 0 0 0 0 0 0 0 0 0 0 0 0 0 0 0 0 0 0 0 0
1.83733 1.33471e-13 1.33391e-13 7.99665e-17 0.000599131 0.00101237 0 0 0 0 0 0 0 0 0 0 0 0 0 0 0 0 0 0 0 0 0 0 0 0 0 0 0 0 0 0 0 0 0 0 0 0 0 0 0 0 0 0
1.93164 1.32156e-13 1.32091e-13 6.53672e-17 0.000494622 0.000915739 0 0 0 0 0 0 0 0 0 0 0 0 0 0 0 0 0 0 0 0 0 0 0 0 0 0 0 0 0 0 0 0 0 0 0 0 0 0 0 0 0 0
2.03079 1.31628e-13 1.31575e-13 5.34651e-17 0.000406182 0.000828306 0 0 0 0 0 0 0 0 0 0 0 0 0 0 0 0 0 0 0 0 0 0 0 0 0 0 0 0 0 0 0 0 0 0 0 0 0 0 0 0 0 0
2.13503 1.31702e-13 1.31659e-13 4.37704e-17 0.000332343 0.000749075 0 0 0 0 0 0 0 0 0 0 0 0 0 0 0 0 0 0 0 0 0 0 0 0 0 0 0 0 0 0 0 0 0 0 0 0 0 0 0 0 0 0
2.24463 1.31928e-13 1.31892e-13 3.58664e-17 0.000271863 0.00067731 0 0 0 0 0 0 0 0 0 0 0 0 0 0 0 0 0 0 0 0 0 0 0 0 0 0 0 0 0 0 0 0 0 0 0 0 0 0 0 0 0 0
2.35984 1.32205e-13 1.32175e-13 2.94072e-17 0.000222437 0.00061248 0 0 0 0 0 0 0 0 0 0 0 0 0 0 0 0 0 0 0 0 0 0 0 0 0 0 0 0 0 0 0 0 0 0 0 0 0 0 0 0 0 0
2.48097 1.32686e-13 1.32662e-13 2.412e-17 0.000181783 0.000553737 0 0 0 0 0 0 0 0 0 0 0 0 0 0 0 0 0 0 0 0 0 0 0 0 0 0 0 0 0 0 0 0 0 0 0 0 0 0 0 0 0 0
2.60832 1.33404e-13 1.33384e-13 1.97947e-17 0.000148382 0.000500564 0 0 0 0 0 0 0 0 0 0 0 0 0 0 0 0 0 0 0 0 0 0 0 0 0 0 0 0 0 0 0 0 0 0 0 0 0 0 0 0 0 0
2.74221 1.3452e-13 1.34504e-13 1.62582e-17 0.000120861 0.000452452 0 0 0 0 0 0 0 0 0 0 0 0 0 0 0 0 0 0 0 0 0 0 0 0 0 0 0 0 0 0 0 0 0 0 0 0 0 0 0 0 0 0
2.88297 1.36064e-13 1.36051e-13 1.33759e-17 9.83057e-05 0.000408881 0 0 0 0 0 0 0 0 0 0 0 0 0 0 0 0 0 0 0 0 0 0 0 0 0 0 0 0 0 0 0 0 0 0 0 0 0 0 0 0 0 0
3.03095 1.37999e-13 1.37988e-13 1.10472e-17 8.00526e-05 0.00036948 0 0 0 0 0 0 0 0 0 0 0 0 0 0 0 0 0 0 0 0 0 0 0 0 0 0 0 0 0 0 0 0 0 0 0 0 0 0 0 0 0 0
3.18653 1.38646e-13 1.38637e-13 9.14522e-18 6.5961e-05 0.000333809 0 0 0 0 0 0 0 0 0 0 0 0 0 0 0 0 0 0 0 0 0 0 0 0 0 0 0 0 0 0 0 0 0 0 0 0 0 0 0 0 0 0
3.35009 1.42141e-13 1.42133e-13 7.47714e-18 5.26038e-05 0.000301497 0 0 0 0 0 0 0 0 0 0 0 0 0 0 0 0 0 0 0 0 0 0 0 0 0 0 0 0 0 0 0 0 0 0 0 0 0 0 0 0 0 0
3.52205 1.41623e-13 1.41616e-13 6.50591e-18 4.59384e-05 0.000272248 0 0 0 0 0 0 0 0 0 0 0 0 0 0 0 0 0 0 0 0 0 0 0 0 0 0 0 0 0 0 0 0 0 0 0 0 0 0 0 0 0 0
3.70284 1.32196e-13 1.32191e-13 5.29265e-18 4.00362e-05 0.000245795 0 0 0 0 0 0 0 0 0 0 0 0 0 0 0 0 0 0 0 0 0 0 0 0 0 0 0 0 0 0 0 0 0 0 0 0 0 0 0 0 0 0
3.89291 1.29499e-13 1.29495e-13 4.33682e-18 3.34891e-05 0.000221821 0 0 0 0 0 0 0 0 0 0 0 0 0 0 0 0 0 0 0 0 0 0 0 0 0 0 0 0 0 0 0 0 0 0 0 0 0 0 0 0 0 0
4.09273 1.27373e-13 1.27369e-13 3.55608e-18 2.79186e-05 0.00020008 0 0 0 0 0 0 0 0 0 0 0 0 0 0 0 0 0 0 0 0 0 0 0 0 0 0 0 0 0 0 0 0 0 0 0 0 0 0 0 0 0 0
4.30281 1.25837e-13 1.25834e-13 2.91721e-18 2.31825e-05 0.000180378 0 0 0 0 0 0 0 0 0 0 0 0 0 0 0 0 0 0 0 0 0 0 0 0 0 0 0 0 0 0 0 0 0 0 0 0 0 0 0 0 0 0
4.52368 1.2494e-13 1.24937e-13 2.39559e-18 1.91739e-05 0.000162549 0 0 0 0 0 0 0 0 0 0 0 0 0 0 0 0 0 0 0 0 0 0 0 0 0 0 0 0 0 0 0 0 0 0 0 0 0 0 0 0 0 0
4.75588 1.24509e-13 1.24507e-13 1.97051e-18 1.58263e-05 0.000146375 0 0 0 0 0 0 0 0 0 0 0 0 0 0 0 0 0 0 0 0 0 0 0 0 0 0 0 0 0 0 0 0 0 0 0 0 0 0 0 0 0 0
5 1.24192e-13 1.2419e-13 1.62422e-18 1.30783e-05 0.000131667 0 0 0 0 0 0 0 0 0 0 0 0 0 0 0 0 0 0 0 0 0 0 0 0 0 0 0 0 0 0 0 0 0 0 0 0 0 0 0 0 0 0
5.25665 1.23704e-13 1.23703e-13 1.34023e-18 1.08342e-05 0.000118302 0 0 0 0 0 0 0 0 0 0 0 0 0 0 0 0 0 0 0 0 0 0 0 0 0 0 0 0 0 0 0 0 0 0 0 0 0 0 0 0 0 0
5.52648 1.23043e-13 1.23042e-13 1.10583e-18 8.98736e-06 0.000106206 0 0 0 0 0 0 0 0 0 0 0 0 0 0 0 0 0 0 0 0 0 0 0 0 0 0 0 0 0 0 0 0 0 0 0 0 0 0 0 0 1.4013e-45 0
5.81015 1.22125e-13 1.22124e-13 9.11382e-19 7.46268e-06 9.51788e-05 0 0 0 0 0 0 0 0 0 0 0 0 0 0 0 0 0 0 0 0 0 0 0 0 0 0 0 0 0 0 1.4013e-45 0 2.8026e-45 0 9.80909e-45 0 2.24208e-44 0 5.60519e-44 0 1.26117e-43 0
6.10839 1.21103e-13 1.21102e-13 7.49589e-19 6.1897e-06 8.51564e-05 0 0 0 0 0 0 0 0 0 0 0 0 0 0 0 0 0 0 0 0 0 0 1.4013e-45 0 2.8026e-45 0 1.26117e-44 0 4.06377e-44 0 1.20512e-43 0 3.30706e-43 0 8.37976e-43 0 2.00105e-42 0 4.60607e-42 0 1.00431e-41 0
6.42193 1.19928e-13 1.19928e-13 6.14278e-19 5.12205e-06 7.60128e-05 0 0 0 0 0 0 0 0 0 0 0 0 0 0 0 0 0 0 2.8026e-45 0 1.82169e-44 0 7.84727e-44 0 3.08286e-43 0 1.0832e-42 0 3.38133e-42 0 9.44896e-42 0 2.47834e-41 0 6.00036e-41 0 1.37308e-40 0 3.03535e-40 0 6.37036e-40 0
6.75157 1.19079e-13 1.19079e-13 4.99441e-19 4.19419e-06 6.75861e-05 0 0 0 0 0 0 0 0 0 0 0 0 0 0 5.60519e-45 0 4.62428e-44 0 2.97075e-43 0 1.51761e-42 0 6.29463e-42 0 2.29491e-41 0 7.58243e-41 0 2.23909e-40 0 5.95162e-40 0 1.48926e-39 0 3.45328e-39 0 7.58918e-39 0 1.61394e-38 0 3.2668e-38 0
7.09813 1.17158e-13 1.17158e-13 4.05832e-19 3.46398e-06 5.96511e-05 0 0 0 0 0 7.00649e-45 0 0 0 0 2.8026e-45 0 4.34403e-44 0 4.83448e-43 0 3.69663e-42 0 2.16865e-41 0 1.02309e-40 0 3.95687e-40 0 1.35446e-39 0 4.22147e-39 0 1.1824e-38 0 2.99639e-38 0 7.16944e-38 0 1.59556e-37 0 3.37427e-37 0 6.91627e-37 0 1.35256e-36 0
7.46248 1.15605e-13 1.15605e-13 3.21639e-19 2.78223e-06 5.19272e-05 0 0 0 1.4013e-45 0 3.75548e-43 0 0 5.60519e-45 0 2.11596e-43 0 3.4556e-42 0 3.4109e-41 0 2.36141e-40 0 1.27055e-39 0 5.55685e-39 0 2.01181e-38 0 6.485e-38 0 1.91206e-37 0 5.09288e-37 0 1.23334e-36 0 2.82793e-36 0 6.05249e-36 0 1.23402e-35 0 2.44228e-35 0 4.6223e-35 0
7.84553 1.13982e-13 1.13982e-13 2.4345e-19 2.13586e-06 4.45595e-05 0 0 0 3.64338e-44 0 1.64639e-41 5.60519e-45 0 5.33895e-43 0 1.52896e-41 0 2.18488e-40 0 1.9282e-39 0 1.21457e-38 0 6.01951e-38 0 2.44968e-37 0 8.3289e-37 0 2.53566e-36 0 7.09181e-36 0 1.80071e-35 0 4.17646e-35 0 9.19605e-35 0 1.89641e-34 0 3.73433e-34 0 7.14844e-34 0 1.31144e-33 0
8.24824 1.27051e-13 1.27051e-13 1.79118e-19 1.4098e-06 3.83005e-05 0 7.00649e-45 0 1.86653e-42 1.4013e-45 6.9013e-40 5.36697e-43 0 4.12977e-41 0 1.00313e-39 0 1.25892e-38 0 9.98959e-38 0 5.7517e-37 0 2.6363e-36 0 1.0018e-35 0 3.20857e-35 0 9.25143e-35 0 2.46074e-34 0 5.97029e-34 0 1.32899e-33 0 2.81564e-33 0 5.6048e-33 0 1.06776e-32 0 1.98018e-32 0 3.52674e-32 0
8.67162 1.54311e-13 1.54311e-13 1.55311e-19 1.00648e-06 3.33326e-05 0 3.82554e-43 0 8.65974e-41 9.66896e-44 2.68045e-38 4.48289e-41 0 2.79309e-39 0 5.80603e-38 0 6.43993e-37 0 4.61861e-36 0 2.44141e-35 0 1.03886e-34 0 3.6986e-34 0 1.11914e-33 0 3.06428e-33 0 7.77037e-33 0 1.80542e-32 0 3.86487e-32 0 7.89354e-32 0 1.51935e-31 0 2.80481e-31 0 5.04706e-31 0 8.73914e-31 0
9.11674 2.11813e-13 2.11812e-13 1.84746e-19 8.72213e-07 2.84382e-05 0 1.99545e-41 0 3.86974e-39 9.96463e-42 1.00702e-36 3.40362e-39 0 1.73319e-37 0 3.1067e-36 0 3.06394e-35 0 1.99588e-34 0 9.72655e-34 0 3.85628e-33 0 1.2904e-32 0 3.69908e-32 0 9.64228e-32 0 2.33648e-31 0 5.20982e-31 0 1.07459e-30 0 2.11951e-30 0 3.95127e-30 0 7.07919e-30 0 1.23783e-29 0 2.08665e-29 0
9.5847 2.58195e-13 2.58194e-13 2.56236e-19 9.92414e-07 2.54497e-05 0 7.90435e-40 2.10195e-44 1.31684e-37 7.25423e-40 2.8935e-35 1.86364e-37 0 7.83301e-36 0 1.21951e-34 0 1.07556e-33 0 6.39372e-33 0 2.884e-32 0 1.06905e-31 0 3.37242e-31 0 9.18293e-31 0 2.28429e-30 0 5.30113e-30 0 1.13664e-29 0 2.26304e-29 0 4.318e-29 0 7.80867e-29 0 1.35975e-28 0 2.3136e-28 0 3.80194e-28 0
10.0767 2.49927e-13 2.49927e-13 2.81916e-19 1.12799e-06 2.41658e-05 0 2.13679e-38 1.60589e-42 3.06987e-36 3.39274e-38 5.71986e-34 6.64762e-36 0 2.3279e-34 0 3.16963e-33 0 2.51361e-32 0 1.36969e-31 0 5.74011e-31 0 1.99592e-30 0 5.95287e-30 0 1.54357e-29 0 3.67259e-29 0 8.17971e-29 0 1.68974e-28 0 3.25302e-28 0 6.01421e-28 0 1.0566e-27 0 1.79074e-27 0 2.96887e-27 0 4.76185e-27 0
10.5939 2.12793e-13 2.12793e-13 2.50249e-19 1.17602e-06 2.37652e-05 1.4013e-45 4.39254e-37 8.77829e-41 5.46249e-35 1.14092e-36 8.66611e-33 1.72767e-34 0 5.08581e-33 0 6.09587e-32 0 4.36937e-31 0 2.19175e-30 0 8.56461e-30 0 2.80224e-29 0 7.92351e-29 0 1.96116e-28 0 4.47281e-28 0 9.58003e-28 0 1.91014e-27 0 3.56158e-27 0 6.39005e-27 0 1.09216e-26 0 1.80394e-26 0 2.91784e-26 0 4.57329e-26 0
11.1377 1.77774e-13 1.77774e-13 2.10311e-19 1.18302e-06 2.43389e-05 1.45735e-43 7.70378e-36 3.79734e-39 8.32292e-34 3.10792e-35 1.12882e-31 3.68323e-33 0 9.19201e-32 0 9.75936e-31 0 6.3539e-30 0 2.94591e-29 0 1.07705e-28 0 3.32581e-28 0 8.93862e-28 0 2.11665e-27 0 4.63698e-27 0 9.56909e-27 0 1.84475e-26 0 3.3366e-26 0 5.81795e-26 0 9.68697e-26 0 1.56129e-25 0 2.46675e-25 0 3.78236e-25 0
11.7094 1.42768e-13 1.42768e-13 1.64451e-19 1.15187e-06 2.44848e-05 8.0953e-42 1.13553e-34 1.28647e-37 1.06956e-32 6.78177e-34 1.24503e-30 6.3658e-32 0 1.35775e-30 0 1.2845e-29 0 7.63187e-29 0 3.2831e-28 0 1.12671e-27 0 3.29281e-27 0 8.43287e-27 0 1.91459e-26 0 4.03676e-26 0 8.04093e-26 0 1.50126e-25 0 2.63788e-25 0 4.47644e-25 0 7.27009e-25 0 1.14476e-24 0 1.76872e-24 0 2.65603e-24 0
