# 2.86268e-05 1 64 : grain size, compostion index, size index
# Heating and cooling timescale: 0.00331208 1.12969e+06
# Ratio of heating to cooling to determine stochastic cutoff: 100
# Equilibrium emission is recorded even for those grains in the stochastic regime.
# Emission spectrum was computed for: 
# Type: IRSF
# Scales: 0.25 0.5 1 1.5 2 2.5 3 3.5 4 4.5 5 5.5 6 6.5 7 7.5 8 8.5 9 9.5 10
# StochasticallyHeated: 0 0 0 0 0 0 0 0 0 0 0 0 0 0 0 0 0 0 0 0 0
# Temperature: -1
# Wavelength  CExt  CAbs  CSca  Albedo G EqEm1 StEm1 EqEm2 StEm2 EqEm3 StEm3 EqEm4 StEm4 EqEm5 StEm5 EqEm6 StEm6 EqEm7 StEm7 EqEm8 StEm8 EqEm9 StEm9 EqEm10 StEm10 EqEm11 StEm11 EqEm12 StEm12 EqEm13 StEm13 EqEm14 StEm14 EqEm15 StEm15 EqEm16 StEm16 EqEm17 StEm17 EqEm18 StEm18 EqEm19 StEm19 EqEm20 StEm20 EqEm21 StEm21
0.05 5.4376e-09 1.91537e-09 3.52223e-09 0.647755 0.85758 0 0 0 0 0 0 0 0 0 0 0 0 0 0 0 0 0 0 0 0 0 0 0 0 0 0 0 0 0 0 0 0 0 0 0 0 0 0 0 0 0 0
0.0525665 5.46898e-09 1.9057e-09 3.56327e-09 0.651543 0.845701 0 0 0 0 0 0 0 0 0 0 0 0 0 0 0 0 0 0 0 0 0 0 0 0 0 0 0 0 0 0 0 0 0 0 0 0 0 0 0 0 0 0
0.0552647 5.50198e-09 1.90521e-09 3.59677e-09 0.653723 0.835828 0 0 0 0 0 0 0 0 0 0 0 0 0 0 0 0 0 0 0 0 0 0 0 0 0 0 0 0 0 0 0 0 0 0 0 0 0 0 0 0 0 0
0.0581015 5.53217e-09 1.91632e-09 3.61586e-09 0.653605 0.829705 0 0 0 0 0 0 0 0 0 0 0 0 0 0 0 0 0 0 0 0 0 0 0 0 0 0 0 0 0 0 0 0 0 0 0 0 0 0 0 0 0 0
0.0610839 5.56237e-09 1.90738e-09 3.65499e-09 0.657092 0.821418 0 0 0 0 0 0 0 0 0 0 0 0 0 0 0 0 0 0 0 0 0 0 0 0 0 0 0 0 0 0 0 0 0 0 0 0 0 0 0 0 0 0
0.0642193 5.60721e-09 1.86318e-09 3.74403e-09 0.667718 0.804474 0 0 0 0 0 0 0 0 0 0 0 0 0 0 0 0 0 0 0 0 0 0 0 0 0 0 0 0 0 0 0 0 0 0 0 0 0 0 0 0 0 0
0.0675157 5.67159e-09 1.83425e-09 3.83735e-09 0.676591 0.786181 0 0 0 0 0 0 0 0 0 0 0 0 0 0 0 0 0 0 0 0 0 0 0 0 0 0 0 0 0 0 0 0 0 0 0 0 0 0 0 0 0 0
0.0709813 5.74164e-09 1.8763e-09 3.86534e-09 0.673212 0.779783 0 0 0 0 0 0 0 0 0 0 0 0 0 0 0 0 0 0 0 0 0 0 0 0 0 0 0 0 0 0 0 0 0 0 0 0 0 0 0 0 0 0
0.0746248 5.80403e-09 1.95111e-09 3.85292e-09 0.663835 0.781124 0 0 0 0 0 0 0 0 0 0 0 0 0 0 0 0 0 0 0 0 0 0 0 0 0 0 0 0 0 0 0 0 0 0 0 0 0 0 0 0 0 0
0.0784553 5.85469e-09 2.03069e-09 3.824e-09 0.653152 0.785589 0 0 0 0 0 0 0 0 0 0 0 0 0 0 0 0 0 0 0 0 0 0 0 0 0 0 0 0 0 0 0 0 0 0 0 0 0 0 0 0 0 0
0.0824824 5.89258e-09 2.10882e-09 3.78376e-09 0.642123 0.790572 0 0 0 0 0 0 0 0 0 0 0 0 0 0 0 0 0 0 0 0 0 0 0 0 0 0 0 0 0 0 0 0 0 0 0 0 0 0 0 0 0 0
0.0867162 5.92729e-09 2.14784e-09 3.77944e-09 0.637634 0.788995 0 0 0 0 0 0 0 0 0 0 0 0 0 0 0 0 0 0 0 0 0 0 0 0 0 0 0 0 0 0 0 0 0 0 0 0 0 0 0 0 0 0
0.0911674 5.96962e-09 2.17181e-09 3.7978e-09 0.636189 0.783859 0 0 0 0 0 0 0 0 0 0 0 0 0 0 0 0 0 0 0 0 0 0 0 0 0 0 0 0 0 0 0 0 0 0 0 0 0 0 0 0 0 0
0.095847 6.00352e-09 2.21015e-09 3.79337e-09 0.631857 0.781563 0 0 0 0 0 0 0 0 0 0 0 0 0 0 0 0 0 0 0 0 0 0 0 0 0 0 0 0 0 0 0 0 0 0 0 0 0 0 0 0 0 0
0.100767 5.99993e-09 2.28926e-09 3.71067e-09 0.618452 0.790469 0 0 0 0 0 0 0 0 0 0 0 0 0 0 0 0 0 0 0 0 0 0 0 0 0 0 0 0 0 0 0 0 0 0 0 0 0 0 0 0 0 0
0.105939 5.98751e-09 2.3598e-09 3.62771e-09 0.60588 0.802467 0 0 0 0 0 0 0 0 0 0 0 0 0 0 0 0 0 0 0 0 0 0 0 0 0 0 0 0 0 0 0 0 0 0 0 0 0 0 0 0 0 0
0.111377 5.94071e-09 2.47172e-09 3.46899e-09 0.583935 0.825833 0 0 0 0 0 0 0 0 0 0 0 0 0 0 0 0 0 0 0 0 0 0 0 0 0 0 0 0 0 0 0 0 0 0 0 0 0 0 0 0 0 0
0.117094 5.93728e-09 2.61044e-09 3.32684e-09 0.560331 0.854658 0 0 0 0 0 0 0 0 0 0 0 0 0 0 0 0 0 0 0 0 0 0 0 0 0 0 0 0 0 0 0 0 0 0 0 0 0 0 0 0 0 0
0.123105 5.95227e-09 2.71417e-09 3.23809e-09 0.54401 0.874974 0 0 0 0 0 0 0 0 0 0 0 0 0 0 0 0 0 0 0 0 0 0 0 0 0 0 0 0 0 0 0 0 0 0 0 0 0 0 0 0 0 0
0.129424 5.97424e-09 2.81189e-09 3.16236e-09 0.529332 0.892978 0 0 0 0 0 0 0 0 0 0 0 0 0 0 0 0 0 0 0 0 0 0 0 0 0 0 0 0 0 0 0 0 0 0 0 0 0 0 0 0 0 0
0.136067 5.98778e-09 2.89514e-09 3.09264e-09 0.516492 0.907559 0 0 0 0 0 0 0 0 0 0 0 0 0 0 0 0 0 0 0 0 0 0 0 0 0 0 0 0 0 0 0 0 0 0 0 0 0 0 0 0 0 0
0.143051 5.974e-09 2.95134e-09 3.02265e-09 0.505969 0.91817 0 0 0 0 0 0 0 0 0 0 0 0 0 0 0 0 0 0 0 0 0 0 0 0 0 0 0 0 0 0 0 0 0 0 0 0 0 0 0 0 0 0
0.150394 5.89567e-09 2.94901e-09 2.94666e-09 0.499801 0.924563 0 0 0 0 0 0 0 0 0 0 0 0 0 0 0 0 0 0 0 0 0 0 0 0 0 0 0 0 0 0 0 0 0 0 0 0 0 0 0 0 0 0
0.158114 5.77642e-09 2.90309e-09 2.87333e-09 0.497424 0.923966 0 0 0 0 0 0 0 0 0 0 0 0 0 0 0 0 0 0 0 0 0 0 0 0 0 0 0 0 0 0 0 0 0 0 0 0 0 0 0 0 0 0
0.16623 5.75601e-09 2.82333e-09 2.93268e-09 0.509499 0.911915 0 0 0 0 0 0 0 0 0 0 0 0 0 0 0 0 0 0 0 0 0 0 0 0 0 0 0 0 0 0 0 0 0 0 0 0 0 0 0 0 0 0
0.174762 5.85533e-09 2.72722e-09 3.1281e-09 0.534232 0.885886 0 0 0 0 0 0 0 0 0 0 0 0 0 0 0 0 0 0 0 0 0 0 0 0 0 0 0 0 0 0 0 0 0 0 0 0 0 0 0 0 0 0
0.183733 5.99825e-09 2.63084e-09 3.36742e-09 0.5614 0.852858 0 0 0 0 0 0 0 0 0 0 0 0 0 0 0 0 0 0 0 0 0 0 0 0 0 0 0 0 0 0 0 0 0 0 0 0 0 0 0 0 0 0
0.193164 6.17492e-09 2.55318e-09 3.62174e-09 0.586524 0.82067 0 0 0 0 0 0 0 0 0 0 0 0 0 0 0 0 0 0 0 0 0 0 0 0 0 0 0 0 0 0 0 0 0 0 0 0 0 0 0 0 0 0
0.203079 6.36905e-09 2.51368e-09 3.85537e-09 0.605329 0.795091 0 0 0 0 0 0 0 0 0 0 0 0 0 0 0 0 0 0 0 0 0 0 0 0 0 0 0 0 0 0 0 0 0 0 0 0 0 0 0 0 0 0
0.213503 6.57833e-09 2.50159e-09 4.07675e-09 0.619723 0.775325 0 0 0 0 0 0 0 0 0 0 0 0 0 0 0 0 0 0 0 0 0 0 0 0 0 0 0 0 0 0 0 0 0 0 0 0 0 0 0 0 0 0
0.224463 6.7791e-09 2.52022e-09 4.25888e-09 0.628237 0.762185 0 0 0 0 0 0 0 0 0 0 0 0 0 0 0 0 0 0 0 0 0 0 0 0 0 0 0 0 0 0 0 0 0 0 0 0 0 0 0 0 0 0
0.235984 6.88353e-09 2.51752e-09 4.36601e-09 0.63427 0.751089 0 0 0 0 0 0 0 0 0 0 0 0 0 0 0 0 0 0 0 0 0 0 0 0 0 0 0 0 0 0 0 0 0 0 0 0 0 0 0 0 0 0
0.248097 6.8646e-09 2.51835e-09 4.34625e-09 0.63314 0.742951 0 0 0 0 0 0 0 0 0 0 0 0 0 0 0 0 0 0 0 0 0 0 0 0 0 0 0 0 0 0 0 0 0 0 0 0 0 0 0 0 0 0
0.260832 6.79879e-09 2.54838e-09 4.25041e-09 0.625171 0.738337 0 0 0 0 0 0 0 0 0 0 0 0 0 0 0 0 0 0 0 0 0 0 0 0 0 0 0 0 0 0 0 0 0 0 0 0 0 0 0 0 0 0
0.274221 6.7369e-09 2.59116e-09 4.14574e-09 0.615378 0.735735 0 0 0 0 0 0 0 0 0 0 0 0 0 0 0 0 0 0 0 0 0 0 0 0 0 0 0 0 0 0 0 0 0 0 0 0 0 0 0 0 0 0
0.288297 6.70829e-09 2.67468e-09 4.03361e-09 0.601288 0.738706 0 0 0 0 0 0 0 0 0 0 0 0 0 0 0 0 0 0 0 0 0 0 0 0 0 0 0 0 0 0 0 0 0 0 0 0 0 0 0 0 0 0
0.303095 6.70736e-09 2.74286e-09 3.9645e-09 0.591067 0.7404 0 0 0 0 0 0 0 0 0 0 0 0 0 0 0 0 0 0 0 0 0 0 0 0 0 0 0 0 0 0 0 0 0 0 0 0 0 0 0 0 0 0
0.318653 6.72059e-09 2.80851e-09 3.91209e-09 0.582104 0.741885 0 0 0 0 0 0 0 0 0 0 0 0 0 0 0 0 0 0 0 0 0 0 0 0 0 0 0 0 0 0 0 0 0 0 0 0 0 0 0 0 0 0
0.335009 6.74475e-09 2.87239e-09 3.87236e-09 0.574129 0.742575 0 0 0 0 0 0 0 0 0 0 0 0 0 0 0 0 0 0 0 0 0 0 0 0 0 0 0 0 0 0 0 0 0 0 0 0 0 0 0 0 0 0
0.352205 6.77447e-09 2.92649e-09 3.84799e-09 0.568013 0.741521 0 0 0 0 0 0 0 0 0 0 0 0 0 0 0 0 0 0 0 0 0 0 0 0 0 0 0 0 0 0 0 0 0 0 0 0 0 0 0 0 0 0
0.370284 6.81202e-09 2.97543e-09 3.83659e-09 0.563209 0.739353 0 0 0 0 0 0 0 0 0 0 0 0 0 0 0 0 0 0 0 0 0 0 0 0 0 0 0 0 0 0 0 0 0 0 0 0 0 0 0 0 0 0
0.389291 6.85448e-09 3.02103e-09 3.83345e-09 0.559262 0.735829 0 0 0 0 0 0 0 0 0 0 0 0 0 0 0 0 0 0 0 0 0 0 0 0 0 0 0 0 0 0 0 0 0 0 0 0 0 0 0 0 0 0
0.409273 6.8957e-09 3.06333e-09 3.83237e-09 0.555762 0.731219 0 0 0 0 0 0 0 0 0 0 0 0 0 0 0 0 0 0 0 0 0 0 0 0 0 0 0 0 0 0 0 0 0 0 0 0 0 0 0 0 0 0
0.430281 6.93923e-09 3.10201e-09 3.83722e-09 0.552975 0.726016 0 0 0 0 0 0 0 0 0 0 0 0 0 0 0 0 0 0 0 0 0 0 0 0 0 0 0 0 0 0 0 0 0 0 0 0 0 0 0 0 0 0
0.452368 6.99465e-09 3.14538e-09 3.84927e-09 0.550316 0.721739 0 0 0 0 0 0 0 0 0 0 0 0 0 0 0 0 0 0 0 0 0 0 0 0 0 0 0 0 0 0 0 0 0 0 0 0 0 0 0 0 0 0
0.475588 7.05514e-09 3.19249e-09 3.86265e-09 0.547495 0.717929 0 0 0 0 0 0 0 0 0 0 0 0 0 0 0 0 0 0 0 0 0 0 0 0 0 0 0 0 0 0 0 0 0 0 0 0 0 0 0 0 0 0
0.5 7.09553e-09 3.23548e-09 3.86005e-09 0.544011 0.71196 0 0 0 0 0 0 0 0 0 0 0 0 0 0 0 0 0 0 0 0 0 0 0 0 0 0 0 0 0 0 0 0 0 0 0 0 0 0 0 0 0 0
0.525665 7.10813e-09 3.28051e-09 3.82762e-09 0.538485 0.702769 0 0 0 0 0 0 0 0 0 0 0 0 0 0 0 0 0 0 0 0 0 0 0 0 0 0 0 0 0 0 0 0 0 0 0 0 0 0 0 0 0 0
0.552648 7.09684e-09 3.33209e-09 3.76474e-09 0.530482 0.691917 0 0 0 0 0 0 0 0 0 0 0 0 0 0 0 0 0 0 0 0 0 0 0 0 0 0 0 0 0 0 0 0 0 0 0 0 0 0 0 0 0 0
0.581015 7.01701e-09 3.33584e-09 3.68118e-09 0.524607 0.670329 0 0 0 0 0 0 0 0 0 0 0 0 0 0 0 0 0 0 0 0 0 0 0 0 0 0 0 0 0 0 0 0 0 0 0 0 0 0 0 0 0 0
0.610839 7.0093e-09 3.35606e-09 3.65324e-09 0.521199 0.635694 0 0 0 0 0 0 0 0 0 0 0 0 0 0 0 0 0 0 0 0 0 0 0 0 0 0 0 0 0 0 0 0 0 0 0 0 0 0 0 0 0 0
0.642193 7.13429e-09 3.40722e-09 3.72707e-09 0.522416 0.605889 0 0 0 0 0 0 0 0 0 0 0 0 0 0 0 0 0 0 0 0 0 0 0 0 0 0 0 0 0 0 0 0 0 0 0 0 0 0 0 0 0 0
0.675157 7.25198e-09 3.40953e-09 3.84245e-09 0.529849 0.591542 0 0 0 0 0 0 0 0 0 0 0 0 0 0 0 0 0 0 0 0 0 0 0 0 0 0 0 0 0 0 0 0 0 0 0 0 0 0 0 0 0 0
0.709813 7.30089e-09 3.35831e-09 3.94257e-09 0.540013 0.575955 0 0 0 0 0 0 0 0 0 0 0 0 0 0 0 0 0 0 0 0 0 0 0 0 0 0 0 0 0 0 0 0 0 0 0 0 0 0 0 0 0 0
0.746248 7.6352e-09 3.39793e-09 4.23727e-09 0.554965 0.547156 0 0 0 0 0 0 0 0 0 0 0 0 0 0 0 0 0 0 0 0 0 0 0 0 0 0 0 0 0 0 0 0 0 0 0 0 0 0 0 0 0 0
0.784553 7.83922e-09 3.21658e-09 4.62264e-09 0.589681 0.514623 0 0 0 0 0 0 0 0 0 0 0 0 0 0 0 0 0 0 0 0 0 0 0 0 0 0 0 0 0 0 0 0 0 0 0 0 0 0 0 0 0 0
0.824824 8.12865e-09 3.06048e-09 5.06817e-09 0.623495 0.50961 0 0 0 0 0 0 0 0 0 0 0 0 0 0 0 0 0 0 0 0 0 0 0 0 0 0 0 0 0 0 0 0 0 0 0 0 0 0 0 0 0 0
0.867162 8.54209e-09 3.06553e-09 5.47656e-09 0.641126 0.516102 0 0 0 0 0 0 0 0 0 0 0 0 0 0 0 0 0 0 0 0 0 0 0 0 0 0 0 0 0 0 0 0 0 0 0 0 0 0 0 0 0 0
0.911674 9.063e-09 3.17349e-09 5.88951e-09 0.649841 0.522636 0 0 0 0 0 0 0 0 0 0 0 0 0 0 0 0 0 0 0 0 0 0 0 0 0 0 0 0 0 0 0 0 0 0 0 0 0 0 0 0 0 0
0.95847 9.4517e-09 3.28417e-09 6.16752e-09 0.652531 0.511228 0 0 0 0 0 0 0 0 0 0 0 0 0 0 0 0 0 0 0 0 0 0 0 0 0 0 0 0 0 0 0 0 0 0 0 0 0 0 0 0 0 0
1.00767 8.98016e-09 3.04634e-09 5.93382e-09 0.66077 0.474944 0 0 0 0 0 0 0 0 0 0 0 0 0 0 0 0 0 0 0 0 0 0 0 0 0 0 0 0 0 0 0 0 0 0 0 0 0 0 0 0 0 0
1.05939 8.55293e-09 2.78995e-09 5.76298e-09 0.673802 0.4376 0 0 0 0 0 0 0 0 0 0 0 0 0 0 0 0 0 0 0 0 0 0 0 0 0 0 0 0 0 0 0 0 0 0 0 0 0 0 0 0 0 0
1.11377 8.48171e-09 2.66011e-09 5.8216e-09 0.686371 0.40309 0 0 0 0 0 0 0 0 0 0 0 0 0 0 0 0 0 0 0 0 0 0 0 0 0 0 0 0 0 0 0 0 0 0 0 0 0 0 0 0 0 0
1.17094 8.62267e-09 2.61588e-09 6.00679e-09 0.696628 0.371434 0 0 0 0 0 0 0 0 0 0 0 0 0 0 0 0 0 0 0 0 0 0 0 0 0 0 0 0 0 0 0 0 0 0 0 0 0 0 0 0 0 0
1.23105 8.90724e-09 2.6278e-09 6.27944e-09 0.704981 0.345717 0 0 0 0 0 0 0 0 0 0 0 0 0 0 0 0 0 0 0 0 0 0 0 0 0 0 0 0 0 0 0 0 0 0 0 0 0 0 0 0 0 0
1.29424 9.18803e-09 2.67693e-09 6.51111e-09 0.708651 0.328784 0 0 0 0 0 0 0 0 0 0 0 0 0 0 0 0 0 0 0 0 0 0 0 0 0 0 0 0 0 0 0 0 0 0 0 0 0 0 0 0 0 0
1.36067 9.1088e-09 2.71105e-09 6.39775e-09 0.70237 0.318217 0 0 0 0 0 0 0 0 0 0 0 0 0 0 0 0 0 0 0 0 0 0 0 0 0 0 0 0 0 0 0 0 0 0 0 0 0 0 0 0 0 0
1.43051 8.50232e-09 2.67767e-09 5.82464e-09 0.685066 0.303314 0 0 0 0 0 0 0 0 0 0 0 0 0 0 0 0 0 0 0 0 0 0 0 0 0 0 0 0 0 0 0 0 0 0 0 0 0 0 0 0 0 0
1.50394 7.81194e-09 2.62371e-09 5.18824e-09 0.664142 0.275274 0 0 0 0 0 0 0 0 0 0 0 0 0 0 0 0 0 0 0 0 0 0 0 0 0 0 0 0 0 0 0 0 0 0 0 0 0 0 0 0 0 0
1.58114 7.32135e-09 2.59848e-09 4.72287e-09 0.645081 0.238048 0 0 0 0 0 0 0 0 0 0 0 0 0 0 0 0 0 0 0 0 0 0 0 0 0 0 0 0 0 0 0 0 0 0 0 0 0 0 0 0 0 0
1.6623 6.98643e-09 2.5993e-09 4.38713e-09 0.62795 0.199568 0 0 0 0 0 0 0 0 0 0 0 0 0 0 0 0 0 0 0 0 0 0 0 0 0 0 0 0 0 0 0 0 0 0 0 0 0 0 0 0 0 0
1.74763 6.71273e-09 2.60919e-09 4.10355e-09 0.611308 0.164614 0 0 0 0 0 0 0 0 0 0 0 0 0 0 0 0 0 0 0 0 0 0 0 0 0 0 0 0 0 0 0 0 0 0 0 0 0 0 0 0 0 0
1.83733 6.43462e-09 2.61164e-09 3.82298e-09 0.594127 0.134424 0 0 0 0 0 0 0 0 0 0 0 0 0 0 0 0 0 0 0 0 0 0 0 0 0 0 0 0 0 0 0 0 0 0 0 0 0 0 0 0 0 0
1.93164 6.11699e-09 2.59383e-09 3.52316e-09 0.575963 0.108619 0 0 0 0 0 0 0 0 0 0 0 0 0 0 0 0 0 0 0 0 0 0 0 0 0 0 0 0 0 0 0 0 0 0 0 0 0 0 0 0 0 0
2.03079 5.74679e-09 2.54898e-09 3.19781e-09 0.556452 0.0866445 0 0 0 0 0 0 0 0 0 0 0 0 0 0 0 0 0 0 0 0 0 0 0 0 0 0 0 0 0 0 0 0 0 0 0 0 0 0 0 0 0 0
2.13503 5.32603e-09 2.47398e-09 2.85205e-09 0.535493 0.0679836 0 0 0 0 0 0 0 0 0 0 0 0 0 0 0 0 0 0 0 0 0 0 0 0 0 0 0 0 0 0 0 0 0 0 0 0 0 0 0 0 0 0
2.24463 4.8697e-09 2.37327e-09 2.49643e-09 0.512645 0.0520704 0 0 0 0 0 0 0 0 0 0 0 0 0 0 0 0 0 0 0 0 0 0 0 0 0 0 0 0 0 0 0 0 0 0 0 0 0 0 0 0 0 0
2.35984 4.40063e-09 2.25396e-09 2.14667e-09 0.48781 0.0387953 0 0 0 0 0 0 0 0 0 0 0 0 0 0 0 0 0 0 0 0 0 0 0 0 0 0 0 0 0 0 0 0 0 0 0 0 0 0 0 0 0 0
2.48097 3.93884e-09 2.12238e-09 1.81646e-09 0.461167 0.0278299 0 0 0 0 0 0 0 0 0 0 0 0 0 0 0 0 0 0 0 0 0 0 0 0 0 0 0 0 0 0 0 0 0 0 0 0 0 0 0 0 0 0
2.60832 3.50143e-09 1.98394e-09 1.51749e-09 0.433392 0.0188354 0 0 0 0 0 0 0 0 0 0 0 0 0 0 0 0 0 0 0 0 0 0 0 0 0 0 0 0 0 0 0 0 0 0 0 0 0 0 0 0 0 0
2.74221 3.09904e-09 1.84493e-09 1.25411e-09 0.404677 0.0116222 0 0 0 0 0 0 0 0 0 0 0 0 0 0 0 0 0 0 0 0 0 0 0 0 0 0 0 0 0 0 0 0 0 0 0 0 0 0 0 0 0 0
2.88297 2.73798e-09 1.71058e-09 1.0274e-09 0.37524 0.00622742 0 0 0 0 0 0 0 0 0 0 0 0 0 0 0 0 0 0 0 0 0 0 0 0 0 0 0 0 0 0 0 0 0 0 0 0 0 0 0 0 0 0
3.03095 2.41822e-09 1.58138e-09 8.36837e-10 0.346055 0.00228818 0 0 0 0 0 0 0 0 0 0 0 0 0 0 0 0 0 0 0 0 0 0 0 0 0 0 0 0 0 0 0 0 0 0 0 0 0 0 0 0 0 0
3.18653 2.13684e-09 1.45796e-09 6.7888e-10 0.317703 -0.00036263 0 0 0 0 0 0 0 0 0 0 0 0 0 0 0 0 0 0 0 0 0 0 0 0 0 0 0 0 0 0 0 0 0 0 0 0 0 0 0 0 0 0
3.35009 1.88991e-09 1.34087e-09 5.49038e-10 0.29051 -0.00194408 0 0 0 0 0 0 0 0 0 0 0 0 0 0 0 0 0 0 0 0 0 0 0 0 0 0 0 0 0 0 0 0 0 0 0 0 0 0 0 0 0 0
3.52205 1.67359e-09 1.2305e-09 4.4309e-10 0.264754 -0.00264156 0 0 0 0 0 0 0 0 0 0 0 0 0 0 0 0 0 0 0 0 0 0 0 0 0 0 0 0 0 0 0 0 0 0 0 0 0 0 0 0 0 0
3.70284 1.48421e-09 1.12673e-09 3.57485e-10 0.240858 -0.00265583 0 0 0 0 0 0 0 0 0 0 0 0 0 0 0 0 0 0 0 0 0 0 0 0 0 0 0 0 0 0 0 0 0 0 0 0 0 0 0 0 0 0
3.89291 1.31745e-09 1.02922e-09 2.88229e-10 0.218778 -0.00213063 0 0 0 0 0 0 0 0 0 0 0 0 0 0 0 0 0 0 0 0 0 0 0 0 0 0 0 0 0 0 0 0 0 0 0 0 0 0 0 0 0 0
4.09273 1.16965e-09 9.37259e-10 2.32389e-10 0.198683 -0.00149272 0 0 0 0 0 0 0 0 0 0 0 0 0 0 0 0 0 0 0 0 0 0 0 0 0 0 0 0 0 0 0 0 0 0 0 0 0 0 0 0 0 0
4.30281 1.03939e-09 8.51944e-10 1.87445e-10 0.180341 -0.00071838 0 0 0 0 0 0 0 0 0 0 0 0 0 0 0 0 0 0 0 0 0 0 0 0 0 0 0 0 0 0 0 0 0 0 0 0 0 0 0 0 0 0
4.52368 9.24505e-10 7.73137e-10 1.51368e-10 0.163729 0.000116334 0 0 0 0 0 0 0 0 0 0 0 0 0 0 0 0 0 0 0 0 0 0 0 0 0 0 0 0 0 0 0 0 0 0 0 0 0 0 0 0 0 0
4.75588 8.2273e-10 7.00439e-10 1.2229e-10 0.14864 0.00094333 0 0 0 0 0 0 0 0 0 0 0 0 0 0 0 0 0 0 0 0 0 0 0 0 0 0 0 0 0 0 0 0 0 0 0 0 0 0 0 0 0 0
5 7.3203e-10 6.33176e-10 9.88534e-11 0.13504 0.00159612 0 0 0 0 0 0 0 0 0 0 0 0 0 0 0 0 0 0 0 0 0 0 0 0 0 0 0 0 0 0 0 0 0 0 0 0 1.4013e-45 0 2.8026e-45 0 5.60519e-45 0
5.25665 6.52171e-10 5.7215e-10 8.00211e-11 0.1227 0.00199061 0 0 0 0 0 0 0 0 0 0 0 0 0 0 0 0 0 0 0 0 0 0 0 0 0 0 0 0 2.8026e-45 0 7.00649e-45 0 1.96182e-44 0 5.1848e-44 0 1.28919e-43 0 3.09687e-43 0 6.82432e-43 0
5.52648 5.81705e-10 5.16865e-10 6.48405e-11 0.111466 0.00231648 0 0 0 0 0 0 0 0 0 0 0 0 0 0 0 0 0 0 0 0 1.4013e-45 0 5.60519e-45 0 2.66247e-44 0 9.24857e-44 0 2.99878e-43 0 8.80015e-43 0 2.41864e-42 0 6.10125e-42 0 1.4502e-41 0 3.32486e-41 0 7.06409e-41 0
5.81015 5.19184e-10 4.6663e-10 5.25546e-11 0.101225 0.00260746 0 0 0 0 0 0 0 0 0 0 0 0 0 0 0 0 4.2039e-45 0 3.22299e-44 0 1.75162e-43 0 7.97339e-43 0 3.10107e-42 0 1.03962e-41 0 3.16946e-41 0 8.83393e-41 0 2.3106e-40 0 5.57221e-40 0 1.26953e-39 0 2.79505e-39 0 5.72402e-39 0
6.10839 4.63535e-10 4.20913e-10 4.2622e-11 0.0919498 0.00276939 0 0 0 0 0 0 0 0 0 0 0 0 5.60519e-45 0 7.28675e-44 0 5.96953e-43 0 3.73726e-42 0 1.86499e-41 0 7.8994e-41 0 2.87495e-40 0 9.0848e-40 0 2.62277e-39 0 6.95351e-39 0 1.73534e-38 0 4.00888e-38 0 8.77362e-38 0 1.85862e-37 0 3.67538e-37 0
6.42193 4.14779e-10 3.80176e-10 3.4603e-11 0.0834252 0.00308316 0 0 0 0 0 0 0 0 1.4013e-45 0 3.78351e-44 0 7.14662e-43 0 7.91313e-42 0 5.89708e-41 0 3.37884e-40 0 1.55876e-39 0 6.15312e-39 0 2.10252e-38 0 6.28099e-38 0 1.72184e-37 0 4.35273e-37 0 1.03884e-36 0 2.30374e-36 0 4.85269e-36 0 9.91008e-36 0 1.89553e-35 0
6.75157 3.70835e-10 3.42719e-10 2.8116e-11 0.0758181 0.00294682 0 0 0 0 0 0 1.4013e-45 0 1.24716e-43 0 4.21511e-42 0 6.87365e-41 0 6.76599e-40 0 4.57121e-39 0 2.40517e-38 0 1.02976e-37 0 3.80137e-37 0 1.22329e-36 0 3.46427e-36 0 9.04051e-36 0 2.18423e-35 0 4.99622e-35 0 1.06571e-34 0 2.16466e-34 0 4.26917e-34 0 7.91127e-34 0
7.09813 3.32012e-10 3.09162e-10 2.28506e-11 0.0688245 0.00283667 0 0 0 0 0 0 1.4013e-43 0 1.28933e-41 0 3.65539e-40 0 5.20136e-39 0 4.57904e-38 0 2.81815e-37 0 1.36733e-36 0 5.45288e-36 0 1.88858e-35 0 5.74041e-35 0 1.54509e-34 0 3.84764e-34 0 8.9042e-34 0 1.95611e-33 0 4.02094e-33 0 7.88956e-33 0 1.50524e-32 0 2.70663e-32 0
7.46248 2.97533e-10 2.78953e-10 1.8579e-11 0.0624437 0.00265965 0 0 0 0 2.24208e-44 0 1.41713e-41 0 1.04091e-39 0 2.50632e-38 0 3.1327e-37 0 2.48001e-36 0 1.39673e-35 0 6.27381e-35 0 2.33859e-34 0 7.62294e-34 0 2.19461e-33 0 5.62824e-33 0 1.3405e-32 0 2.97767e-32 0 6.29489e-32 0 1.24923e-31 0 2.37179e-31 0 4.38462e-31 0 7.66149e-31 0
7.84553 2.66857e-10 2.51735e-10 1.51219e-11 0.0566668 0.00231756 0 0 0 0 2.41444e-42 0 1.11951e-39 0 6.66667e-38 0 1.37429e-36 0 1.51847e-35 0 1.0866e-34 0 5.62444e-34 0 2.34771e-33 0 8.20668e-33 0 2.52511e-32 0 6.90389e-32 0 1.69098e-31 0 3.86041e-31 0 8.24745e-31 0 1.68096e-30 0 3.22611e-30 0 5.93634e-30 0 1.06499e-29 0 1.81089e-29 0
8.24824 2.39779e-10 2.27467e-10 1.2312e-11 0.0513471 0.00179302 0 0 2.8026e-45 0 2.04643e-40 0 7.0317e-38 0 3.42991e-36 0 6.09942e-35 0 5.99344e-34 0 3.89595e-33 0 1.86106e-32 0 7.24482e-32 0 2.3824e-31 0 6.93899e-31 0 1.80627e-30 0 4.2348e-30 0 9.28589e-30 0 1.91167e-29 0 3.76316e-29 0 6.99602e-29 0 1.24957e-28 0 2.17868e-28 0 3.60982e-28 0
8.67162 2.15855e-10 2.05832e-10 1.00232e-11 0.0464346 0.00134402 0 0 3.97969e-43 0 1.37475e-38 0 3.55196e-36 0 1.43306e-34 0 2.21432e-33 0 1.94615e-32 0 1.15457e-31 0 5.10988e-31 0 1.86148e-30 0 5.77568e-30 0 1.59668e-29 0 3.96659e-29 0 8.92073e-29 0 1.88253e-28 0 3.74129e-28 0 7.12524e-28 0 1.28514e-27 0 2.23131e-27 0 3.78622e-27 0 6.12055e-27 0
9.11674 1.94659e-10 1.86494e-10 8.16414e-12 0.0419409 0.00094197 0 0 3.56911e-41 0 7.40236e-37 0 1.45827e-34 0 4.91171e-33 0 6.63984e-32 0 5.24815e-31 0 2.8543e-30 0 1.17476e-29 0 4.01776e-29 0 1.17956e-28 0 3.10293e-28 0 7.37357e-28 0 1.59395e-27 0 3.24326e-27 0 6.23301e-27 0 1.15031e-26 0 2.01586e-26 0 3.407e-26 0 5.63385e-26 0 8.89623e-26 0
9.5847 1.75842e-10 1.69191e-10 6.6503e-12 0.0378198 0.000585069 6.02558e-44 0 2.53e-39 0 3.22967e-35 0 4.91587e-33 0 1.39451e-31 0 1.66009e-30 0 1.18616e-29 0 5.93917e-29 0 2.28126e-28 0 7.34745e-28 0 2.04662e-27 0 5.13547e-27 0 1.16985e-26 0 2.43547e-26 0 4.7866e-26 0 8.91027e-26 0 1.59594e-25 0 2.72123e-25 0 4.48279e-25 0 7.23298e-25 0 1.11694e-24 0
10.0767 1.59099e-10 1.53682e-10 5.41693e-12 0.0340476 0.0002144 5.70188e-42 0 1.43376e-37 0 1.15357e-33 0 1.37382e-31 0 3.30993e-30 0 3.49146e-29 0 2.26632e-28 0 1.04894e-27 0 3.7728e-27 0 1.14769e-26 0 3.0409e-26 0 7.29521e-26 0 1.59637e-25 0 3.20654e-25 0 6.09752e-25 0 1.10114e-24 0 1.91694e-24 0 3.1845e-24 0 5.11965e-24 0 8.06985e-24 0 1.22002e-23 0
10.5939 1.44276e-10 1.39865e-10 4.4107e-12 0.0305713 -0.000231751 4.28617e-40 0 6.57243e-36 0 3.40884e-32 0 3.2147e-30 0 6.6307e-29 0 6.23435e-28 0 3.69357e-27 0 1.5863e-26 0 5.3599e-26 0 1.54428e-25 0 3.90161e-25 0 8.96861e-25 0 1.88893e-24 0 3.66716e-24 0 6.75802e-24 0 1.1857e-23 0 2.00903e-23 0 3.2558e-23 0 5.11433e-23 0 7.88433e-23 0 1.16816e-22 0
11.1377 1.31377e-10 1.27787e-10 3.59007e-12 0.0273266 -0.000693598 2.57604e-38 0 2.46746e-34 0 8.42858e-31 0 6.36625e-29 0 1.13273e-27 0 9.54647e-27 0 5.1853e-26 0 2.074e-25 0 6.60336e-25 0 1.80675e-24 0 4.36276e-24 0 9.62928e-24 0 1.95564e-23 0 3.67568e-23 0 6.57453e-23 0 1.12227e-22 0 1.85323e-22 0 2.93335e-22 0 4.50733e-22 0 6.80327e-22 0 9.88821e-22 0
11.7094 1.19426e-10 1.16476e-10 2.95e-12 0.0247015 -0.00109353 1.24376e-36 0 7.61467e-33 0 1.74838e-29 0 1.06922e-27 0 1.65299e-26 0 1.25542e-25 0 6.27821e-25 0 2.34681e-24 0 7.06118e-24 0 1.83936e-23 0 4.2544e-23 0 9.03407e-23 0 1.77238e-22 0 3.23016e-22 0 5.61593e-22 0 9.33937e-22 0 1.50492e-21 0 2.32922e-21 0 3.50475e-21 0 5.18472e-21 0 7.3994e-21 0
