# 2.1135e-06 1 71 : grain size, compostion index, size index
# Heating and cooling timescale: 23.8311 28496.7
# Ratio of heating to cooling to determine stochastic cutoff: 100
# Equilibrium emission is recorded even for those grains in the stochastic regime.
# Emission spectrum was computed for: 
# Type: IRSF
# Scales: 0.25 0.5 1 1.5 2 2.5 3 3.5 4 4.5 5 5.5 6 6.5 7 7.5 8 8.5 9 9.5 10
# StochasticallyHeated: 1 1 0 0 0 0 0 0 0 0 0 0 0 0 0 0 0 0 0 0 0
# Temperature: -1
# Wavelength  CExt  CAbs  CSca  Albedo G EqEm1 StEm1 EqEm2 StEm2 EqEm3 StEm3 EqEm4 StEm4 EqEm5 StEm5 EqEm6 StEm6 EqEm7 StEm7 EqEm8 StEm8 EqEm9 StEm9 EqEm10 StEm10 EqEm11 StEm11 EqEm12 StEm12 EqEm13 StEm13 EqEm14 StEm14 EqEm15 StEm15 EqEm16 StEm16 EqEm17 StEm17 EqEm18 StEm18 EqEm19 StEm19 EqEm20 StEm20 EqEm21 StEm21
0.05 7.4495e-12 5.21225e-12 2.23725e-12 0.300322 0.095103 0 0 0 0 0 0 0 0 0 0 0 0 0 0 0 0 0 0 0 0 0 0 0 0 0 0 0 0 0 0 0 0 0 0 0 0 0 0 0 0 0 0
0.0525665 8.2339e-12 5.76108e-12 2.47282e-12 0.300322 0.105117 0 0 0 0 0 0 0 0 0 0 0 0 0 0 0 0 0 0 0 0 0 0 0 0 0 0 0 0 0 0 0 0 0 0 0 0 0 0 0 0 0 0
0.0552647 9.10088e-12 6.36769e-12 2.7332e-12 0.300322 0.116185 0 0 0 0 0 0 0 0 0 0 0 0 0 0 0 0 0 0 0 0 0 0 0 0 0 0 0 0 0 0 0 0 0 0 0 0 0 0 0 0 0 0
0.0581015 1.00592e-11 7.03818e-12 3.02099e-12 0.300322 0.128419 0 0 0 0 0 0 0 0 0 0 0 0 0 0 0 0 0 0 0 0 0 0 0 0 0 0 0 0 0 0 0 0 0 0 0 0 0 0 0 0 0 0
0.0610839 1.11183e-11 7.77926e-12 3.33908e-12 0.300322 0.141941 0 0 0 0 0 0 0 0 0 0 0 0 0 0 0 0 0 0 0 0 0 0 0 0 0 0 0 0 0 0 0 0 0 0 0 0 0 0 0 0 0 0
0.0642193 1.22891e-11 8.59838e-12 3.69067e-12 0.300322 0.156886 0 0 0 0 0 0 0 0 0 0 0 0 0 0 0 0 0 0 0 0 0 0 0 0 0 0 0 0 0 0 0 0 0 0 0 0 0 0 0 0 0 0
0.0675157 1.3583e-11 9.50375e-12 4.07928e-12 0.300322 0.173406 0 0 0 0 0 0 0 0 0 0 0 0 0 0 0 0 0 0 0 0 0 0 0 0 0 0 0 0 0 0 0 0 0 0 0 0 0 0 0 0 0 0
0.0709813 1.50133e-11 1.05044e-11 4.50881e-12 0.300322 0.191665 0 0 0 0 0 0 0 0 0 0 0 0 0 0 0 0 0 0 0 0 0 0 0 0 0 0 0 0 0 0 0 0 0 0 0 0 0 0 0 0 0 0
0.0746248 1.65941e-11 1.16105e-11 4.98357e-12 0.300322 0.211846 0 0 0 0 0 0 0 0 0 0 0 0 0 0 0 0 0 0 0 0 0 0 0 0 0 0 0 0 0 0 0 0 0 0 0 0 0 0 0 0 0 0
0.0784553 1.83414e-11 1.2833e-11 5.50831e-12 0.300322 0.234152 0 0 0 0 0 0 0 0 0 0 0 0 0 0 0 0 0 0 0 0 0 0 0 0 0 0 0 0 0 0 0 0 0 0 0 0 0 0 0 0 0 0
0.0824824 2.02726e-11 1.41843e-11 6.08831e-12 0.300322 0.258807 0 0 0 0 0 0 0 0 0 0 0 0 0 0 0 0 0 0 0 0 0 0 0 0 0 0 0 0 0 0 0 0 0 0 0 0 0 0 0 0 0 0
0.0867162 2.24072e-11 1.56778e-11 6.72938e-12 0.300322 0.286059 0 0 0 0 0 0 0 0 0 0 0 0 0 0 0 0 0 0 0 0 0 0 0 0 0 0 0 0 0 0 0 0 0 0 0 0 0 0 0 0 0 0
0.0911674 2.47666e-11 1.73286e-11 7.43795e-12 0.300322 0.316179 0 0 0 0 0 0 0 0 0 0 0 0 0 0 0 0 0 0 0 0 0 0 0 0 0 0 0 0 0 0 0 0 0 0 0 0 0 0 0 0 0 0
0.095847 2.73744e-11 1.91533e-11 8.22113e-12 0.300322 0.349471 0 0 0 0 0 0 0 0 0 0 0 0 0 0 0 0 0 0 0 0 0 0 0 0 0 0 0 0 0 0 0 0 0 0 0 0 0 0 0 0 0 0
0.100767 2.97933e-11 2.08417e-11 8.95153e-12 0.300455 0.375842 0 0 0 0 0 0 0 0 0 0 0 0 0 0 0 0 0 0 0 0 0 0 0 0 0 0 0 0 0 0 0 0 0 0 0 0 0 0 0 0 0 0
0.105939 2.97346e-11 2.07526e-11 8.98203e-12 0.302073 0.351411 0 0 0 0 0 0 0 0 0 0 0 0 0 0 0 0 0 0 0 0 0 0 0 0 0 0 0 0 0 0 0 0 0 0 0 0 0 0 0 0 0 0
0.111377 2.94304e-11 2.04847e-11 8.94572e-12 0.303962 0.329578 0 0 0 0 0 0 0 0 0 0 0 0 0 0 0 0 0 0 0 0 0 0 0 0 0 0 0 0 0 0 0 0 0 0 0 0 0 0 0 0 0 0
0.117094 2.88498e-11 1.99996e-11 8.85017e-12 0.306767 0.308304 0 0 0 0 0 0 0 0 0 0 0 0 0 0 0 0 0 0 0 0 0 0 0 0 0 0 0 0 0 0 0 0 0 0 0 0 0 0 0 0 0 0
0.123105 2.76746e-11 1.90741e-11 8.60045e-12 0.310771 0.28759 0 0 0 0 0 0 0 0 0 0 0 0 0 0 0 0 0 0 0 0 0 0 0 0 0 0 0 0 0 0 0 0 0 0 0 0 0 0 0 0 0 0
0.129424 2.57443e-11 1.76504e-11 8.09391e-12 0.314397 0.267655 0 0 0 0 0 0 0 0 0 0 0 0 0 0 0 0 0 0 0 0 0 0 0 0 0 0 0 0 0 0 0 0 0 0 0 0 0 0 0 0 0 0
0.136067 2.34598e-11 1.58618e-11 7.59801e-12 0.323873 0.249239 0 0 0 0 0 0 0 0 0 0 0 0 0 0 0 0 0 0 0 0 0 0 0 0 0 0 0 0 0 0 0 0 0 0 0 0 0 0 0 0 0 0
0.143051 2.0003e-11 1.31322e-11 6.8708e-12 0.343489 0.235182 0 0 0 0 0 0 0 0 0 0 0 0 0 0 0 0 0 0 0 0 0 0 0 0 0 0 0 0 0 0 0 0 0 0 0 0 0 0 0 0 0 0
0.150394 1.54828e-11 9.67155e-12 5.81122e-12 0.375335 0.224768 0 0 0 0 0 0 0 0 0 0 0 0 0 0 0 0 0 0 0 0 0 0 0 0 0 0 0 0 0 0 0 0 0 0 0 0 0 0 0 0 0 0
0.158114 1.0953e-11 6.38379e-12 4.56922e-12 0.417166 0.202731 0 0 0 0 0 0 0 0 0 0 0 0 0 0 0 0 0 0 0 0 0 0 0 0 0 0 0 0 0 0 0 0 0 0 0 0 0 0 0 0 0 0
0.16623 7.43841e-12 4.02311e-12 3.4153e-12 0.459143 0.175123 0 0 0 0 0 0 0 0 0 0 0 0 0 0 0 0 0 0 0 0 0 0 0 0 0 0 0 0 0 0 0 0 0 0 0 0 0 0 0 0 0 0
0.174762 5.26988e-12 2.7432e-12 2.52667e-12 0.479456 0.15066 0 0 0 0 0 0 0 0 0 0 0 0 0 0 0 0 0 0 0 0 0 0 0 0 0 0 0 0 0 0 0 0 0 0 0 0 0 0 0 0 0 0
0.183733 3.74166e-12 1.87485e-12 1.86681e-12 0.498926 0.130559 0 0 0 0 0 0 0 0 0 0 0 0 0 0 0 0 0 0 0 0 0 0 0 0 0 0 0 0 0 0 0 0 0 0 0 0 0 0 0 0 0 0
0.193164 2.75436e-12 1.36534e-12 1.38903e-12 0.5043 0.114241 0 0 0 0 0 0 0 0 0 0 0 0 0 0 0 0 0 0 0 0 0 0 0 0 0 0 0 0 0 0 0 0 0 0 0 0 0 0 0 0 0 0
0.203079 2.26583e-12 1.21951e-12 1.04632e-12 0.461784 0.100712 0 0 0 0 0 0 0 0 0 0 0 0 0 0 0 0 0 0 0 0 0 0 0 0 0 0 0 0 0 0 0 0 0 0 0 0 0 0 0 0 0 0
0.213503 1.93959e-12 1.13632e-12 8.03274e-13 0.414145 0.0892424 0 0 0 0 0 0 0 0 0 0 0 0 0 0 0 0 0 0 0 0 0 0 0 0 0 0 0 0 0 0 0 0 0 0 0 0 0 0 0 0 0 0
0.224463 1.67888e-12 1.05003e-12 6.28843e-13 0.374561 0.0794676 0 0 0 0 0 0 0 0 0 0 0 0 0 0 0 0 0 0 0 0 0 0 0 0 0 0 0 0 0 0 0 0 0 0 0 0 0 0 0 0 0 0
0.235984 1.47847e-12 9.82725e-13 4.95745e-13 0.335309 0.0710914 0 0 0 0 0 0 0 0 0 0 0 0 0 0 0 0 0 0 0 0 0 0 0 0 0 0 0 0 0 0 0 0 0 0 0 0 0 0 0 0 0 0
0.248097 1.31767e-12 9.24604e-13 3.93068e-13 0.298305 0.0638099 0 0 0 0 0 0 0 0 0 0 0 0 0 0 0 0 0 0 0 0 0 0 0 0 0 0 0 0 0 0 0 0 0 0 0 0 0 0 0 0 0 0
0.260832 1.18896e-12 8.75184e-13 3.13774e-13 0.263907 0.0573845 0 0 0 0 0 0 0 0 0 0 0 0 0 0 0 0 0 0 0 0 0 0 0 0 0 0 0 0 0 0 0 0 0 0 0 0 0 0 0 0 0 0
0.274221 1.08026e-12 8.28762e-13 2.51495e-13 0.23281 0.0516684 0 0 0 0 0 0 0 0 0 0 0 0 0 0 0 0 0 0 0 0 0 0 0 0 0 0 0 0 0 0 0 0 0 0 0 0 0 0 0 0 0 0
0.288297 9.86922e-13 7.84589e-13 2.02332e-13 0.205014 0.0465769 0 0 0 0 0 0 0 0 0 0 0 0 0 0 0 0 0 0 0 0 0 0 0 0 0 0 0 0 0 0 0 0 0 0 0 0 0 0 0 0 0 0
0.303095 9.05834e-13 7.42642e-13 1.63192e-13 0.180157 0.0420218 0 0 0 0 0 0 0 0 0 0 0 0 0 0 0 0 0 0 0 0 0 0 0 0 0 0 0 0 0 0 0 0 0 0 0 0 0 0 0 0 0 0
0.318653 8.34739e-13 7.02768e-13 1.31971e-13 0.158099 0.0379303 0 0 0 0 0 0 0 0 0 0 0 0 0 0 0 0 0 0 0 0 0 0 0 0 0 0 0 0 0 0 0 0 0 0 0 0 0 0 0 0 0 0
0.335009 7.71933e-13 6.64991e-13 1.06942e-13 0.138538 0.0342522 0 0 0 0 0 0 0 0 0 0 0 0 0 0 0 0 0 0 0 0 0 0 0 0 0 0 0 0 0 0 0 0 0 0 0 0 0 0 0 0 0 0
0.352205 7.16117e-13 6.29307e-13 8.68094e-14 0.121222 0.0309433 0 0 0 0 0 0 0 0 0 0 0 0 0 0 0 0 0 0 0 0 0 0 0 0 0 0 0 0 0 0 0 0 0 0 0 0 0 0 0 0 0 0
0.370284 6.66149e-13 5.95546e-13 7.06029e-14 0.105987 0.027963 0 0 0 0 0 0 0 0 0 0 0 0 0 0 0 0 0 0 0 0 0 0 0 0 0 0 0 0 0 0 0 0 0 0 0 0 0 0 0 0 0 0
0.389291 6.21168e-13 5.63697e-13 5.74708e-14 0.0925205 0.0252766 0 0 0 0 0 0 0 0 0 0 0 0 0 0 0 0 0 0 0 0 0 0 0 0 0 0 0 0 0 0 0 0 0 0 0 0 0 0 0 0 0 0
0.409273 5.80446e-13 5.33598e-13 4.68481e-14 0.0807105 0.0228519 0 0 0 0 0 0 0 0 0 0 0 0 0 0 0 0 0 0 0 0 0 0 0 0 0 0 0 0 0 0 0 0 0 0 0 0 0 0 0 0 0 0
0.430281 5.43467e-13 5.0525e-13 3.82175e-14 0.0703216 0.0206616 0 0 0 0 0 0 0 0 0 0 0 0 0 0 0 0 0 0 0 0 0 0 0 0 0 0 0 0 0 0 0 0 0 0 0 0 0 0 0 0 0 0
0.452368 5.09686e-13 4.78485e-13 3.12015e-14 0.0612171 0.0186885 0 0 0 0 0 0 0 0 0 0 0 0 0 0 0 0 0 0 0 0 0 0 0 0 0 0 0 0 0 0 0 0 0 0 0 0 0 0 0 0 0 0
0.475588 4.787e-13 4.53212e-13 2.54877e-14 0.0532436 0.0169037 0 0 0 0 0 0 0 0 0 0 0 0 0 0 0 0 0 0 0 0 0 0 0 0 0 0 0 0 0 0 0 0 0 0 0 0 0 0 0 0 0 0
0.5 4.50198e-13 4.29364e-13 2.08344e-14 0.0462782 0.0152896 0 0 0 0 0 0 0 0 0 0 0 0 0 0 0 0 0 0 0 0 0 0 0 0 0 0 0 0 0 0 0 0 0 0 0 0 0 0 0 0 0 0
0.525665 4.2389e-13 4.06848e-13 1.70428e-14 0.0402056 0.0138299 0 0 0 0 0 0 0 0 0 0 0 0 0 0 0 0 0 0 0 0 0 0 0 0 0 0 0 0 0 0 0 0 0 0 0 0 0 0 0 0 0 0
0.552648 3.9949e-13 3.85541e-13 1.39492e-14 0.0349176 0.0125112 0 0 0 0 0 0 0 0 0 0 0 0 0 0 0 0 0 0 0 0 0 0 0 0 0 0 0 0 0 0 0 0 0 0 0 0 0 0 0 0 0 0
0.581015 3.76912e-13 3.65498e-13 1.14146e-14 0.0302846 0.0113208 0 0 0 0 0 0 0 0 0 0 0 0 0 0 0 0 0 0 0 0 0 0 0 0 0 0 0 0 0 0 0 0 0 0 0 0 0 0 0 0 0 0
0.610839 3.55918e-13 3.46576e-13 9.34216e-15 0.0262481 0.0102426 0 0 0 0 0 0 0 0 0 0 0 0 0 0 0 0 0 0 0 0 0 0 0 0 0 0 0 0 0 0 0 0 0 0 0 0 0 0 0 0 0 0
0.642193 3.36192e-13 3.28541e-13 7.6507e-15 0.0227569 0.00926619 0 0 0 0 0 0 0 0 0 0 0 0 0 0 0 0 0 0 0 0 0 0 0 0 0 0 0 0 0 0 0 0 0 0 0 0 0 0 0 0 0 0
0.675157 3.17843e-13 3.11577e-13 6.2655e-15 0.0197126 0.00838482 0 0 0 0 0 0 0 0 0 0 0 0 0 0 0 0 0 0 0 0 0 0 0 0 0 0 0 0 0 0 0 0 0 0 0 0 0 0 0 0 0 0
0.709813 3.00776e-13 2.95646e-13 5.13045e-15 0.0170574 0.00758734 0 0 0 0 0 0 0 0 0 0 0 0 0 0 0 0 0 0 0 0 0 0 0 0 0 0 0 0 0 0 0 0 0 0 0 0 0 0 0 0 0 0
0.746248 2.84825e-13 2.80623e-13 4.20194e-15 0.0147527 0.00686514 0 0 0 0 0 0 0 0 0 0 0 0 0 0 0 0 0 0 0 0 0 0 0 0 0 0 0 0 0 0 0 0 0 0 0 0 0 0 0 0 0 0
0.784553 2.69858e-13 2.66417e-13 3.44043e-15 0.0127491 0.00621108 0 0 0 0 0 0 0 0 0 0 0 0 0 0 0 0 0 0 0 0 0 0 0 0 0 0 0 0 0 0 0 0 0 0 0 0 0 0 0 0 0 0
0.824824 2.55808e-13 2.52991e-13 2.81735e-15 0.0110135 0.00562058 0 0 0 0 0 0 0 0 0 0 0 0 0 0 0 0 0 0 0 0 0 0 0 0 0 0 0 0 0 0 0 0 0 0 0 0 0 0 0 0 0 0
0.867162 2.42534e-13 2.40227e-13 2.30687e-15 0.00951156 0.00508639 0 0 0 0 0 0 0 0 0 0 0 0 0 0 0 0 0 0 0 0 0 0 0 0 0 0 0 0 0 0 0 0 0 0 0 0 0 0 0 0 0 0
0.911674 2.30216e-13 2.28328e-13 1.88811e-15 0.00820146 0.00460263 0 0 0 0 0 0 0 0 0 0 0 0 0 0 0 0 0 0 0 0 0 0 0 0 0 0 0 0 0 0 0 0 0 0 0 0 0 0 0 0 0 0
0.95847 2.18729e-13 2.17185e-13 1.54406e-15 0.00705922 0.00416468 0 0 0 0 0 0 0 0 0 0 0 0 0 0 0 0 0 0 0 0 0 0 0 0 0 0 0 0 0 0 0 0 0 0 0 0 0 0 0 0 0 0
1.00767 2.07905e-13 2.06646e-13 1.25966e-15 0.00605884 0.00376869 0 0 0 0 0 0 0 0 0 0 0 0 0 0 0 0 0 0 0 0 0 0 0 0 0 0 0 0 0 0 0 0 0 0 0 0 0 0 0 0 0 0
1.05939 2.02088e-13 2.0106e-13 1.02786e-15 0.0050862 0.00341046 0 0 0 0 0 0 0 0 0 0 0 0 0 0 0 0 0 0 0 0 0 0 0 0 0 0 0 0 0 0 0 0 0 0 0 0 0 0 0 0 0 0
1.11377 1.97223e-13 1.96383e-13 8.39958e-16 0.00425893 0.00308603 0 0 0 0 0 0 0 0 0 0 0 0 0 0 0 0 0 0 0 0 0 0 0 0 0 0 0 0 0 0 0 0 0 0 0 0 0 0 0 0 0 0
1.17094 1.93252e-13 1.92564e-13 6.87804e-16 0.0035591 0.00279219 0 0 0 0 0 0 0 0 0 0 0 0 0 0 0 0 0 0 0 0 0 0 0 0 0 0 0 0 0 0 0 0 0 0 0 0 0 0 0 0 0 0
1.23105 1.89741e-13 1.89178e-13 5.63048e-16 0.00296745 0.00252634 0 0 0 0 0 0 0 0 0 0 0 0 0 0 0 0 0 0 0 0 0 0 0 0 0 0 0 0 0 0 0 0 0 0 0 0 0 0 0 0 0 0
1.29424 1.85981e-13 1.8552e-13 4.6116e-16 0.0024796 0.00228587 0 0 0 0 0 0 0 0 0 0 0 0 0 0 0 0 0 0 0 0 0 0 0 0 0 0 0 0 0 0 0 0 0 0 0 0 0 0 0 0 0 0
1.36067 1.81824e-13 1.81445e-13 3.79329e-16 0.00208624 0.00206842 0 0 0 0 0 0 0 0 0 0 0 0 0 0 0 0 0 0 0 0 0 0 0 0 0 0 0 0 0 0 0 0 0 0 0 0 0 0 0 0 0 0
1.43051 1.77402e-13 1.77093e-13 3.08614e-16 0.00173963 0.00187124 0 0 0 0 0 0 0 0 0 0 0 0 0 0 0 0 0 0 0 0 0 0 0 0 0 0 0 0 0 0 0 0 0 0 0 0 0 0 0 0 0 0
1.50394 1.72891e-13 1.72638e-13 2.52242e-16 0.00145897 0.00169291 0 0 0 0 0 0 0 0 0 0 0 0 0 0 0 0 0 0 0 0 0 0 0 0 0 0 0 0 0 0 0 0 0 0 0 0 0 0 0 0 0 0
1.58114 1.68537e-13 1.68331e-13 2.06386e-16 0.00122458 0.00153178 0 0 0 0 0 0 0 0 0 0 0 0 0 0 0 0 0 0 0 0 0 0 0 0 0 0 0 0 0 0 0 0 0 0 0 0 0 0 0 0 0 0
1.6623 1.64573e-13 1.64405e-13 1.68865e-16 0.00102608 0.0013857 0 0 0 0 0 0 0 0 0 0 0 0 0 0 0 0 0 0 0 0 0 0 0 0 0 0 0 0 0 0 0 0 0 0 0 0 0 0 0 0 0 0
1.74763 1.61221e-13 1.61083e-13 1.38138e-16 0.000856826 0.00125346 0 0 0 0 0 0 0 0 0 0 0 0 0 0 0 0 0 0 0 0 0 0 0 0 0 0 0 0 0 0 0 0 0 0 0 0 0 0 0 0 0 0
1.83733 1.58702e-13 1.58589e-13 1.12961e-16 0.000711784 0.00113368 0 0 0 0 0 0 0 0 0 0 0 0 0 0 0 0 0 0 0 0 0 0 0 0 0 0 0 0 0 0 0 0 0 0 0 0 0 0 0 0 0 0
1.93164 1.5713e-13 1.57038e-13 9.23395e-17 0.000587662 0.00102547 0 0 0 0 0 0 0 0 0 0 0 0 0 0 0 0 0 0 0 0 0 0 0 0 0 0 0 0 0 0 0 0 0 0 0 0 0 0 0 0 0 0
2.03079 1.56495e-13 1.5642e-13 7.55248e-17 0.000482601 0.000927568 0 0 0 0 0 0 0 0 0 0 0 0 0 0 0 0 0 0 0 0 0 0 0 0 0 0 0 0 0 0 0 0 0 0 0 0 0 0 0 0 0 0
2.13503 1.56575e-13 1.56513e-13 6.18303e-17 0.000394893 0.000838845 0 0 0 0 0 0 0 0 0 0 0 0 0 0 0 0 0 0 0 0 0 0 0 0 0 0 0 0 0 0 0 0 0 0 0 0 0 0 0 0 0 0
2.24463 1.56847e-13 1.56796e-13 5.06655e-17 0.000323025 0.000758482 0 0 0 0 0 0 0 0 0 0 0 0 0 0 0 0 0 0 0 0 0 0 0 0 0 0 0 0 0 0 0 0 0 0 0 0 0 0 0 0 0 0
2.35984 1.57163e-13 1.57121e-13 4.15396e-17 0.000264309 0.000685885 0 0 0 0 0 0 0 0 0 0 0 0 0 0 0 0 0 0 0 0 0 0 0 0 0 0 0 0 0 0 0 0 0 0 0 0 0 0 0 0 0 0
2.48097 1.57727e-13 1.57693e-13 3.40703e-17 0.000216008 0.000620103 0 0 0 0 0 0 0 0 0 0 0 0 0 0 0 0 0 0 0 0 0 0 0 0 0 0 0 0 0 0 0 0 0 0 0 0 0 0 0 0 0 0
2.60832 1.58576e-13 1.58548e-13 2.79612e-17 0.000176327 0.000560559 0 0 0 0 0 0 0 0 0 0 0 0 0 0 0 0 0 0 0 0 0 0 0 0 0 0 0 0 0 0 0 0 0 0 0 0 0 0 0 0 0 0
2.74221 1.59902e-13 1.59879e-13 2.29658e-17 0.000143625 0.000506682 0 0 0 0 0 0 0 0 0 0 0 0 0 0 0 0 0 0 0 0 0 0 0 0 0 0 0 0 0 0 0 0 0 0 0 0 0 0 0 0 0 0
2.88297 1.61736e-13 1.61718e-13 1.88946e-17 0.000116824 0.00045789 0 0 0 0 0 0 0 0 0 0 0 0 0 0 0 0 0 0 0 0 0 0 0 0 0 0 0 0 0 0 0 0 0 0 0 0 0 0 0 0 0 0
3.03095 1.64039e-13 1.64023e-13 1.56048e-17 9.51286e-05 0.000413767 0 0 0 0 0 0 0 0 0 0 0 0 0 0 0 0 0 0 0 0 0 0 0 0 0 0 0 0 0 0 0 0 0 0 0 0 0 0 0 0 0 0
3.18653 1.64808e-13 1.64795e-13 1.29183e-17 7.83841e-05 0.000373821 0 0 0 0 0 0 0 0 0 0 0 0 0 0 0 0 0 0 0 0 0 0 0 0 0 0 0 0 0 0 0 0 0 0 0 0 0 0 0 0 0 0
3.35009 1.68957e-13 1.68947e-13 1.05622e-17 6.2514e-05 0.000337636 0 0 0 0 0 0 0 0 0 0 0 0 0 0 0 0 0 0 0 0 0 0 0 0 0 0 0 0 0 0 0 0 0 0 0 0 0 0 0 0 0 0
3.52205 1.68339e-13 1.6833e-13 9.19e-18 5.45922e-05 0.000304882 0 0 0 0 0 0 0 0 0 0 0 0 0 0 0 0 0 0 0 0 0 0 0 0 0 0 0 0 0 0 0 0 0 0 0 0 0 0 0 0 0 0
3.70284 1.57127e-13 1.57119e-13 7.47614e-18 4.75804e-05 0.000275258 0 0 0 0 0 0 0 0 0 0 0 0 0 0 0 0 0 0 0 0 0 0 0 0 0 0 0 0 0 0 0 0 0 0 0 0 0 0 0 0 0 0
3.89291 1.53925e-13 1.53918e-13 6.12597e-18 3.97985e-05 0.00024841 0 0 0 0 0 0 0 0 0 0 0 0 0 0 0 0 0 0 0 0 0 0 0 0 0 0 0 0 0 0 0 0 0 0 0 0 0 0 0 0 0 0
4.09273 1.51403e-13 1.51398e-13 5.02317e-18 3.31776e-05 0.000224064 0 0 0 0 0 0 0 0 0 0 0 0 0 0 0 0 0 0 0 0 0 0 0 0 0 0 0 0 0 0 0 0 0 0 0 0 0 0 0 0 0 0
4.30281 1.49579e-13 1.49575e-13 4.12069e-18 2.75486e-05 0.000202001 0 0 0 0 0 0 0 0 0 0 0 0 0 0 0 0 0 0 0 0 0 0 0 0 0 0 0 0 0 0 0 0 0 0 0 0 0 0 0 0 0 0
4.52368 1.48502e-13 1.48499e-13 3.38389e-18 2.27868e-05 0.000182035 0 0 0 0 0 0 0 0 0 0 0 0 0 0 0 0 0 0 0 0 0 0 0 0 0 0 0 0 0 0 0 0 0 0 0 0 0 0 0 0 0 0
4.75588 1.47981e-13 1.47978e-13 2.78347e-18 1.88097e-05 0.000163921 0 0 0 0 0 0 0 0 0 0 0 0 0 0 0 0 0 0 0 0 0 0 0 0 0 0 0 0 0 0 0 0 0 0 0 0 0 0 0 0 0 0
5 1.47614e-13 1.47612e-13 2.29427e-18 1.55423e-05 0.000147451 0 0 0 0 0 0 0 0 0 0 0 0 0 0 0 0 0 0 0 0 0 0 0 0 0 0 0 0 0 0 0 0 0 0 0 0 0 0 0 0 0 0
5.25665 1.47019e-13 1.47017e-13 1.89308e-18 1.28764e-05 0.000132484 0 0 0 0 0 0 0 0 0 0 0 0 0 0 0 0 0 0 0 0 0 0 0 0 0 0 0 0 0 0 0 0 0 0 0 0 0 0 0 0 0 0
5.52648 1.46239e-13 1.46238e-13 1.56205e-18 1.06815e-05 0.000118938 0 0 0 0 0 0 0 0 0 0 0 0 0 0 0 0 0 0 0 0 0 0 0 0 0 0 0 0 0 0 0 0 0 0 0 0 0 0 0 0 1.4013e-45 0
5.81015 1.45157e-13 1.45156e-13 1.28733e-18 8.86852e-06 0.000106589 0 0 0 0 0 0 0 0 0 0 0 0 0 0 0 0 0 0 0 0 0 0 0 0 0 0 0 0 0 0 1.4013e-45 0 2.8026e-45 0 9.80909e-45 0 2.24208e-44 0 5.46506e-44 0 1.24716e-43 0
6.10839 1.43935e-13 1.43934e-13 1.05883e-18 7.35628e-06 9.5365e-05 0 0 0 0 0 0 0 0 0 0 0 0 0 0 0 0 0 0 0 0 0 0 1.4013e-45 0 2.8026e-45 0 1.26117e-44 0 4.06377e-44 0 1.1911e-43 0 3.30706e-43 0 8.4218e-43 0 2.01647e-42 0 4.56543e-42 0 9.98285e-42 0
6.42193 1.42543e-13 1.42542e-13 8.67692e-19 6.08722e-06 8.51253e-05 0 0 0 0 0 0 0 0 0 0 0 0 0 0 0 0 0 0 2.8026e-45 0 1.68156e-44 0 7.9874e-44 0 3.13891e-43 0 1.0818e-42 0 3.38974e-42 0 9.51061e-42 0 2.50356e-41 0 6.08065e-41 0 1.39561e-40 0 3.0349e-40 0 6.38824e-40 0
6.75157 1.41533e-13 1.41533e-13 7.05482e-19 4.98456e-06 7.56884e-05 0 0 0 0 0 0 0 0 0 0 0 0 0 0 5.60519e-45 0 4.62428e-44 0 2.99878e-43 0 1.5064e-42 0 6.41655e-42 0 2.35012e-41 0 7.6354e-41 0 2.2639e-40 0 6.03943e-40 0 1.51633e-39 0 3.52681e-39 0 7.77279e-39 0 1.62737e-38 0 3.30325e-38 0
7.09813 1.39254e-13 1.39253e-13 5.73252e-19 4.11661e-06 6.68023e-05 0 0 0 0 0 0 0 0 0 0 2.8026e-45 0 4.34403e-44 0 4.84849e-43 0 3.73586e-42 0 2.20536e-41 0 1.02379e-40 0 4.06466e-40 0 1.39715e-39 0 4.28557e-39 0 1.205e-38 0 3.06424e-38 0 7.35531e-38 0 1.64169e-37 0 3.4812e-37 0 7.03026e-37 0 1.37852e-36 0
7.46248 1.37393e-13 1.37392e-13 4.54329e-19 3.30679e-06 5.81524e-05 0 0 0 0 0 0 0 0 5.60519e-45 0 2.08793e-43 0 3.46541e-42 0 3.44986e-41 0 2.40517e-40 0 1.30185e-39 0 5.60701e-39 0 2.08117e-38 0 6.73512e-38 0 1.95589e-37 0 5.22882e-37 0 1.27042e-36 0 2.92186e-36 0 6.27084e-36 0 1.28182e-35 0 2.50129e-35 0 4.74602e-35 0
7.84553 1.3547e-13 1.35469e-13 3.43883e-19 2.53845e-06 4.99014e-05 0 0 0 7.00649e-45 0 0 5.60519e-45 0 5.2829e-43 0 1.5305e-41 0 2.20941e-40 0 1.96569e-39 0 1.24648e-38 0 6.21287e-38 0 2.49172e-37 0 8.67492e-37 0 2.65095e-36 0 7.30795e-36 0 1.86211e-35 0 4.33236e-35 0 9.567e-35 0 1.9781e-34 0 3.90471e-34 0 7.37483e-34 0 1.35624e-33 0
8.24824 1.51004e-13 1.51004e-13 2.53006e-19 1.67549e-06 4.28922e-05 0 1.4013e-45 0 3.62936e-43 1.4013e-45 0 5.395e-43 0 4.11645e-41 0 1.0126e-39 0 1.28315e-38 0 1.02605e-37 0 5.94533e-37 0 2.73983e-36 0 1.02678e-35 0 3.36352e-35 0 9.73295e-35 0 2.5535e-34 0 6.21602e-34 0 1.3878e-33 0 2.94837e-33 0 5.88371e-33 0 1.1235e-32 0 2.05708e-32 0 3.67212e-32 0
8.67162 1.83404e-13 1.83404e-13 2.19382e-19 1.19616e-06 3.73287e-05 0 5.74532e-44 0 1.87774e-41 9.66896e-44 0 4.54946e-41 0 2.80817e-39 0 5.90782e-38 0 6.61336e-37 0 4.77784e-36 0 2.54088e-35 0 1.08676e-34 0 3.81836e-34 0 1.18041e-33 0 3.24304e-33 0 8.11695e-33 0 1.89193e-32 0 4.06153e-32 0 8.31696e-32 0 1.60466e-31 0 2.96885e-31 0 5.27768e-31 0 9.15845e-31 0
9.11674 2.51739e-13 2.51738e-13 2.60954e-19 1.03661e-06 3.18476e-05 0 3.38133e-42 0 9.29054e-40 9.97024e-42 0 3.48071e-39 0 1.75678e-37 0 3.18513e-36 0 3.16888e-35 0 2.07867e-34 0 1.01883e-33 0 4.05918e-33 0 1.34133e-32 0 3.92428e-32 0 1.02624e-31 0 2.45605e-31 0 5.49294e-31 0 1.13603e-30 0 2.2463e-30 0 4.19713e-30 0 7.53548e-30 0 1.30247e-29 0 2.20018e-29 0
9.5847 3.06872e-13 3.06872e-13 3.61947e-19 1.17947e-06 2.85008e-05 0 1.49467e-40 2.10195e-44 3.48253e-38 7.31949e-40 0 1.91994e-37 0 8.00179e-36 0 1.25938e-34 0 1.12e-33 0 6.70216e-33 0 3.03969e-32 0 1.13202e-31 0 3.52863e-31 0 9.79641e-31 0 2.44441e-30 0 5.60605e-30 0 1.20547e-29 0 2.40622e-29 0 4.60211e-29 0 8.34039e-29 0 1.45524e-28 0 2.449e-28 0 4.03239e-28 0
10.0767 2.97041e-13 2.97041e-13 3.98216e-19 1.34061e-06 2.70628e-05 0 4.48519e-39 1.6199e-42 8.89832e-37 3.45069e-38 0 6.89631e-36 0 2.39566e-34 0 3.29575e-33 0 2.63439e-32 0 1.44457e-31 0 6.08549e-31 0 2.1254e-30 0 6.26738e-30 0 1.65537e-29 0 3.95015e-29 0 8.69954e-29 0 1.80203e-28 0 3.47764e-28 0 6.44402e-28 0 1.13443e-27 0 1.9263e-27 0 3.16039e-27 0 5.07856e-27 0
10.5939 2.52906e-13 2.52906e-13 3.53482e-19 1.39768e-06 2.66141e-05 1.4013e-45 1.01833e-37 8.92683e-41 1.72721e-35 1.16926e-36 0 1.80423e-34 0 5.27077e-33 0 6.37991e-32 0 4.60751e-31 0 2.3251e-30 0 9.13069e-30 0 3.00006e-29 0 8.39162e-29 0 2.11378e-28 0 4.83434e-28 0 1.02442e-27 0 2.04788e-27 0 3.82724e-27 0 6.88144e-27 0 1.17844e-26 0 1.94997e-26 0 3.12281e-26 0 4.9033e-26 0
11.1377 2.11291e-13 2.11291e-13 2.97079e-19 1.40602e-06 2.72566e-05 1.45735e-43 1.9631e-36 3.8912e-39 2.85779e-34 3.20832e-35 0 3.87091e-33 0 9.59044e-32 0 1.02779e-30 0 6.73961e-30 0 3.14259e-29 0 1.15437e-28 0 3.57889e-28 0 9.52036e-28 0 2.29234e-27 0 5.03518e-27 0 1.02857e-26 0 1.98779e-26 0 3.60324e-26 0 6.29573e-26 0 1.05019e-25 0 1.69555e-25 0 2.65364e-25 0 4.07584e-25 0
11.7094 1.6968e-13 1.6968e-13 2.32293e-19 1.369e-06 2.74201e-05 8.19479e-42 3.1657e-35 1.32781e-37 3.97053e-33 7.04899e-34 0 6.73029e-32 0 1.4256e-30 0 1.36073e-29 0 8.14002e-29 0 3.52073e-28 0 1.21367e-27 0 3.56051e-27 0 9.02966e-27 0 2.08288e-26 0 4.40267e-26 0 8.68536e-26 0 1.62538e-25 0 2.86197e-25 0 4.86615e-25 0 7.91695e-25 0 1.24865e-24 0 1.91195e-24 0 2.87576e-24 0
