# 5.3088e-08 0 7 : grain size, compostion index, size index
# Heating and cooling timescale: 615774 0.795584
# Ratio of heating to cooling to determine stochastic cutoff: 100
# Equilibrium emission is recorded even for those grains in the stochastic regime.
# Emission spectrum was computed for: 
# Type: IRSF
# Scales: 0.25 0.5 1 1.5 2 2.5 3 3.5 4 4.5 5 5.5 6 6.5 7 7.5 8 8.5 9 9.5 10
# StochasticallyHeated: 1 1 1 1 1 1 1 1 1 1 1 1 1 1 1 1 1 1 1 1 1
# Temperature: -1
# Wavelength  CExt  CAbs  CSca  Albedo G EqEm1 StEm1 EqEm2 StEm2 EqEm3 StEm3 EqEm4 StEm4 EqEm5 StEm5 EqEm6 StEm6 EqEm7 StEm7 EqEm8 StEm8 EqEm9 StEm9 EqEm10 StEm10 EqEm11 StEm11 EqEm12 StEm12 EqEm13 StEm13 EqEm14 StEm14 EqEm15 StEm15 EqEm16 StEm16 EqEm17 StEm17 EqEm18 StEm18 EqEm19 StEm19 EqEm20 StEm20 EqEm21 StEm21
0.05 1.86598e-16 1.86593e-16 4.30624e-21 2.30777e-05 4.74175e-05 0 0 0 0 0 0 0 0 0 0 0 0 0 0 0 0 0 0 0 0 0 0 0 0 0 0 0 0 0 0 0 0 0 0 0 0 0 0 0 0 0 0
0.0525665 2.06246e-16 2.06241e-16 4.75967e-21 2.30777e-05 5.24103e-05 0 0 0 0 0 0 0 0 0 0 0 0 0 0 0 0 0 0 0 0 0 0 0 0 0 0 0 0 0 0 0 0 0 0 0 0 0 0 0 0 0 0
0.0552647 2.27962e-16 2.27957e-16 5.26084e-21 2.30777e-05 5.79289e-05 0 0 0 0 0 0 0 0 0 0 0 0 0 0 0 0 0 0 0 0 0 0 0 0 0 0 0 0 0 0 0 0 0 0 0 0 0 0 0 0 0 0
0.0581015 2.51965e-16 2.5196e-16 5.81477e-21 2.30777e-05 6.40285e-05 0 0 0 0 0 0 0 0 0 0 0 0 0 0 0 0 0 0 0 0 0 0 0 0 0 0 0 0 0 0 0 0 0 0 0 0 0 0 0 0 0 0
0.0610839 2.78496e-16 2.7849e-16 6.42704e-21 2.30777e-05 7.07704e-05 0 0 0 0 0 0 0 0 0 0 0 0 0 0 0 0 0 0 0 0 0 0 0 0 0 0 0 0 0 0 0 0 0 0 0 0 0 0 0 0 0 0
0.0642193 3.0782e-16 3.07813e-16 7.10378e-21 2.30777e-05 7.82222e-05 0 0 0 0 0 0 0 0 0 0 0 0 0 0 0 0 0 0 0 0 0 0 0 0 0 0 0 0 0 0 0 0 0 0 0 0 0 0 0 0 0 0
0.0675157 3.40233e-16 3.40225e-16 7.85177e-21 2.30777e-05 8.64586e-05 0 0 0 0 0 0 0 0 0 0 0 0 0 0 0 0 0 0 0 0 0 0 0 0 0 0 0 0 0 0 0 0 0 0 0 0 0 0 0 0 0 0
0.0709813 3.76057e-16 3.76049e-16 8.67852e-21 2.30777e-05 9.55622e-05 0 0 0 0 0 0 0 0 0 0 0 0 0 0 0 0 0 0 0 0 0 0 0 0 0 0 0 0 0 0 0 0 0 0 0 0 0 0 0 0 0 0
0.0746248 4.15654e-16 4.15645e-16 9.59233e-21 2.30777e-05 0.000105624 0 0 0 0 0 0 0 0 0 0 0 0 0 0 0 0 0 0 0 0 0 0 0 0 0 0 0 0 0 0 0 0 0 0 0 0 0 0 0 0 0 0
0.0784553 4.59421e-16 4.5941e-16 1.06024e-20 2.30777e-05 0.000116746 0 0 0 0 0 0 0 0 0 0 0 0 0 0 0 0 0 0 0 0 0 0 0 0 0 0 0 0 0 0 0 0 0 0 0 0 0 0 0 0 0 0
0.0824824 5.07795e-16 5.07784e-16 1.17187e-20 2.30777e-05 0.000129039 0 0 0 0 0 0 0 0 0 0 0 0 0 0 0 0 0 0 0 0 0 0 0 0 0 0 0 0 0 0 0 0 0 0 0 0 0 0 0 0 0 0
0.0867162 5.61264e-16 5.61251e-16 1.29527e-20 2.30777e-05 0.000142626 0 0 0 0 0 0 0 0 0 0 0 0 0 0 0 0 0 0 0 0 0 0 0 0 0 0 0 0 0 0 0 0 0 0 0 0 0 0 0 0 0 0
0.0911674 6.20362e-16 6.20348e-16 1.43165e-20 2.30777e-05 0.000157644 0 0 0 0 0 0 0 0 0 0 0 0 0 0 0 0 0 0 0 0 0 0 0 0 0 0 0 0 0 0 0 0 0 0 0 0 0 0 0 0 0 0
0.095847 6.85684e-16 6.85668e-16 1.5824e-20 2.30777e-05 0.000174243 0 0 0 0 0 0 0 0 0 0 0 0 0 0 0 0 0 0 0 0 0 0 0 0 0 0 0 0 0 0 0 0 0 0 0 0 0 0 0 0 0 0
0.100767 7.32344e-16 7.32328e-16 1.61562e-20 2.2061e-05 0.000193608 0 0 0 0 0 0 0 0 0 0 0 1.4013e-45 0 1.4013e-45 0 1.4013e-45 0 1.4013e-45 0 2.8026e-45 0 2.8026e-45 0 4.2039e-45 0 4.2039e-45 0 5.60519e-45 0 5.60519e-45 0 7.00649e-45 0 7.00649e-45 0 8.40779e-45 0 9.80909e-45 0 9.80909e-45 0 1.12104e-44
0.105939 6.40841e-16 6.4083e-16 1.08414e-20 1.69174e-05 0.000208852 0 0 0 0 0 2.8026e-45 0 5.60519e-45 0 9.80909e-45 0 1.54143e-44 0 2.10195e-44 0 2.94273e-44 0 3.78351e-44 0 4.90454e-44 0 6.02558e-44 0 7.28675e-44 0 8.68805e-44 0 1.02295e-43 0 1.17709e-43 0 1.35926e-43 0 1.54143e-43 0 1.73761e-43 0 1.9478e-43 0 2.17201e-43 0 2.41023e-43
0.111377 5.5272e-16 5.52712e-16 8.47082e-21 1.53257e-05 0.00023717 0 2.8026e-45 0 9.80909e-45 0 3.92364e-44 0 9.10844e-44 0 1.65353e-43 0 2.57839e-43 0 3.71344e-43 0 5.05869e-43 0 6.71222e-43 0 8.50588e-43 0 1.04957e-42 0 1.26958e-42 0 1.5106e-42 0 1.77404e-42 0 2.05711e-42 0 2.36119e-42 0 2.68629e-42 0 3.03241e-42 0 3.39955e-42 0 3.78911e-42 0 4.19829e-42
0.117094 4.70975e-16 4.7097e-16 5.70728e-21 1.2118e-05 0.000219037 0 3.50325e-44 0 1.47136e-43 0 5.94151e-43 0 1.35786e-42 0 2.45227e-42 0 3.83115e-42 0 5.51691e-42 0 7.50816e-42 0 9.95623e-42 0 1.26019e-41 0 1.55572e-41 0 1.8825e-41 0 2.24026e-41 0 2.62926e-41 0 3.04937e-41 0 3.50058e-41 0 3.98291e-41 0 4.49635e-41 0 5.04089e-41 0 5.61668e-41 0 6.22345e-41
0.123105 3.98959e-16 3.98955e-16 3.60077e-21 9.02541e-06 0.000187935 0 4.59626e-43 0 1.88895e-42 0 7.64689e-42 0 1.74378e-41 0 3.14143e-41 0 4.90819e-41 0 7.06759e-41 0 9.61963e-41 0 1.2733e-40 0 1.61151e-40 0 1.98951e-40 0 2.4073e-40 0 2.8649e-40 0 3.36228e-40 0 3.89946e-40 0 4.47645e-40 0 5.09323e-40 0 5.74981e-40 0 6.44618e-40 0 7.18238e-40 0 7.95838e-40
0.129424 3.36053e-16 3.3605e-16 2.31792e-21 6.89749e-06 0.000158152 0 5.20442e-42 0 2.12143e-41 0 8.55745e-41 0 1.94691e-40 0 3.50036e-40 0 5.46782e-40 0 7.87226e-40 0 1.07137e-39 0 1.41572e-39 0 1.79166e-39 0 2.21181e-39 0 2.67618e-39 0 3.18478e-39 0 3.73759e-39 0 4.33464e-39 0 4.97591e-39 0 5.66141e-39 0 6.39114e-39 0 7.16509e-39 0 7.98328e-39 0 8.8457e-39
0.136067 2.9201e-16 2.92008e-16 1.514e-21 5.18478e-06 0.000133796 0 5.46576e-41 0 2.18656e-40 0 8.73969e-40 0 1.9802e-39 0 3.55036e-39 0 5.54171e-39 0 7.97458e-39 0 1.0849e-38 0 1.43109e-38 0 1.81072e-38 0 2.23496e-38 0 2.70383e-38 0 3.2173e-38 0 3.7754e-38 0 4.37812e-38 0 5.02546e-38 0 5.71742e-38 0 6.45401e-38 0 7.23522e-38 0 8.06106e-38 0 8.93153e-38
0.143051 2.65421e-16 2.6542e-16 9.93512e-22 3.74315e-06 0.000114081 0 5.68186e-40 0 2.16142e-39 0 8.41711e-39 0 1.88836e-38 0 3.36668e-38 0 5.24178e-38 0 7.53028e-38 0 1.02322e-37 0 1.34664e-37 0 1.70267e-37 0 2.10043e-37 0 2.5399e-37 0 3.02108e-37 0 3.54399e-37 0 4.10862e-37 0 4.71497e-37 0 5.36305e-37 0 6.05285e-37 0 6.78437e-37 0 7.55763e-37 0 8.37262e-37
0.150394 2.51092e-16 2.51091e-16 6.55534e-22 2.61073e-06 9.73863e-05 0 6.41356e-39 0 2.17421e-38 0 7.90985e-38 0 1.72946e-37 0 3.04084e-37 0 4.69881e-37 0 6.71591e-37 0 9.09215e-37 0 1.19169e-36 0 1.50352e-36 0 1.85155e-36 0 2.23577e-36 0 2.65619e-36 0 3.11281e-36 0 3.60563e-36 0 4.13466e-36 0 4.69988e-36 0 5.30131e-36 0 5.93894e-36 0 6.61278e-36 0 7.32283e-36
0.158114 2.48535e-16 2.48535e-16 4.46615e-22 1.79699e-06 8.3419e-05 0 8.7415e-38 0 2.4758e-37 0 7.85847e-37 0 1.62093e-36 0 2.7585e-36 0 4.18001e-36 0 5.89428e-36 0 7.90132e-36 0 1.02639e-35 0 1.28732e-35 0 1.57773e-35 0 1.89761e-35 0 2.24697e-35 0 2.62581e-35 0 3.03413e-35 0 3.47193e-35 0 3.9392e-35 0 4.43597e-35 0 4.96221e-35 0 5.51794e-35 0 6.10315e-35
0.16623 2.58385e-16 2.58385e-16 3.39134e-22 1.31252e-06 7.16982e-05 0 1.42642e-36 0 3.41526e-36 0 9.07842e-36 0 1.70293e-35 0 2.73066e-35 0 3.97863e-35 0 5.45273e-35 0 7.15297e-35 0 9.12084e-35 0 1.12844e-34 0 1.36754e-34 0 1.62939e-34 0 1.91398e-34 0 2.22132e-34 0 2.55142e-34 0 2.90426e-34 0 3.27984e-34 0 3.67818e-34 0 4.09926e-34 0 4.5431e-34 0 5.00969e-34
0.174762 2.83002e-16 2.83001e-16 3.09143e-22 1.09237e-06 6.16395e-05 0 2.50479e-35 0 5.42505e-35 0 1.25114e-34 0 2.12827e-34 0 3.17654e-34 0 4.38795e-34 0 5.76628e-34 0 7.31152e-34 0 9.04975e-34 0 1.09358e-33 0 1.29896e-33 0 1.52111e-33 0 1.76004e-33 0 2.01574e-33 0 2.28822e-33 0 2.57748e-33 0 2.88351e-33 0 3.20633e-33 0 3.54591e-33 0 3.90229e-33 0 4.27544e-33
0.183733 3.26797e-16 3.26796e-16 3.494e-22 1.06917e-06 5.24968e-05 0 4.33016e-34 0 8.95538e-34 0 1.90916e-33 0 3.04206e-33 0 4.29617e-33 0 5.66636e-33 0 7.15499e-33 0 8.7621e-33 0 1.05033e-32 0 1.23515e-32 0 1.43187e-32 0 1.64048e-32 0 1.86098e-32 0 2.09339e-32 0 2.33769e-32 0 2.59389e-32 0 2.86199e-32 0 3.14198e-32 0 3.43387e-32 0 3.73766e-32 0 4.05335e-32
0.193164 4.03847e-16 4.03846e-16 4.99237e-22 1.2362e-06 4.36865e-05 0 7.18507e-33 0 1.45757e-32 0 2.99755e-32 0 4.62029e-32 0 6.32742e-32 0 8.11547e-32 0 9.98598e-32 0 1.1939e-31 0 1.39836e-31 0 1.6104e-31 0 1.83071e-31 0 2.05931e-31 0 2.29618e-31 0 2.54132e-31 0 2.79475e-31 0 3.05645e-31 0 3.32642e-31 0 3.60468e-31 0 3.89121e-31 0 4.18603e-31 0 4.48912e-31
0.203079 5.27679e-16 5.27678e-16 7.86545e-22 1.49058e-06 3.50329e-05 0 1.11699e-31 0 2.24794e-31 0 4.55198e-31 0 6.91189e-31 0 9.32923e-31 0 1.18014e-30 0 1.43295e-30 0 1.69136e-30 0 1.95588e-30 0 2.22561e-30 0 2.50096e-30 0 2.78192e-30 0 3.06849e-30 0 3.36066e-30 0 3.65845e-30 0 3.96186e-30 0 4.27087e-30 0 4.5855e-30 0 4.90572e-30 0 5.23158e-30 0 5.56303e-30
0.213503 6.49801e-16 6.498e-16 1.13147e-21 1.74125e-06 2.6943e-05 0 1.4491e-30 0 2.90648e-30 0 5.84641e-30 0 8.81914e-30 0 1.18262e-29 0 1.48656e-29 0 1.79381e-29 0 2.10438e-29 0 2.41851e-29 0 2.73577e-29 0 3.05635e-29 0 3.38026e-29 0 3.70748e-29 0 4.03802e-29 0 4.37189e-29 0 4.70908e-29 0 5.04958e-29 0 5.39341e-29 0 5.74054e-29 0 6.09102e-29 0 6.44481e-29
0.224463 6.2348e-16 6.23479e-16 1.28238e-21 2.05682e-06 1.99469e-05 0 1.30148e-29 0 2.60653e-29 0 5.22759e-29 0 7.86256e-29 0 1.05126e-28 0 1.31763e-28 0 1.58543e-28 0 1.85466e-28 0 2.12539e-28 0 2.39749e-28 0 2.67101e-28 0 2.94596e-28 0 3.22234e-28 0 3.50014e-28 0 3.77937e-28 0 4.06002e-28 0 4.3421e-28 0 4.62561e-28 0 4.91054e-28 0 5.1969e-28 0 5.48469e-28
0.235984 4.82677e-16 4.82676e-16 1.13558e-21 2.35268e-06 1.42376e-05 0 8.41986e-29 0 1.68514e-28 0 3.37509e-28 0 5.06947e-28 0 6.76889e-28 0 8.47269e-28 0 1.01811e-27 0 1.18942e-27 0 1.36121e-27 0 1.53345e-27 0 1.70615e-27 0 1.87932e-27 0 2.05294e-27 0 2.22703e-27 0 2.40159e-27 0 2.5766e-27 0 2.75208e-27 0 2.92803e-27 0 3.10443e-27 0 3.2813e-27 0 3.45863e-27
0.248097 3.64884e-16 3.64884e-16 8.72284e-22 2.39058e-06 1.09057e-05 0 4.7732e-28 0 9.54993e-28 0 1.91147e-27 0 2.86923e-27 0 3.82857e-27 0 4.78918e-27 0 5.75117e-27 0 6.71455e-27 0 7.67939e-27 0 8.64555e-27 0 9.61311e-27 0 1.05821e-26 0 1.15524e-26 0 1.25241e-26 0 1.34972e-26 0 1.44717e-26 0 1.54475e-26 0 1.64248e-26 0 1.74034e-26 0 1.83834e-26 0 1.93648e-26
0.260832 2.92526e-16 2.92525e-16 6.3123e-22 2.15786e-06 1.13641e-05 0 2.58831e-27 0 5.17772e-27 0 1.03601e-26 0 1.55462e-26 0 2.07373e-26 0 2.59321e-26 0 3.11311e-26 0 3.63343e-26 0 4.15418e-26 0 4.67534e-26 0 5.19692e-26 0 5.71891e-26 0 6.24132e-26 0 6.76414e-26 0 7.28739e-26 0 7.81106e-26 0 8.33513e-26 0 8.85963e-26 0 9.38453e-26 0 9.90987e-26 0 1.04356e-25
0.274221 2.49018e-16 2.49018e-16 4.4836e-22 1.80051e-06 1.51912e-05 0 1.35092e-26 0 2.70218e-26 0 5.40588e-26 0 8.11062e-26 0 1.08171e-25 0 1.35246e-25 0 1.62333e-25 0 1.89434e-25 0 2.16548e-25 0 2.43674e-25 0 2.70813e-25 0 2.97966e-25 0 3.2513e-25 0 3.52307e-25 0 3.79498e-25 0 4.06701e-25 0 4.33916e-25 0 4.61145e-25 0 4.88386e-25 0 5.15641e-25 0 5.42907e-25
0.288297 2.21646e-16 2.21646e-16 3.19317e-22 1.44066e-06 2.03511e-05 0 6.71455e-26 0 1.34302e-25 0 2.68654e-25 0 4.03037e-25 0 5.37477e-25 0 6.71947e-25 0 8.06455e-25 0 9.41004e-25 0 1.07559e-24 0 1.21022e-24 0 1.34489e-24 0 1.4796e-24 0 1.61435e-24 0 1.74913e-24 0 1.88396e-24 0 2.01882e-24 0 2.15373e-24 0 2.28867e-24 0 2.42365e-24 0 2.55868e-24 0 2.69374e-24
0.303095 2.0281e-16 2.0281e-16 2.31194e-22 1.13995e-06 2.28235e-05 0 3.13898e-25 0 6.27832e-25 0 1.25583e-24 0 1.88392e-24 0 2.5122e-24 0 3.14056e-24 0 3.76904e-24 0 4.39764e-24 0 5.02638e-24 0 5.65523e-24 0 6.28421e-24 0 6.9133e-24 0 7.54252e-24 0 8.17185e-24 0 8.80131e-24 0 9.4309e-24 0 1.00606e-23 0 1.06904e-23 0 1.13204e-23 0 1.19504e-23 0 1.25806e-23
0.318653 1.79979e-16 1.79979e-16 1.71335e-22 9.51969e-07 2.38141e-05 0 1.30774e-24 0 2.6156e-24 0 5.23172e-24 0 7.84807e-24 0 1.04651e-23 0 1.30822e-23 0 1.56998e-23 0 1.83176e-23 0 2.09359e-23 0 2.35545e-23 0 2.61735e-23 0 2.87928e-23 0 3.14125e-23 0 3.40325e-23 0 3.66529e-23 0 3.92737e-23 0 4.18947e-23 0 4.45162e-23 0 4.71379e-23 0 4.97601e-23 0 5.23826e-23
0.335009 1.58315e-16 1.58314e-16 1.30323e-22 8.23191e-07 2.34203e-05 0 4.98265e-24 0 9.96564e-24 0 1.99329e-23 0 2.99007e-23 0 3.98705e-23 0 4.98407e-23 0 5.98119e-23 0 6.97841e-23 0 7.97575e-23 0 8.97317e-23 0 9.9707e-23 0 1.09683e-22 0 1.19661e-22 0 1.29639e-22 0 1.39618e-22 0 1.49598e-22 0 1.59579e-22 0 1.69562e-22 0 1.79545e-22 0 1.89529e-22 0 1.99514e-22
0.352205 1.38355e-16 1.38355e-16 1.01672e-22 7.34864e-07 2.22229e-05 0 1.74706e-23 0 3.49423e-23 0 6.98892e-23 0 1.04838e-22 0 1.39792e-22 0 1.74747e-22 0 2.09704e-22 0 2.44665e-22 0 2.79629e-22 0 3.14595e-22 0 3.49564e-22 0 3.84536e-22 0 4.1951e-22 0 4.54486e-22 0 4.89466e-22 0 5.24449e-22 0 5.59434e-22 0 5.94422e-22 0 6.29412e-22 0 6.64405e-22 0 6.99401e-22
0.370284 1.2009e-16 1.2009e-16 8.11016e-23 6.75339e-07 2.07765e-05 0 5.65634e-23 0 1.1313e-22 0 2.26272e-22 0 3.39419e-22 0 4.52581e-22 0 5.65745e-22 0 6.78916e-22 0 7.92094e-22 0 9.05282e-22 0 1.01847e-21 0 1.13168e-21 0 1.24488e-21 0 1.3581e-21 0 1.47132e-21 0 1.58455e-21 0 1.69779e-21 0 1.81103e-21 0 1.92428e-21 0 2.03753e-21 0 2.1508e-21 0 2.26407e-21
0.389291 1.03429e-16 1.03429e-16 6.57892e-23 6.36079e-07 1.93719e-05 0 1.69533e-22 0 3.39074e-22 0 6.78181e-22 0 1.0173e-21 0 1.35646e-21 0 1.69562e-21 0 2.0348e-21 0 2.374e-21 0 2.71322e-21 0 3.05245e-21 0 3.39171e-21 0 3.73098e-21 0 4.07027e-21 0 4.40957e-21 0 4.7489e-21 0 5.08825e-21 0 5.42761e-21 0 5.76699e-21 0 6.10638e-21 0 6.4458e-21 0 6.78523e-21
0.409273 8.83255e-17 8.83254e-17 5.39164e-23 6.10429e-07 1.80052e-05 0 4.71625e-22 0 9.43271e-22 0 1.88663e-21 0 2.83e-21 0 3.77348e-21 0 4.71697e-21 0 5.6605e-21 0 6.60407e-21 0 7.5477e-21 0 8.49136e-21 0 9.43508e-21 0 1.03788e-20 0 1.13226e-20 0 1.22665e-20 0 1.32103e-20 0 1.41543e-20 0 1.50982e-20 0 1.60423e-20 0 1.69863e-20 0 1.79304e-20 0 1.88745e-20
0.430281 7.46422e-17 7.46422e-17 4.43921e-23 5.94732e-07 1.67076e-05 0 1.21924e-21 0 2.43853e-21 0 4.87727e-21 0 7.31606e-21 0 9.75507e-21 0 1.21941e-20 0 1.46332e-20 0 1.70725e-20 0 1.95118e-20 0 2.19513e-20 0 2.43908e-20 0 2.68305e-20 0 2.92702e-20 0 3.171e-20 0 3.415e-20 0 3.659e-20 0 3.90301e-20 0 4.14704e-20 0 4.39107e-20 0 4.63511e-20 0 4.87917e-20
0.452368 6.2109e-17 6.21089e-17 3.65791e-23 5.8895e-07 1.53697e-05 0 2.92319e-21 0 5.84649e-21 0 1.16934e-20 0 1.75405e-20 0 2.3388e-20 0 2.92356e-20 0 3.50833e-20 0 4.09313e-20 0 4.67796e-20 0 5.26281e-20 0 5.84768e-20 0 6.43257e-20 0 7.01747e-20 0 7.6024e-20 0 8.18736e-20 0 8.77234e-20 0 9.35733e-20 0 9.94235e-20 0 1.05274e-19 0 1.11124e-19 0 1.16975e-19
0.475588 5.00332e-17 5.00332e-17 3.01106e-23 6.01813e-07 1.40875e-05 0 6.40915e-21 0 1.28185e-20 0 2.56379e-20 0 3.84576e-20 0 5.12782e-20 0 6.40989e-20 0 7.692e-20 0 8.97416e-20 0 1.02564e-19 0 1.15386e-19 0 1.28209e-19 0 1.41033e-19 0 1.53856e-19 0 1.6668e-19 0 1.79505e-19 0 1.9233e-19 0 2.05155e-19 0 2.17981e-19 0 2.30808e-19 0 2.43634e-19 0 2.56461e-19
0.5 3.70884e-17 3.70884e-17 2.47515e-23 6.67366e-07 1.28552e-05 0 1.22473e-20 0 2.44951e-20 0 4.89916e-20 0 7.34888e-20 0 9.79876e-20 0 1.22487e-19 0 1.46986e-19 0 1.71487e-19 0 1.95988e-19 0 2.2049e-19 0 2.44993e-19 0 2.69497e-19 0 2.94001e-19 0 3.18506e-19 0 3.43012e-19 0 3.67518e-19 0 3.92025e-19 0 4.16533e-19 0 4.41042e-19 0 4.65552e-19 0 4.90062e-19
0.525665 2.60804e-17 2.60804e-17 2.03278e-23 7.79428e-07 1.16907e-05 0 2.10825e-20 0 4.21656e-20 0 8.43337e-20 0 1.26503e-19 0 1.68674e-19 0 2.10846e-19 0 2.53019e-19 0 2.95193e-19 0 3.37369e-19 0 3.79546e-19 0 4.21724e-19 0 4.63903e-19 0 5.06084e-19 0 5.48265e-19 0 5.90448e-19 0 6.32632e-19 0 6.74817e-19 0 7.17003e-19 0 7.59191e-19 0 8.01379e-19 0 8.43569e-19
0.552648 2.02284e-17 2.02284e-17 1.66907e-23 8.2511e-07 1.06313e-05 0 3.81049e-20 0 7.62109e-20 0 1.52426e-19 0 2.28643e-19 0 3.04863e-19 0 3.81085e-19 0 4.57308e-19 0 5.33533e-19 0 6.09762e-19 0 6.85991e-19 0 7.62223e-19 0 8.38457e-19 0 9.14692e-19 0 9.9093e-19 0 1.06717e-18 0 1.14341e-18 0 1.21966e-18 0 1.2959e-18 0 1.37215e-18 0 1.4484e-18 0 1.52465e-18
0.581015 1.54811e-17 1.54811e-17 1.37124e-23 8.85752e-07 9.64709e-06 0 6.48414e-20 0 1.29685e-19 0 2.59376e-19 0 3.8907e-19 0 5.1877e-19 0 6.48472e-19 0 7.78176e-19 0 9.07884e-19 0 1.0376e-18 0 1.16731e-18 0 1.29703e-18 0 1.42675e-18 0 1.55647e-18 0 1.6862e-18 0 1.81593e-18 0 1.94567e-18 0 2.0754e-18 0 2.20514e-18 0 2.33489e-18 0 2.46463e-18 0 2.59438e-18
0.610839 1.01287e-17 1.01287e-17 1.12767e-23 1.11334e-06 8.75372e-06 0 9.02032e-20 0 1.80409e-19 0 3.60826e-19 0 5.41248e-19 0 7.21677e-19 0 9.02108e-19 0 1.08254e-18 0 1.26298e-18 0 1.44343e-18 0 1.62387e-18 0 1.80433e-18 0 1.98478e-18 0 2.16524e-18 0 2.34571e-18 0 2.52618e-18 0 2.70665e-18 0 2.88713e-18 0 3.06761e-18 0 3.24809e-18 0 3.42859e-18 0 3.60908e-18
0.642193 6.44359e-18 6.44358e-18 9.28952e-24 1.44167e-06 7.94363e-06 0 1.16926e-19 0 2.33856e-19 0 4.67722e-19 0 7.01593e-19 0 9.35474e-19 0 1.16936e-18 0 1.40324e-18 0 1.63714e-18 0 1.87104e-18 0 2.10494e-18 0 2.33885e-18 0 2.57276e-18 0 2.80668e-18 0 3.04061e-18 0 3.27454e-18 0 3.50847e-18 0 3.74241e-18 0 3.97635e-18 0 4.2103e-18 0 4.44426e-18 0 4.67822e-18
0.675157 4.14828e-18 4.14828e-18 7.66647e-24 1.84811e-06 7.21364e-06 0 1.47282e-19 0 2.94567e-19 0 5.89146e-19 0 8.83732e-19 0 1.17833e-18 0 1.47293e-18 0 1.76753e-18 0 2.06214e-18 0 2.35676e-18 0 2.65138e-18 0 2.94602e-18 0 3.24065e-18 0 3.53529e-18 0 3.82994e-18 0 4.1246e-18 0 4.41926e-18 0 4.71392e-18 0 5.0086e-18 0 5.30327e-18 0 5.59796e-18 0 5.89265e-18
0.709813 2.67405e-18 2.67404e-18 6.33935e-24 2.37069e-06 6.55739e-06 0 1.78713e-19 0 3.57429e-19 0 7.14872e-19 0 1.07232e-18 0 1.42979e-18 0 1.78725e-18 0 2.14472e-18 0 2.5022e-18 0 2.85969e-18 0 3.21719e-18 0 3.57469e-18 0 3.9322e-18 0 4.28971e-18 0 4.64724e-18 0 5.00477e-18 0 5.36231e-18 0 5.71985e-18 0 6.0774e-18 0 6.43495e-18 0 6.79252e-18 0 7.15009e-18
0.746248 2.05072e-18 2.05071e-18 5.25201e-24 2.56106e-06 5.97101e-06 0 2.48658e-19 0 4.97322e-19 0 9.94662e-19 0 1.49201e-18 0 1.98938e-18 0 2.48675e-18 0 2.98413e-18 0 3.48152e-18 0 3.97892e-18 0 4.47633e-18 0 4.97375e-18 0 5.47117e-18 0 5.96861e-18 0 6.46605e-18 0 6.96351e-18 0 7.46097e-18 0 7.95844e-18 0 8.45593e-18 0 8.95341e-18 0 9.45092e-18 0 9.94842e-18
0.784553 1.59301e-18 1.59301e-18 4.35873e-24 2.73615e-06 5.43859e-06 0 3.38371e-19 0 6.76749e-19 0 1.35352e-18 0 2.03031e-18 0 2.70712e-18 0 3.38393e-18 0 4.06075e-18 0 4.73759e-18 0 5.41444e-18 0 6.0913e-18 0 6.76817e-18 0 7.44506e-18 0 8.12195e-18 0 8.79886e-18 0 9.47578e-18 0 1.01527e-17 0 1.08297e-17 0 1.15066e-17 0 1.21836e-17 0 1.28606e-17 0 1.35375e-17
0.824824 1.11793e-18 1.11793e-18 3.62321e-24 3.24099e-06 4.96153e-06 0 4.02307e-19 0 8.04622e-19 0 1.60927e-18 0 2.41394e-18 0 3.21862e-18 0 4.02332e-18 0 4.82802e-18 0 5.63274e-18 0 6.43748e-18 0 7.24223e-18 0 8.04699e-18 0 8.85176e-18 0 9.65655e-18 0 1.04614e-17 0 1.12662e-17 0 1.2071e-17 0 1.28758e-17 0 1.36807e-17 0 1.44856e-17 0 1.52904e-17 0 1.60953e-17
0.867162 8.82824e-19 8.82821e-19 3.01551e-24 3.41576e-06 4.53156e-06 0 5.21399e-19 0 1.04281e-18 0 2.08565e-18 0 3.12851e-18 0 4.1714e-18 0 5.21429e-18 0 6.2572e-18 0 7.30013e-18 0 8.34308e-18 0 9.38605e-18 0 1.0429e-17 0 1.1472e-17 0 1.2515e-17 0 1.35581e-17 0 1.46011e-17 0 1.56442e-17 0 1.66873e-17 0 1.77304e-17 0 1.87735e-17 0 1.98166e-17 0 2.08597e-17
0.911674 8.50585e-19 8.50582e-19 2.51243e-24 2.95377e-06 4.14269e-06 0 7.99867e-19 0 1.59975e-18 0 3.19954e-18 0 4.79937e-18 0 6.39923e-18 0 7.99911e-18 0 9.59901e-18 0 1.11989e-17 0 1.27989e-17 0 1.43989e-17 0 1.59989e-17 0 1.75989e-17 0 1.91989e-17 0 2.0799e-17 0 2.23991e-17 0 2.39992e-17 0 2.55994e-17 0 2.71995e-17 0 2.87997e-17 0 3.03999e-17 0 3.20002e-17
0.95847 1.03123e-18 1.03123e-18 2.09466e-24 2.03122e-06 3.79426e-06 0 1.50018e-18 0 3.0004e-18 0 6.00087e-18 0 9.00142e-18 0 1.2002e-17 0 1.50026e-17 0 1.80033e-17 0 2.1004e-17 0 2.40048e-17 0 2.70056e-17 0 3.00064e-17 0 3.30073e-17 0 3.60082e-17 0 3.90092e-17 0 4.20102e-17 0 4.50113e-17 0 4.80124e-17 0 5.10135e-17 0 5.40147e-17 0 5.70159e-17 0 6.00172e-17
1.00767 2.17566e-18 2.17566e-18 1.74721e-24 8.03068e-07 3.4779e-06 0 4.76392e-18 0 9.52792e-18 0 1.90561e-17 0 2.85845e-17 0 3.8113e-17 0 4.76416e-17 0 5.71703e-17 0 6.66992e-17 0 7.62282e-17 0 8.57574e-17 0 9.52867e-17 0 1.04816e-16 0 1.14346e-16 0 1.23875e-16 0 1.33405e-16 0 1.42935e-16 0 1.52465e-16 0 1.61995e-16 0 1.71526e-16 0 1.81056e-16 0 1.90587e-16
