# 1.53165e-06 1 36 : grain size, compostion index, size index
# Heating and cooling timescale: 19.4638 2714.31
# Ratio of heating to cooling to determine stochastic cutoff: 100
# Equilibrium emission is recorded even for those grains in the stochastic regime.
# Emission spectrum was computed for: 
# Type: IRSF
# Scales: 0.5 1 2 5 10
StochasticallyHeated: 1 1 1 1 0
# Temperature: -1
# Wavelength  CExt  CAbs  CSca  Albedo G EqEm1 StEm1 EqEm2 StEm2 EqEm3 StEm3 EqEm4 StEm4 EqEm5 StEm5
0.05 1.01771e-11 5.94351e-12 4.23359e-12 0.415992 0.544128 0 0 0 0 0 0 0 0 0 0
0.0525665 1.10046e-11 6.50901e-12 4.49556e-12 0.408518 0.517699 0 0 0 0 0 0 0 0 0 0
0.0552647 1.18927e-11 7.13987e-12 4.75285e-12 0.399644 0.492804 0 0 0 0 0 0 0 0 0 0
0.0581015 1.26756e-11 7.7414e-12 4.93424e-12 0.389269 0.467777 0 0 0 0 0 0 0 0 0 0
0.0610839 1.34411e-11 8.27466e-12 5.1664e-12 0.384374 0.43959 0 0 0 0 0 0 0 0 0 0
0.0642193 1.47032e-11 9.00425e-12 5.69891e-12 0.387598 0.411561 0 0 0 0 0 0 0 0 0 0
0.0675157 1.68272e-11 1.02625e-11 6.56465e-12 0.390121 0.388416 0 0 0 0 0 0 0 0 0 0
0.0709813 1.90024e-11 1.17048e-11 7.29769e-12 0.38404 0.363975 0 0 0 0 0 0 0 0 0 0
0.0746248 2.03362e-11 1.26257e-11 7.71054e-12 0.379153 0.329124 0 0 0 0 0 0 0 0 0 0
0.0784553 2.07829e-11 1.29321e-11 7.85077e-12 0.377751 0.286436 0 0 0 0 0 0 0 0 0 0
0.0824824 2.07463e-11 1.29546e-11 7.79178e-12 0.375574 0.244663 0 0 0 0 0 0 0 0 0 0
0.0867162 2.10813e-11 1.32433e-11 7.83792e-12 0.371795 0.212598 0 0 0 0 0 0 0 0 0 0
0.0911674 2.1786e-11 1.3624e-11 8.16201e-12 0.374645 0.184981 0 0 0 0 0 0 0 0 0 0
0.095847 2.22035e-11 1.37217e-11 8.48175e-12 0.382001 0.164523 0 0 0 0 0 0 0 0 0 0
0.100767 2.12756e-11 1.32303e-11 8.04534e-12 0.378148 0.163391 0 0 0 0 0 0 0 0 0 0
0.105939 1.87536e-11 1.1522e-11 7.23159e-12 0.38561 0.177708 0 0 0 0 0 0 0 0 0 0
0.111377 1.43685e-11 8.89755e-12 5.47096e-12 0.38076 0.17648 0 0 0 0 0 0 0 0 0 0
0.117094 1.03607e-11 6.71285e-12 3.64782e-12 0.352083 0.183204 0 0 0 0 0 0 0 0 0 0
0.123105 6.98422e-12 4.60604e-12 2.37819e-12 0.340509 0.164165 0 0 0 0 0 0 0 0 0 0
0.129424 4.82727e-12 3.33959e-12 1.48768e-12 0.308182 0.135681 0 0 0 0 0 0 0 0 0 0
0.136067 3.76747e-12 2.82835e-12 9.39124e-13 0.249272 0.113191 0 0 0 0 0 0 0 0 0 0
0.143051 3.27334e-12 2.66833e-12 6.05014e-13 0.184831 0.0960678 0 0 0 0 0 0 0 0 0 0
0.150394 3.23257e-12 2.83042e-12 4.02151e-13 0.124406 0.082082 0 0 0 0 0 0 0 0 0 0
0.158114 3.51246e-12 3.21932e-12 2.93137e-13 0.0834565 0.0706273 0 0 0 0 0 0 0 0 0 0
0.16623 4.06626e-12 3.80921e-12 2.57058e-13 0.0632172 0.0611952 0 0 0 0 0 0 0 0 0 0
0.174762 4.98765e-12 4.69975e-12 2.87902e-13 0.057723 0.0531386 0 0 0 0 0 0 0 0 0 0
0.183733 6.34098e-12 5.96012e-12 3.80862e-13 0.0600636 0.045779 0 0 0 0 0 0 0 0 0 0
0.193164 8.50078e-12 7.92791e-12 5.72873e-13 0.0673906 0.0385701 0 0 0 0 0 0 0 0 0 0
0.203079 1.1527e-11 1.06377e-11 8.89344e-13 0.0771528 0.0311532 0 0 0 0 0 0 0 0 0 0
0.213503 1.41464e-11 1.29051e-11 1.24122e-12 0.0877414 0.0239714 0 0 0 0 0 0 0 0 0 0
0.224463 1.30262e-11 1.17841e-11 1.24204e-12 0.0953492 0.0179362 0 0 0 0 0 0 0 0 0 0
0.235984 9.53817e-12 8.62624e-12 9.11929e-13 0.0956084 0.0131866 0 0 0 0 0 0 0 0 0 0
0.248097 6.74263e-12 6.1521e-12 5.90527e-13 0.0875811 0.0100454 0 0 0 0 0 0 0 0 0 0
0.260832 5.23306e-12 4.83563e-12 3.97428e-13 0.0759456 0.00937274 0 0 0 0 0 0 0 0 0 0
0.274221 4.27533e-12 3.99414e-12 2.81186e-13 0.0657695 0.0111666 0 0 0 0 0 0 0 0 0 0
0.288297 3.64231e-12 3.4361e-12 2.06218e-13 0.0566172 0.0148811 0 0 0 0 0 0 0 0 0 0
0.303095 3.15095e-12 2.99386e-12 1.57092e-13 0.0498554 0.0170767 0 0 0 0 0 0 0 0 0 0
0.318653 2.73369e-12 2.61251e-12 1.21177e-13 0.0443273 0.0182371 0 0 0 0 0 0 0 0 0 0
0.335009 2.4052e-12 2.3105e-12 9.46952e-14 0.039371 0.0182635 0 0 0 0 0 0 0 0 0 0
0.352205 2.15113e-12 2.07612e-12 7.50092e-14 0.0348697 0.0175411 0 0 0 0 0 0 0 0 0 0
0.370284 1.94297e-12 1.88298e-12 5.9999e-14 0.03088 0.0165368 0 0 0 0 0 0 0 0 0 0
0.389291 1.7558e-12 1.7074e-12 4.8401e-14 0.0275663 0.0155144 0 0 0 0 0 0 0 0 0 0
0.409273 1.58306e-12 1.54388e-12 3.91838e-14 0.0247519 0.0144942 0 0 0 0 0 0 0 0 0 0
0.430281 1.42244e-12 1.39067e-12 3.17663e-14 0.0223324 0.0135082 0 0 0 0 0 0 0 0 0 0
0.452368 1.28553e-12 1.25978e-12 2.57578e-14 0.0200367 0.0124654 0 0 0 0 0 0 0 0 0 0
0.475588 1.16377e-12 1.14287e-12 2.09063e-14 0.0179642 0.0114547 0 0 0 0 0 0 0 0 0 0
0.5 1.06162e-12 1.0446e-12 1.70187e-14 0.0160309 0.0104748 0 0 0 0 0 0 0 0 0 0
0.525665 9.74268e-13 9.60395e-13 1.38725e-14 0.0142389 0.00954173 0 0 0 0 0 0 0 0 0 0
0.552647 8.93425e-13 8.8211e-13 1.13148e-14 0.0126645 0.00868884 0 0 0 0 0 0 0 0 0 0
0.581015 8.26743e-13 8.17467e-13 9.27625e-15 0.0112202 0.00789129 0 0 0 0 0 0 0 0 0 0
0.610839 7.64174e-13 7.56566e-13 7.60857e-15 0.00995659 0.00716763 0 0 0 0 0 0 0 0 0 0
0.642193 7.0531e-13 6.9907e-13 6.24066e-15 0.0088481 0.00651015 0 0 0 0 0 0 0 0 0 0
0.675157 6.51469e-13 6.46344e-13 5.12538e-15 0.00786741 0.00591501 0 0 0 0 0 0 0 0 0 0
0.709813 6.02253e-13 5.98036e-13 4.21721e-15 0.00700238 0.00538033 0 0 0 0 0 0 0 0 0 0
0.746248 5.56477e-13 5.53006e-13 3.47097e-15 0.0062374 0.00490224 0 0 0 0 0 0 0 0 0 0
0.784553 5.1342e-13 5.10563e-13 2.8562e-15 0.0055631 0.00446764 0 0 0 0 0 0 0 0 0 0
0.824824 4.73478e-13 4.71128e-13 2.35002e-15 0.00496331 0.00407741 0 0 0 0 0 0 0 0 0 0
0.867162 4.36381e-13 4.34447e-13 1.93445e-15 0.00443294 0.00372607 0 0 0 0 0 0 0 0 0 0
0.911674 4.01755e-13 4.00163e-13 1.59165e-15 0.00396173 0.00340804 0 0 0 0 0 0 0 0 0 0
0.95847 3.69831e-13 3.68523e-13 1.3086e-15 0.00353836 0.003123 0 0 0 0 0 0 0 0 0 0
1.00767 3.40153e-13 3.39077e-13 1.07604e-15 0.0031634 0.00286399 0 0 0 0 0 0 0 0 0 0
1.05939 3.13212e-13 3.12328e-13 8.84496e-16 0.00282395 0.00262901 0 0 0 0 0 0 0 0 0 0
1.11377 2.88024e-13 2.87298e-13 7.26872e-16 0.00252365 0.00241492 0 0 0 0 0 0 0 0 0 0
1.17094 2.657e-13 2.65103e-13 5.97108e-16 0.0022473 0.00221493 0 0 0 0 0 0 0 0 0 0
1.23105 2.45193e-13 2.44702e-13 4.90765e-16 0.00200155 0.00203169 0 0 0 0 0 0 0 0 0 0
1.29424 2.2625e-13 2.25847e-13 4.0351e-16 0.00178347 0.00186296 0 0 0 0 0 0 0 0 0 0
1.36067 2.08784e-13 2.08453e-13 3.31591e-16 0.0015882 0.0017092 0 0 0 0 0 0 0 0 0 0
1.43051 1.92707e-13 1.92434e-13 2.72373e-16 0.00141341 0.00156905 0 0 0 0 0 0 0 0 0 0
1.50394 1.78135e-13 1.77911e-13 2.23821e-16 0.00125647 0.00143945 0 0 0 0 0 0 0 0 0 0
1.58114 1.64862e-13 1.64678e-13 1.83933e-16 0.00111568 0.00131851 0 0 0 0 0 0 0 0 0 0
1.6623 1.52617e-13 1.52466e-13 1.51174e-16 0.000990545 0.00120624 0 0 0 0 0 0 0 0 0 0
1.74762 1.41124e-13 1.41e-13 1.24267e-16 0.000880554 0.00110504 0 0 0 0 0 0 0 0 0 0
1.83733 1.30532e-13 1.3043e-13 1.0214e-16 0.00078249 0.00101251 0 0 0 0 0 0 0 0 0 0
1.93164 1.20738e-13 1.20654e-13 8.39237e-17 0.000695092 0.000927519 0 0 0 0 0 0 0 0 0 0
2.03079 1.11773e-13 1.11704e-13 6.89412e-17 0.000616798 0.000848615 0 0 0 0 0 0 0 0 0 0
2.13503 1.03445e-13 1.03389e-13 5.6679e-17 0.000547913 0.000776407 0 0 0 0 0 0 0 0 0 0
2.24463 9.56857e-14 9.56392e-14 4.65774e-17 0.000486775 0.000710588 0 0 0 0 0 0 0 0 0 0
2.35984 8.85823e-14 8.8544e-14 3.82624e-17 0.000431941 0.000649899 0 0 0 0 0 0 0 0 0 0
2.48097 8.20364e-14 8.2005e-14 3.14266e-17 0.000383081 0.000593827 0 0 0 0 0 0 0 0 0 0
2.60832 7.59389e-14 7.59131e-14 2.58342e-17 0.000340197 0.000542065 0 0 0 0 0 0 0 0 0 0
2.74221 7.02095e-14 7.01883e-14 2.123e-17 0.000302381 0.000494946 0 0 0 0 0 0 0 0 0 0
2.88297 6.49177e-14 6.49002e-14 1.74331e-17 0.000268542 0.000452307 0 0 0 0 0 0 0 0 0 0
3.03095 5.99706e-14 5.99563e-14 1.43179e-17 0.000238749 0.000413579 0 0 0 0 0 0 0 0 0 0
3.18653 5.54188e-14 5.54071e-14 1.17615e-17 0.000212229 0.000377636 0 0 0 0 0 0 0 0 0 0
3.35009 5.12101e-14 5.12004e-14 9.65842e-18 0.000188604 0.00034458 0 0 0 0 0 0 0 0 0 0
3.52205 4.73051e-14 4.72972e-14 7.92765e-18 0.000167586 0.0003145 0 0 0 0 0 0 0 0 0 0
3.70284 4.37003e-14 4.36938e-14 6.50994e-18 0.000148968 0.000286993 0 0 0 0 0 0 0 0 0 0
3.89291 4.03959e-14 4.03906e-14 5.34383e-18 0.000132286 0.000261599 0 0 0 0 0 0 0 0 0 0
4.09273 3.73494e-14 3.7345e-14 4.38603e-18 0.000117432 0.000237624 0 0 0 0 0 0 0 0 0 0
4.30281 3.45026e-14 3.4499e-14 3.59918e-18 0.000104316 0.000215943 0 0 0 0 0 0 0 2.8026e-44 0 0
4.52368 3.18635e-14 3.18606e-14 2.95441e-18 9.27208e-05 0.000196213 0 0 0 0 0 1.4013e-45 0 1.32423e-42 2.8026e-45 0
4.75588 2.94235e-14 2.94211e-14 2.42421e-18 8.23903e-05 0.000178122 0 0 0 0 0 6.86636e-44 0 5.16028e-41 2.41023e-43 0
5 2.72083e-14 2.72063e-14 1.98859e-18 7.30877e-05 0.000160812 0 0 0 3.08286e-44 0 2.71151e-42 1.4013e-45 1.7103e-39 1.69725e-41 0
5.25665 2.50938e-14 2.50922e-14 1.63163e-18 6.50213e-05 0.000145287 0 2.10195e-44 0 1.15747e-42 0 9.10578e-41 7.84727e-44 4.83168e-38 9.54167e-40 0
5.52648 2.31168e-14 2.31155e-14 1.33867e-18 5.79089e-05 0.000131398 0 7.38484e-43 0 3.71975e-41 0 2.61592e-39 5.58978e-42 1.17228e-36 4.33026e-38 0
5.81015 2.13041e-14 2.1303e-14 1.09761e-18 5.15209e-05 0.000118719 0 2.2488e-41 0 1.02722e-39 1.4013e-45 6.47835e-38 3.20911e-40 2.46124e-35 1.60565e-36 0
6.10839 1.96521e-14 1.96512e-14 8.99716e-19 4.57822e-05 0.000106831 0 5.91103e-40 0 2.45428e-38 6.5861e-44 1.39177e-36 1.48895e-38 4.49925e-34 4.91511e-35 0
6.42193 1.80818e-14 1.8081e-14 7.37505e-19 4.07872e-05 9.71024e-05 0 1.34403e-38 0 5.08479e-37 4.57524e-42 2.59934e-35 5.62207e-37 7.17578e-33 1.24955e-33 0
6.75157 1.66979e-14 1.66973e-14 6.04623e-19 3.62096e-05 8.66971e-05 0 2.67459e-37 1.54143e-44 9.24155e-36 2.5318e-40 4.26923e-34 1.75554e-35 1.00994e-31 2.67831e-32 0
7.09813 1.54039e-14 1.54034e-14 4.95406e-19 3.2161e-05 7.76259e-05 0 4.66137e-36 1.08461e-42 1.4744e-34 1.13216e-38 6.16973e-33 4.55544e-34 1.2549e-30 4.85906e-31 0
7.46248 1.42248e-14 1.42244e-14 4.05795e-19 2.85273e-05 6.92727e-05 2.8026e-45 7.16573e-35 6.23354e-41 2.07937e-33 4.14201e-37 7.90007e-32 9.9316e-33 1.38608e-29 7.53705e-30 0
7.84553 1.31615e-14 1.31612e-14 3.32517e-19 2.52644e-05 6.12296e-05 2.20004e-43 9.77368e-34 2.8987e-39 2.60751e-32 1.2533e-35 9.01449e-31 1.83662e-31 1.36863e-28 1.00828e-28 0
8.24824 1.21627e-14 1.21624e-14 2.72381e-19 2.23948e-05 5.37336e-05 1.32843e-41 1.18455e-32 1.09838e-37 2.91151e-31 3.15565e-34 9.17882e-30 2.89506e-30 1.20964e-27 1.16805e-27 0
8.67162 1.12377e-14 1.12375e-14 2.22972e-19 1.98415e-05 4.72389e-05 6.44201e-40 1.28291e-31 3.42919e-36 2.91094e-30 6.67845e-33 8.38613e-29 3.92442e-29 9.62165e-27 1.18128e-26 0
9.11674 1.04033e-14 1.04031e-14 1.82526e-19 1.7545e-05 4.14388e-05 2.5484e-38 1.24966e-30 8.92304e-35 2.62268e-29 1.20058e-31 6.9185e-28 4.61816e-28 6.93079e-26 1.05204e-25 0
9.5847 9.66182e-15 9.66167e-15 1.49355e-19 1.54583e-05 3.62144e-05 8.31769e-37 1.10087e-29 1.95525e-33 2.14103e-28 1.85061e-30 5.18178e-27 4.75723e-27 4.54527e-25 8.31403e-25 0
10.0767 9.00814e-15 9.00802e-15 1.22159e-19 1.3561e-05 3.13341e-05 2.26268e-35 8.81155e-29 3.64106e-32 1.59097e-27 2.46625e-29 3.53941e-26 4.32101e-26 2.72597e-24 5.86891e-24 0
10.5939 8.43162e-15 8.43152e-15 9.98409e-20 1.18412e-05 2.66572e-05 5.17756e-34 6.43379e-28 5.80992e-31 1.08034e-26 2.86264e-28 2.2133e-25 3.48297e-25 1.50074e-23 3.72205e-23 0
11.1377 7.95028e-15 7.9502e-15 8.15378e-20 1.0256e-05 2.23221e-05 1.00863e-32 4.31605e-27 8.03271e-30 6.75149e-26 2.92412e-27 1.27604e-24 2.51505e-24 7.63737e-23 2.13955e-22 0
11.7094 7.44243e-15 7.44236e-15 6.72111e-20 9.0308e-06 1.84819e-05 1.66217e-31 2.63108e-26 9.55342e-29 3.84038e-25 2.60764e-26 6.70767e-24 1.61259e-23 3.55289e-22 1.10428e-21 0
12.3105 7.09599e-15 7.09594e-15 5.46491e-20 7.70141e-06 1.44457e-05 2.39592e-30 1.50048e-25 1.00978e-27 2.04682e-24 2.09592e-25 3.30932e-23 9.4704e-23 1.55513e-21 5.276e-21 0
12.9424 6.7821e-15 6.78205e-15 4.46235e-20 6.5796e-06 1.05158e-05 2.99513e-29 7.90469e-25 9.39765e-27 1.00927e-23 1.50326e-24 1.51299e-22 5.03967e-22 6.32339e-21 2.30726e-20 0
13.6067 6.53101e-15 6.53098e-15 3.64381e-20 5.57924e-06 7.23624e-06 3.28708e-28 3.87892e-24 7.78968e-26 4.64247e-23 9.72581e-24 6.46295e-22 2.45467e-21 2.40811e-20 9.32406e-20 0
14.3051 6.3604e-15 6.36037e-15 2.97305e-20 4.67431e-06 4.3935e-06 3.20021e-27 1.78502e-23 5.80692e-25 2.0055e-22 5.72793e-23 2.59672e-21 1.10354e-20 8.64628e-20 3.50975e-19 0
15.0394 6.27266e-15 6.27264e-15 2.42433e-20 3.86491e-06 1.83616e-06 2.78545e-26 7.7366e-23 3.92085e-24 8.17106e-22 3.09083e-22 9.85487e-21 4.60587e-20 2.93914e-19 1.23721e-18 0
15.8114 6.28569e-15 6.28567e-15 1.97683e-20 3.14498e-06 -5.62155e-07 2.18805e-25 3.17772e-22 2.41905e-23 3.15929e-21 1.54076e-21 3.55435e-20 1.79831e-19 9.51676e-19 4.11359e-18 0
16.623 6.39747e-15 6.39745e-15 1.61165e-20 2.51919e-06 -2.97702e-06 1.55959e-24 1.23979e-21 1.37032e-22 1.16185e-20 7.12572e-21 1.22105e-19 6.59225e-19 2.94169e-18 1.29425e-17 0
17.4762 6.62123e-15 6.62122e-15 1.31324e-20 1.98337e-06 -5.29833e-06 1.01544e-23 4.61209e-21 7.1707e-22 4.07942e-20 3.07459e-20 4.01036e-19 2.28031e-18 8.71262e-18 3.87125e-17 0
18.3733 6.9887e-15 6.98869e-15 1.0695e-20 1.53033e-06 -7.49657e-06 6.08879e-23 1.64481e-20 3.49274e-21 1.3749e-19 1.24652e-19 1.266e-18 7.49195e-18 2.48573e-17 1.10766e-16 0
19.3164 7.50979e-15 7.50978e-15 8.72123e-21 1.16131e-06 -9.73936e-06 3.37312e-22 5.62721e-20 1.58783e-20 4.45085e-19 4.75923e-19 3.84362e-18 2.34196e-17 6.83533e-17 3.03582e-16 0
20.3079 8.20882e-15 8.20881e-15 7.11627e-21 8.66906e-07 -1.22831e-05 1.73332e-21 1.8497e-19 6.76049e-20 1.38602e-18 1.71637e-18 1.12394e-17 6.98299e-17 1.81424e-16 7.98749e-16 0
21.3503 9.14314e-15 9.14314e-15 5.81287e-21 6.35763e-07 -1.41442e-05 8.31296e-21 5.86472e-19 2.71126e-19 4.16811e-18 5.87793e-18 3.1777e-17 1.99561e-16 4.66585e-16 2.02662e-15 0
22.4463 1.03692e-14 1.03692e-14 4.76355e-21 4.59395e-07 -1.56278e-05 3.73429e-20 1.7962e-18 1.02738e-18 1.21215e-17 1.9167e-17 8.69841e-17 5.47852e-16 1.16425e-15 4.9683e-15 0
23.5984 1.19319e-14 1.19319e-14 3.92699e-21 3.29117e-07 -1.69844e-05 1.57208e-19 5.30642e-18 3.67888e-18 3.4039e-17 5.94964e-17 2.30178e-16 1.4438e-15 2.81436e-15 1.17571e-14 0
24.8097 1.38452e-14 1.38452e-14 3.26531e-21 2.35844e-07 -1.88449e-05 6.18819e-19 1.50585e-17 1.24152e-17 9.19117e-17 1.75271e-16 5.86334e-16 3.64003e-15 6.56276e-15 2.67565e-14 0
26.0832 1.60903e-14 1.60903e-14 2.75027e-21 1.70927e-07 -2.00781e-05 2.27046e-18 4.08482e-17 3.93474e-17 2.37462e-16 4.88133e-16 1.43063e-15 8.74203e-15 1.46896e-14 5.82961e-14 0
27.4221 1.8505e-14 1.8505e-14 2.34848e-21 1.26911e-07 -2.10574e-05 7.6992e-18 1.04852e-16 1.16082e-16 5.81066e-16 1.27347e-15 3.30964e-15 1.981e-14 3.12404e-14 1.20415e-13 0
28.8297 2.07267e-14 2.07267e-14 2.03919e-21 9.83845e-08 -2.1441e-05 2.38261e-17 2.5108e-16 3.1466e-16 1.32759e-15 3.071e-15 7.15642e-15 4.17812e-14 6.22301e-14 2.32546e-13 0
30.3095 2.25e-14 2.25e-14 1.79247e-21 7.96655e-08 -2.16093e-05 6.71768e-17 5.5915e-16 7.82144e-16 2.82316e-15 6.82993e-15 1.44176e-14 8.18022e-14 1.15738e-13 4.1869e-13 0
31.8653 2.3017e-14 2.3017e-14 1.5749e-21 6.84231e-08 -2.12534e-05 1.68289e-16 1.12781e-15 1.73809e-15 5.44167e-15 1.36538e-14 2.63551e-14 1.44861e-13 1.95719e-13 6.84632e-13 0
33.5009 2.25636e-14 2.25636e-14 1.38136e-21 6.12206e-08 -2.08648e-05 3.82017e-16 2.09844e-15 3.5204e-15 9.6827e-15 2.50072e-14 4.45193e-14 2.36421e-13 3.06486e-13 1.03576e-12 0
35.2206 2.07069e-14 2.07069e-14 1.18298e-21 5.71299e-08 -1.9682e-05 7.69748e-16 3.52386e-15 6.36453e-15 1.55606e-14 4.10835e-14 6.79896e-14 3.4806e-13 4.34815e-13 1.41874e-12 0
37.0284 1.83273e-14 1.83273e-14 1.00064e-21 5.45986e-08 -1.85062e-05 1.42202e-15 5.51006e-15 1.06055e-14 2.33004e-14 6.25014e-14 9.68477e-14 4.77056e-13 5.7657e-13 1.81562e-12 0
38.9291 1.57157e-14 1.57157e-14 8.31266e-22 5.28941e-08 -1.69096e-05 2.42553e-15 8.07026e-15 1.63994e-14 3.27022e-14 8.86285e-14 1.29437e-13 6.12572e-13 7.18819e-13 2.18411e-12 0
40.9273 1.32388e-14 1.32388e-14 6.83898e-22 5.16584e-08 -1.52037e-05 3.88238e-15 1.12412e-14 2.39108e-14 4.36776e-14 1.19005e-13 1.64797e-13 7.48442e-13 8.55465e-13 2.50796e-12 0
43.0282 1.10761e-14 1.10761e-14 5.57934e-22 5.03727e-08 -1.29364e-05 5.90874e-15 1.50739e-14 3.33e-14 5.61954e-14 1.53245e-13 2.02328e-13 8.8103e-13 9.8375e-13 2.78302e-12 0
45.2368 9.23262e-15 9.23261e-15 4.53643e-22 4.91348e-08 -1.04847e-05 8.59596e-15 1.95446e-14 4.45225e-14 6.99523e-14 1.90176e-13 2.4059e-13 1.00386e-12 1.09791e-12 2.99791e-12 0
47.5588 7.74458e-15 7.74458e-15 3.67928e-22 4.75078e-08 -6.28622e-06 1.20981e-14 2.47776e-14 5.78266e-14 8.5194e-14 2.301e-13 2.802e-13 1.11986e-12 1.2025e-12 3.17044e-12 0
50 6.49621e-15 6.49621e-15 2.9846e-22 4.59437e-08 -2.26808e-06 1.64001e-14 3.05534e-14 7.26249e-14 1.00985e-13 2.70142e-13 3.17957e-13 1.21701e-12 1.28582e-12 3.27488e-12 0
52.5665 5.49104e-15 5.49104e-15 2.41963e-22 4.40651e-08 2.16476e-06 2.16184e-14 3.69691e-14 8.90252e-14 1.17535e-13 3.10576e-13 3.54649e-13 1.30006e-12 1.35411e-12 3.33346e-12 0
55.2648 4.66791e-15 4.66791e-15 1.962e-22 4.20316e-08 6.16768e-06 2.77042e-14 4.38512e-14 1.06469e-13 1.34192e-13 3.49453e-13 3.88465e-13 1.36408e-12 1.40313e-12 3.34069e-12 0
58.1015 3.9925e-15 3.9925e-15 1.59311e-22 3.99026e-08 9.65991e-06 3.4587e-14 5.10621e-14 1.24465e-13 1.50507e-13 3.85494e-13 4.18458e-13 1.40804e-12 1.43258e-12 3.30109e-12 0
61.0839 3.4327e-15 3.4327e-15 1.2941e-22 3.7699e-08 1.24862e-05 4.20943e-14 5.83737e-14 1.42301e-13 1.65839e-13 4.17078e-13 4.43337e-13 1.43014e-12 1.44125e-12 3.21667e-12 0
64.2193 2.96494e-15 2.96494e-15 1.05164e-22 3.54692e-08 1.46895e-05 4.9986e-14 6.55325e-14 1.59226e-13 1.79576e-13 4.42828e-13 4.62092e-13 1.42993e-12 1.42917e-12 3.09188e-12 0
67.5157 2.57414e-15 2.57414e-15 8.55272e-23 3.32256e-08 1.61575e-05 5.80303e-14 7.23513e-14 1.74688e-13 1.91373e-13 4.62185e-13 4.74542e-13 1.40962e-12 1.39885e-12 2.93596e-12 0
70.9813 2.24458e-15 2.24458e-15 6.96257e-23 3.10194e-08 1.70311e-05 6.58998e-14 7.85614e-14 1.87991e-13 2.00731e-13 4.74341e-13 4.80181e-13 1.3703e-12 1.35153e-12 2.75436e-12 0
74.6248 1.96469e-15 1.96469e-15 5.66962e-23 2.88576e-08 1.7368e-05 7.32596e-14 8.39207e-14 1.98569e-13 2.07291e-13 4.78938e-13 4.78907e-13 1.31407e-12 1.28933e-12 2.55369e-12 0
78.4553 1.72563e-15 1.72563e-15 4.61778e-23 2.676e-08 1.72375e-05 7.97943e-14 8.82294e-14 2.06017e-13 2.1085e-13 4.76055e-13 4.70987e-13 1.24376e-12 1.21498e-12 2.34088e-12 0
82.4824 1.521e-15 1.521e-15 3.76448e-23 2.47501e-08 1.66247e-05 8.526e-14 9.13703e-14 2.10186e-13 2.11431e-13 4.66306e-13 4.57139e-13 1.16296e-12 1.13187e-12 2.12335e-12 0
86.7162 1.34566e-15 1.34566e-15 3.07006e-23 2.28146e-08 1.54402e-05 8.94893e-14 9.32974e-14 2.1113e-13 2.09215e-13 4.50626e-13 4.38327e-13 1.07536e-12 1.04343e-12 1.90771e-12 0
91.1674 1.19414e-15 1.19414e-15 2.50398e-23 2.09688e-08 1.39566e-05 9.23002e-14 9.39313e-14 2.08858e-13 2.04297e-13 4.29698e-13 4.15211e-13 9.83404e-13 9.51837e-13 1.69767e-12 0
95.847 1.06266e-15 1.06266e-15 2.04249e-23 1.92205e-08 1.24242e-05 9.36225e-14 9.32888e-14 2.03613e-13 1.96962e-13 4.04551e-13 3.88746e-13 8.89854e-13 8.59583e-13 1.49705e-12 0
100.767 9.48732e-16 9.48732e-16 1.66758e-23 1.75769e-08 1.08822e-05 9.35236e-14 9.14993e-14 1.9588e-13 1.87693e-13 3.76522e-13 3.60148e-13 7.97659e-13 7.69334e-13 1.3096e-12 0
105.939 8.52139e-16 8.52139e-16 1.36134e-23 1.59756e-08 9.04209e-06 9.23502e-14 8.89343e-14 1.86629e-13 1.77402e-13 3.47661e-13 3.3129e-13 7.10776e-13 6.84739e-13 1.14035e-12 0
111.377 7.689e-16 7.689e-16 1.11121e-23 1.44519e-08 7.2432e-06 9.00926e-14 8.55926e-14 1.75994e-13 1.66177e-13 3.18246e-13 3.02343e-13 6.29103e-13 6.05554e-13 9.87574e-13 0
117.094 7.00318e-16 7.00318e-16 9.07417e-24 1.29572e-08 5.48076e-06 8.73208e-14 8.2009e-14 1.65179e-13 1.55107e-13 2.90396e-13 2.75231e-13 5.5607e-13 5.34964e-13 8.55167e-13 0
123.105 6.45946e-16 6.45946e-16 7.41605e-24 1.14809e-08 3.84142e-06 8.44282e-14 7.85267e-14 1.54911e-13 1.44815e-13 2.65182e-13 2.50881e-13 4.92749e-13 4.73906e-13 7.43239e-13 0
129.424 6.02009e-16 6.02009e-16 6.06624e-24 1.00767e-08 2.3679e-06 8.13143e-14 7.50219e-14 1.4495e-13 1.35021e-13 2.41955e-13 2.28608e-13 4.37007e-13 4.20259e-13 6.47229e-13 0
