# 1.00606e-05 0 54 : grain size, compostion index, size index
# Heating and cooling timescale: 0.038502 62468.7
# Ratio of heating to cooling to determine stochastic cutoff: 100
# Equilibrium emission is recorded even for those grains in the stochastic regime.
# Emission spectrum was computed for: 
# Type: ISRF
# Scales: 0.25 0.5 1 1.5 2 2.5 3 3.5 4 4.5 5 5.5 6 6.5 7 7.5 8 8.5 9 9.5 10
# StochasticallyHeated: 0 0 0 0 0 0 0 0 0 0 0 0 0 0 0 0 0 0 0 0 0
# Temperature: -1
# Wavelength  CExt  CAbs  CSca  Albedo G EqEm1 StEm1 EqEm2 StEm2 EqEm3 StEm3 EqEm4 StEm4 EqEm5 StEm5 EqEm6 StEm6 EqEm7 StEm7 EqEm8 StEm8 EqEm9 StEm9 EqEm10 StEm10 EqEm11 StEm11 EqEm12 StEm12 EqEm13 StEm13 EqEm14 StEm14 EqEm15 StEm15 EqEm16 StEm16 EqEm17 StEm17 EqEm18 StEm18 EqEm19 StEm19 EqEm20 StEm20 EqEm21 StEm21
0.05 4.81358e-10 2.68612e-10 2.12746e-10 0.44197 0.973872 0 0 0 0 0 0 0 0 0 0 0 0 0 0 0 0 0 0 0 0 0 0 0 0 0 0 0 0 0 0 0 0 0 0 0 0 0 0 0 0 0 0
0.0525665 5.40019e-10 2.81874e-10 2.58145e-10 0.478029 0.966392 0 0 0 0 0 0 0 0 0 0 0 0 0 0 0 0 0 0 0 0 0 0 0 0 0 0 0 0 0 0 0 0 0 0 0 0 0 0 0 0 0 0
0.0552647 5.5956e-10 2.92395e-10 2.67165e-10 0.477455 0.960938 0 0 0 0 0 0 0 0 0 0 0 0 0 0 0 0 0 0 0 0 0 0 0 0 0 0 0 0 0 0 0 0 0 0 0 0 0 0 0 0 0 0
0.0581015 5.70225e-10 3.00579e-10 2.69646e-10 0.472876 0.95648 0 0 0 0 0 0 0 0 0 0 0 0 0 0 0 0 0 0 0 0 0 0 0 0 0 0 0 0 0 0 0 0 0 0 0 0 0 0 0 0 0 0
0.0610839 5.77059e-10 3.07125e-10 2.69934e-10 0.467776 0.952663 0 0 0 0 0 0 0 0 0 0 0 0 0 0 0 0 0 0 0 0 0 0 0 0 0 0 0 0 0 0 0 0 0 0 0 0 0 0 0 0 0 0
0.0642193 5.82115e-10 3.12391e-10 2.69724e-10 0.463352 0.94907 0 0 0 0 0 0 0 0 0 0 0 0 0 0 0 0 0 0 0 0 0 0 0 0 0 0 0 0 0 0 0 0 0 0 0 0 0 0 0 0 0 0
0.0675157 5.86572e-10 3.16711e-10 2.69861e-10 0.460065 0.945345 0 0 0 0 0 0 0 0 0 0 0 0 0 0 0 0 0 0 0 0 0 0 0 0 0 0 0 0 0 0 0 0 0 0 0 0 0 0 0 0 0 0
0.0709813 5.91373e-10 3.20678e-10 2.70696e-10 0.457741 0.941281 0 0 0 0 0 0 0 0 0 0 0 0 0 0 0 0 0 0 0 0 0 0 0 0 0 0 0 0 0 0 0 0 0 0 0 0 0 0 0 0 0 0
0.0746248 5.96927e-10 3.24762e-10 2.72165e-10 0.455943 0.93685 0 0 0 0 0 0 0 0 0 0 0 0 0 0 0 0 0 0 0 0 0 0 0 0 0 0 0 0 0 0 0 0 0 0 0 0 0 0 0 0 0 0
0.0784553 6.02833e-10 3.29071e-10 2.73763e-10 0.454127 0.932195 0 0 0 0 0 0 0 0 0 0 0 0 0 0 0 0 0 0 0 0 0 0 0 0 0 0 0 0 0 0 0 0 0 0 0 0 0 0 0 0 0 0
0.0824824 6.0892e-10 3.33579e-10 2.75341e-10 0.452179 0.927365 0 0 0 0 0 0 0 0 0 0 0 0 0 0 0 0 0 0 0 0 0 0 0 0 0 0 0 0 0 0 0 0 0 0 0 0 0 0 0 0 0 0
0.0867162 6.15178e-10 3.38247e-10 2.76931e-10 0.450164 0.922341 0 0 0 0 0 0 0 0 0 0 0 0 0 0 0 0 0 0 0 0 0 0 0 0 0 0 0 0 0 0 0 0 0 0 0 0 0 0 0 0 0 0
0.0911674 6.21733e-10 3.43131e-10 2.78602e-10 0.448106 0.917104 0 0 0 0 0 0 0 0 0 0 0 0 0 0 0 0 0 0 0 0 0 0 0 0 0 0 0 0 0 0 0 0 0 0 0 0 0 0 0 0 0 0
0.095847 6.28691e-10 3.48302e-10 2.80389e-10 0.445989 0.911658 0 0 0 0 0 0 0 0 0 0 0 0 0 0 0 0 0 0 0 0 0 0 0 0 0 0 0 0 0 0 0 0 0 0 0 0 0 0 0 0 0 0
0.100767 6.36092e-10 3.53835e-10 2.82257e-10 0.443736 0.90605 0 0 0 0 0 0 0 0 0 0 0 0 0 0 0 0 0 0 0 0 0 0 0 0 0 0 0 0 0 0 0 0 0 0 0 0 0 0 0 0 0 0
0.105939 6.44125e-10 3.60033e-10 2.84093e-10 0.441052 0.900484 0 0 0 0 0 0 0 0 0 0 0 0 0 0 0 0 0 0 0 0 0 0 0 0 0 0 0 0 0 0 0 0 0 0 0 0 0 0 0 0 0 0
0.111377 6.51263e-10 3.66311e-10 2.84952e-10 0.437538 0.895245 0 0 0 0 0 0 0 0 0 0 0 0 0 0 0 0 0 0 0 0 0 0 0 0 0 0 0 0 0 0 0 0 0 0 0 0 0 0 0 0 0 0
0.117094 6.56443e-10 3.71994e-10 2.84449e-10 0.433319 0.890209 0 0 0 0 0 0 0 0 0 0 0 0 0 0 0 0 0 0 0 0 0 0 0 0 0 0 0 0 0 0 0 0 0 0 0 0 0 0 0 0 0 0
0.123105 6.61676e-10 3.77478e-10 2.84197e-10 0.429511 0.884689 0 0 0 0 0 0 0 0 0 0 0 0 0 0 0 0 0 0 0 0 0 0 0 0 0 0 0 0 0 0 0 0 0 0 0 0 0 0 0 0 0 0
0.129424 6.67483e-10 3.83455e-10 2.84028e-10 0.425521 0.879182 0 0 0 0 0 0 0 0 0 0 0 0 0 0 0 0 0 0 0 0 0 0 0 0 0 0 0 0 0 0 0 0 0 0 0 0 0 0 0 0 0 0
0.136067 6.69741e-10 3.88504e-10 2.81237e-10 0.419919 0.87427 0 0 0 0 0 0 0 0 0 0 0 0 0 0 0 0 0 0 0 0 0 0 0 0 0 0 0 0 0 0 0 0 0 0 0 0 0 0 0 0 0 0
0.143051 6.70679e-10 3.9261e-10 2.78068e-10 0.414607 0.868462 0 0 0 0 0 0 0 0 0 0 0 0 0 0 0 0 0 0 0 0 0 0 0 0 0 0 0 0 0 0 0 0 0 0 0 0 0 0 0 0 0 0
0.150394 6.72587e-10 3.9754e-10 2.75047e-10 0.408939 0.86327 0 0 0 0 0 0 0 0 0 0 0 0 0 0 0 0 0 0 0 0 0 0 0 0 0 0 0 0 0 0 0 0 0 0 0 0 0 0 0 0 0 0
0.158114 6.54932e-10 3.95956e-10 2.58975e-10 0.395423 0.860047 0 0 0 0 0 0 0 0 0 0 0 0 0 0 0 0 0 0 0 0 0 0 0 0 0 0 0 0 0 0 0 0 0 0 0 0 0 0 0 0 0 0
0.16623 6.27975e-10 3.89187e-10 2.38788e-10 0.380251 0.85221 0 0 0 0 0 0 0 0 0 0 0 0 0 0 0 0 0 0 0 0 0 0 0 0 0 0 0 0 0 0 0 0 0 0 0 0 0 0 0 0 0 0
0.174762 6.16971e-10 3.86327e-10 2.30644e-10 0.373833 0.839812 0 0 0 0 0 0 0 0 0 0 0 0 0 0 0 0 0 0 0 0 0 0 0 0 0 0 0 0 0 0 0 0 0 0 0 0 0 0 0 0 0 0
0.183733 6.17273e-10 3.86632e-10 2.30641e-10 0.373645 0.824969 0 0 0 0 0 0 0 0 0 0 0 0 0 0 0 0 0 0 0 0 0 0 0 0 0 0 0 0 0 0 0 0 0 0 0 0 0 0 0 0 0 0
0.193164 6.28872e-10 3.90085e-10 2.38786e-10 0.379706 0.80726 0 0 0 0 0 0 0 0 0 0 0 0 0 0 0 0 0 0 0 0 0 0 0 0 0 0 0 0 0 0 0 0 0 0 0 0 0 0 0 0 0 0
0.203079 6.52889e-10 3.9938e-10 2.53509e-10 0.388289 0.788817 0 0 0 0 0 0 0 0 0 0 0 0 0 0 0 0 0 0 0 0 0 0 0 0 0 0 0 0 0 0 0 0 0 0 0 0 0 0 0 0 0 0
0.213503 6.74559e-10 4.09455e-10 2.65104e-10 0.393004 0.77161 0 0 0 0 0 0 0 0 0 0 0 0 0 0 0 0 0 0 0 0 0 0 0 0 0 0 0 0 0 0 0 0 0 0 0 0 0 0 0 0 0 0
0.224463 6.94562e-10 4.19698e-10 2.74864e-10 0.395738 0.754551 0 0 0 0 0 0 0 0 0 0 0 0 0 0 0 0 0 0 0 0 0 0 0 0 0 0 0 0 0 0 0 0 0 0 0 0 0 0 0 0 0 0
0.235984 7.13617e-10 4.29618e-10 2.83999e-10 0.397972 0.736594 0 0 0 0 0 0 0 0 0 0 0 0 0 0 0 0 0 0 0 0 0 0 0 0 0 0 0 0 0 0 0 0 0 0 0 0 0 0 0 0 0 0
0.248097 7.37457e-10 4.41081e-10 2.96376e-10 0.401889 0.717043 0 0 0 0 0 0 0 0 0 0 0 0 0 0 0 0 0 0 0 0 0 0 0 0 0 0 0 0 0 0 0 0 0 0 0 0 0 0 0 0 0 0
0.260832 7.61539e-10 4.53539e-10 3.08e-10 0.404444 0.698117 0 0 0 0 0 0 0 0 0 0 0 0 0 0 0 0 0 0 0 0 0 0 0 0 0 0 0 0 0 0 0 0 0 0 0 0 0 0 0 0 0 0
0.274221 7.83731e-10 4.65563e-10 3.18167e-10 0.405965 0.679492 0 0 0 0 0 0 0 0 0 0 0 0 0 0 0 0 0 0 0 0 0 0 0 0 0 0 0 0 0 0 0 0 0 0 0 0 0 0 0 0 0 0
0.288297 8.02654e-10 4.76515e-10 3.26139e-10 0.406326 0.661137 0 0 0 0 0 0 0 0 0 0 0 0 0 0 0 0 0 0 0 0 0 0 0 0 0 0 0 0 0 0 0 0 0 0 0 0 0 0 0 0 0 0
0.303095 8.20688e-10 4.87311e-10 3.33376e-10 0.406216 0.642943 0 0 0 0 0 0 0 0 0 0 0 0 0 0 0 0 0 0 0 0 0 0 0 0 0 0 0 0 0 0 0 0 0 0 0 0 0 0 0 0 0 0
0.318653 8.3648e-10 4.97617e-10 3.38864e-10 0.405107 0.624419 0 0 0 0 0 0 0 0 0 0 0 0 0 0 0 0 0 0 0 0 0 0 0 0 0 0 0 0 0 0 0 0 0 0 0 0 0 0 0 0 0 0
0.335009 8.50439e-10 5.07354e-10 3.43084e-10 0.40342 0.604374 0 0 0 0 0 0 0 0 0 0 0 0 0 0 0 0 0 0 0 0 0 0 0 0 0 0 0 0 0 0 0 0 0 0 0 0 0 0 0 0 0 0
0.352205 8.61895e-10 5.15832e-10 3.46063e-10 0.401514 0.581303 0 0 0 0 0 0 0 0 0 0 0 0 0 0 0 0 0 0 0 0 0 0 0 0 0 0 0 0 0 0 0 0 0 0 0 0 0 0 0 0 0 0
0.370284 8.70671e-10 5.22329e-10 3.48342e-10 0.400084 0.553632 0 0 0 0 0 0 0 0 0 0 0 0 0 0 0 0 0 0 0 0 0 0 0 0 0 0 0 0 0 0 0 0 0 0 0 0 0 0 0 0 0 0
0.389291 8.76759e-10 5.26473e-10 3.50286e-10 0.399524 0.520716 0 0 0 0 0 0 0 0 0 0 0 0 0 0 0 0 0 0 0 0 0 0 0 0 0 0 0 0 0 0 0 0 0 0 0 0 0 0 0 0 0 0
0.409273 8.81281e-10 5.28648e-10 3.52634e-10 0.400137 0.482887 0 0 0 0 0 0 0 0 0 0 0 0 0 0 0 0 0 0 0 0 0 0 0 0 0 0 0 0 0 0 0 0 0 0 0 0 0 0 0 0 0 0
0.430281 8.85599e-10 5.29773e-10 3.55826e-10 0.401791 0.441686 0 0 0 0 0 0 0 0 0 0 0 0 0 0 0 0 0 0 0 0 0 0 0 0 0 0 0 0 0 0 0 0 0 0 0 0 0 0 0 0 0 0
0.452368 8.90786e-10 5.31007e-10 3.59779e-10 0.40389 0.399363 0 0 0 0 0 0 0 0 0 0 0 0 0 0 0 0 0 0 0 0 0 0 0 0 0 0 0 0 0 0 0 0 0 0 0 0 0 0 0 0 0 0
0.475588 8.97698e-10 5.33495e-10 3.64203e-10 0.405708 0.358052 0 0 0 0 0 0 0 0 0 0 0 0 0 0 0 0 0 0 0 0 0 0 0 0 0 0 0 0 0 0 0 0 0 0 0 0 0 0 0 0 0 0
0.5 9.05665e-10 5.37749e-10 3.67916e-10 0.406238 0.319711 0 0 0 0 0 0 0 0 0 0 0 0 0 0 0 0 0 0 0 0 0 0 0 0 0 0 0 0 0 0 0 0 0 0 0 0 0 0 0 0 0 0
0.525665 9.13198e-10 5.43652e-10 3.69546e-10 0.404672 0.285342 0 0 0 0 0 0 0 0 0 0 0 0 0 0 0 0 0 0 0 0 0 0 0 0 0 0 0 0 0 0 0 0 0 0 0 0 0 0 0 0 0 0
0.552648 9.17893e-10 5.50212e-10 3.67681e-10 0.400571 0.255217 0 0 0 0 0 0 0 0 0 0 0 0 0 0 0 0 0 0 0 0 0 0 0 0 0 0 0 0 0 0 0 0 0 0 0 0 0 0 0 0 0 0
0.581015 9.17067e-10 5.55801e-10 3.61266e-10 0.393936 0.229073 0 0 0 0 0 0 0 0 0 0 0 0 0 0 0 0 0 0 0 0 0 0 0 0 0 0 0 0 0 0 0 0 0 0 0 0 0 0 0 0 0 0
0.610839 9.08276e-10 5.58532e-10 3.49743e-10 0.385063 0.206424 0 0 0 0 0 0 0 0 0 0 0 0 0 0 0 0 0 0 0 0 0 0 0 0 0 0 0 0 0 0 0 0 0 0 0 0 0 0 0 0 0 0
0.642193 8.89236e-10 5.56567e-10 3.32669e-10 0.374106 0.186867 0 0 0 0 0 0 0 0 0 0 0 0 0 0 0 0 0 0 0 0 0 0 0 0 0 0 0 0 0 0 0 0 0 0 0 0 0 0 0 0 0 0
0.675157 8.59052e-10 5.48571e-10 3.10481e-10 0.361423 0.169943 0 0 0 0 0 0 0 0 0 0 0 0 0 0 0 0 0 0 0 0 0 0 0 0 0 0 0 0 0 0 0 0 0 0 0 0 0 0 0 0 0 0
0.709813 8.18052e-10 5.33813e-10 2.8424e-10 0.347459 0.155384 0 0 0 0 0 0 0 0 0 0 0 0 0 0 0 0 0 0 0 0 0 0 0 0 0 0 0 0 0 0 0 0 0 0 0 0 0 0 0 0 0 0
0.746248 7.67401e-10 5.12288e-10 2.55113e-10 0.332438 0.142948 0 0 0 0 0 0 0 0 0 0 0 0 0 0 0 0 0 0 0 0 0 0 0 0 0 0 0 0 0 0 0 0 0 0 0 0 0 0 0 0 0 0
0.784553 7.09186e-10 4.84502e-10 2.24684e-10 0.31682 0.132519 0 0 0 0 0 0 0 0 0 0 0 0 0 0 0 0 0 0 0 0 0 0 0 0 0 0 0 0 0 0 0 0 0 0 0 0 0 0 0 0 0 0
0.824824 6.45292e-10 4.51379e-10 1.93913e-10 0.300504 0.123951 0 0 0 0 0 0 0 0 0 0 0 0 0 0 0 0 0 0 0 0 0 0 0 0 0 0 0 0 0 0 0 0 0 0 0 0 0 0 0 0 0 0
0.867162 5.79594e-10 4.15378e-10 1.64216e-10 0.28333 0.116435 0 0 0 0 0 0 0 0 0 0 0 0 0 0 0 0 0 0 0 0 0 0 0 0 0 0 0 0 0 0 0 0 0 0 0 0 0 0 0 0 0 0
0.911674 5.16444e-10 3.79171e-10 1.37273e-10 0.265805 0.109299 0 0 0 0 0 0 0 0 0 0 0 0 0 0 0 0 0 0 0 0 0 0 0 0 0 0 0 0 0 0 0 0 0 0 0 0 0 0 0 0 0 0
0.95847 4.5878e-10 3.44769e-10 1.1401e-10 0.248508 0.102239 0 0 0 0 0 0 0 0 0 0 0 0 0 0 0 0 0 0 0 0 0 0 0 0 0 0 0 0 0 0 0 0 0 0 0 0 0 0 0 0 0 0
1.00767 4.06132e-10 3.11916e-10 9.42167e-11 0.231985 0.095732 0 0 0 0 0 0 0 0 0 0 0 0 0 0 0 0 0 0 0 0 0 0 0 0 0 0 0 0 0 0 0 0 0 0 0 0 0 0 0 0 0 0
1.05939 3.58452e-10 2.81035e-10 7.74164e-11 0.215975 0.0896921 0 0 0 0 0 0 0 0 0 0 0 0 0 0 0 0 0 0 0 0 0 0 0 0 0 0 0 0 0 0 0 0 0 0 0 0 0 0 0 0 0 0
1.11377 3.15905e-10 2.52546e-10 6.33589e-11 0.200563 0.084017 0 0 0 0 0 0 0 0 0 0 0 0 0 0 0 0 0 0 0 0 0 0 0 0 0 0 0 0 0 0 0 0 0 0 0 0 0 0 0 0 0 0
1.17094 2.78445e-10 2.26689e-10 5.17564e-11 0.185876 0.0786368 0 0 0 0 0 0 0 0 0 0 0 0 0 0 0 0 0 0 0 0 0 0 0 0 0 0 0 0 0 0 0 0 0 0 0 0 0 0 0 0 0 0
1.23105 2.45576e-10 2.03366e-10 4.22107e-11 0.171884 0.0735372 0 0 0 0 0 0 0 0 0 0 0 0 0 0 0 0 0 0 0 0 0 0 0 0 0 0 0 0 0 0 0 0 0 0 0 0 0 0 0 0 0 0
1.29424 2.16596e-10 1.82228e-10 3.43683e-11 0.158675 0.0687661 0 0 0 0 0 0 0 0 0 0 0 0 0 0 0 0 0 0 0 0 0 0 0 0 0 0 0 0 0 0 0 0 0 0 0 0 0 0 0 0 0 0
1.36067 1.91086e-10 1.63179e-10 2.7907e-11 0.146044 0.0642263 0 0 0 0 0 0 0 0 0 0 0 0 0 0 0 0 0 0 0 0 0 0 0 0 0 0 0 0 0 0 0 0 0 0 0 0 0 0 0 0 0 0
1.43051 1.69638e-10 1.46973e-10 2.26642e-11 0.133604 0.0596178 0 0 0 0 0 0 0 0 0 0 0 0 0 0 0 0 0 0 0 0 0 0 0 0 0 0 0 0 0 0 0 0 0 0 0 0 0 0 0 0 0 0
1.50394 1.51294e-10 1.32835e-10 1.84593e-11 0.122009 0.0552495 0 0 0 0 0 0 0 0 0 0 0 0 0 0 0 0 0 0 0 0 0 0 0 0 0 0 0 0 0 0 0 0 0 0 0 0 0 0 0 0 0 0
1.58114 1.35119e-10 1.20073e-10 1.50458e-11 0.111352 0.0512309 0 0 0 0 0 0 0 0 0 0 0 0 0 0 0 0 0 0 0 0 0 0 0 0 0 0 0 0 0 0 0 0 0 0 0 0 0 0 0 0 0 0
1.6623 1.20764e-10 1.08504e-10 1.22596e-11 0.101517 0.0475172 0 0 0 0 0 0 0 0 0 0 0 0 0 0 0 0 0 0 0 0 0 0 0 0 0 0 0 0 0 0 0 0 0 0 0 0 0 0 0 0 0 0
1.74763 1.0818e-10 9.8195e-11 9.98475e-12 0.0922978 0.0440077 0 0 0 0 0 0 0 0 0 0 0 0 0 0 0 0 0 0 0 0 0 0 0 0 0 0 0 0 0 0 0 0 0 0 0 0 0 0 0 0 0 0
1.83733 9.75739e-11 8.94334e-11 8.14042e-12 0.0834283 0.0405806 0 0 0 0 0 0 0 0 0 0 0 0 0 0 0 0 0 0 0 0 0 0 0 0 0 0 0 0 0 0 0 0 0 0 0 0 0 0 0 0 0 0
1.93164 8.81368e-11 8.14841e-11 6.6527e-12 0.0754815 0.0374789 0 0 0 0 0 0 0 0 0 0 0 0 0 0 0 0 0 0 0 0 0 0 0 0 0 0 0 0 0 0 0 0 0 0 0 0 0 0 0 0 0 0
2.03079 7.95454e-11 7.41135e-11 5.43187e-12 0.0682865 0.0346442 0 0 0 0 0 0 0 0 0 0 0 0 0 0 0 0 0 0 0 0 0 0 0 0 0 0 0 0 0 0 0 0 0 0 0 0 0 0 0 0 0 0
2.13503 7.20959e-11 6.7661e-11 4.43484e-12 0.0615131 0.0319381 0 0 0 0 0 0 0 0 0 0 0 0 0 0 0 0 0 0 0 0 0 0 0 0 0 0 0 0 0 0 0 0 0 0 0 0 0 0 0 0 0 0
2.24463 6.55417e-11 6.19187e-11 3.62295e-12 0.055277 0.0294092 0 0 0 0 0 0 0 0 0 0 0 0 0 0 0 0 0 0 0 0 0 0 0 0 0 0 0 0 0 0 0 0 0 0 0 0 0 0 0 0 0 0
2.35984 5.98389e-11 5.68765e-11 2.96242e-12 0.0495066 0.0270326 0 0 0 0 0 0 0 0 0 0 0 0 0 0 0 0 0 0 0 0 0 0 0 0 0 0 0 0 0 0 0 0 0 0 0 0 0 0 0 0 0 0
2.48097 5.46575e-11 5.22322e-11 2.42523e-12 0.0443714 0.0248787 0 0 0 0 0 0 0 0 0 0 0 0 0 0 0 0 0 0 0 0 0 0 0 0 0 0 0 0 0 0 0 0 0 0 0 0 0 0 0 0 0 0
2.60832 5.00368e-11 4.80561e-11 1.98072e-12 0.0395853 0.0228296 0 0 0 0 0 0 0 0 0 0 0 0 0 0 0 0 0 0 0 0 0 0 0 0 0 0 0 0 0 0 0 0 0 0 0 0 0 0 0 0 0 0
2.74221 4.6366e-11 4.47416e-11 1.62438e-12 0.0350339 0.0208643 0 0 0 0 0 0 0 0 0 0 0 0 0 0 0 0 0 0 0 0 0 0 0 0 0 0 0 0 0 0 0 0 0 0 0 0 0 0 0 0 0 0
2.88297 4.26618e-11 4.1329e-11 1.33281e-12 0.0312413 0.0191758 0 0 0 0 0 0 0 0 0 0 0 0 0 0 0 0 0 0 0 0 0 0 0 0 0 0 0 0 0 0 0 0 0 0 0 0 0 0 0 0 0 0
3.03095 3.95018e-11 3.84095e-11 1.09232e-12 0.0276524 0.0175456 0 0 0 0 0 0 0 0 0 0 0 0 0 0 0 0 0 0 0 0 0 0 0 0 0 0 0 0 0 0 0 0 0 0 0 0 0 0 0 0 0 0
3.18653 3.67242e-11 3.58259e-11 8.98229e-13 0.0244588 0.0160664 0 0 0 0 0 0 0 0 0 0 0 0 0 0 0 0 0 0 0 0 0 0 0 0 0 0 0 0 0 0 0 0 0 0 0 0 0 0 0 0 0 0
3.35009 3.37121e-11 3.2974e-11 7.38126e-13 0.021895 0.0148273 0 0 0 0 0 0 0 0 0 0 0 0 0 0 0 0 0 0 0 0 0 0 0 0 0 0 0 0 0 0 0 0 0 0 0 0 0 0 0 0 0 0
3.52205 3.1421e-11 3.08156e-11 6.05414e-13 0.0192678 0.0135393 0 0 0 0 0 0 0 0 0 0 0 0 0 0 0 0 0 0 0 0 0 0 0 0 0 0 0 0 0 0 0 0 0 0 0 0 0 0 0 0 0 0
3.70284 2.92089e-11 2.87112e-11 4.9769e-13 0.017039 0.0124124 0 0 0 0 0 0 0 0 0 0 0 0 0 0 0 0 0 0 0 0 0 0 0 0 0 0 0 0 0 0 0 0 0 0 0 0 0 0 0 0 0 0
3.89291 2.70617e-11 2.66523e-11 4.09473e-13 0.0151311 0.0114151 0 0 0 0 0 0 0 0 0 0 0 0 0 0 0 0 0 0 0 0 0 0 0 0 0 0 0 0 0 0 0 0 0 0 0 0 0 0 0 0 0 0
4.09273 2.52003e-11 2.48636e-11 3.36698e-13 0.0133609 0.0104641 0 0 0 0 0 0 0 0 0 0 0 0 0 0 0 0 0 0 0 0 0 0 0 0 0 0 0 0 0 0 0 0 0 0 0 0 0 0 0 0 1.4013e-45 0
4.30281 2.3472e-11 2.31957e-11 2.76293e-13 0.0117712 0.00957634 0 0 0 0 0 0 0 0 0 0 0 0 0 0 0 0 0 0 0 0 0 0 0 0 0 0 0 0 0 0 1.4013e-45 0 2.8026e-45 0 1.12104e-44 0 3.22299e-44 0 8.68805e-44 0 2.2701e-43 0
4.52368 2.17827e-11 2.1556e-11 2.26781e-13 0.0104111 0.00878658 0 0 0 0 0 0 0 0 0 0 0 0 0 0 0 0 0 0 0 0 0 0 0 0 1.4013e-45 0 8.40779e-45 0 3.50325e-44 0 1.27518e-43 0 4.1058e-43 0 1.24155e-42 0 3.54248e-42 0 9.24156e-42 0 2.28888e-41 0
4.75588 2.02942e-11 2.01078e-11 1.86364e-13 0.00918311 0.00805405 0 0 0 0 0 0 0 0 0 0 0 0 0 0 0 0 0 0 1.4013e-45 0 8.40779e-45 0 4.76441e-44 0 2.41023e-43 0 1.00613e-42 0 3.89281e-42 0 1.30601e-41 0 3.97156e-41 0 1.1386e-40 0 3.08675e-40 0 7.68366e-40 0 1.82063e-39 0
5 1.87914e-11 1.86384e-11 1.53044e-13 0.00814433 0.00740585 0 0 0 0 0 0 0 0 0 0 0 0 0 0 1.4013e-45 0 1.54143e-44 0 1.34525e-43 0 9.33265e-43 0 4.98722e-42 0 2.34521e-41 0 9.1254e-41 0 3.30273e-40 0 1.04451e-39 0 3.00843e-39 0 8.1925e-39 0 2.11544e-38 0 5.0365e-38 0 1.14417e-37 0
5.25665 1.75551e-11 1.74298e-11 1.25336e-13 0.00713956 0.00675797 0 0 0 0 0 0 0 0 0 0 0 0 8.40779e-45 0 1.52742e-43 0 1.67595e-42 0 1.33558e-41 0 8.42643e-41 0 4.15133e-40 0 1.80995e-39 0 6.59047e-39 0 2.24008e-38 0 6.69711e-38 0 1.83183e-37 0 4.75027e-37 0 1.17108e-36 0 2.67253e-36 0 5.83292e-36 0
5.52648 1.65224e-11 1.64198e-11 1.02617e-13 0.00621075 0.00614009 0 0 0 0 0 0 0 0 0 0 3.64338e-44 0 1.01314e-42 0 1.49182e-41 0 1.45955e-40 0 1.05089e-39 0 6.05975e-39 0 2.76178e-38 0 1.12059e-37 0 3.83083e-37 0 1.22659e-36 0 3.47616e-36 0 9.05234e-36 0 2.24073e-35 0 5.28599e-35 0 1.15869e-34 0 2.43433e-34 0
5.81015 1.59198e-11 1.5836e-11 8.38126e-14 0.00526467 0.00549322 0 0 0 0 0 0 0 0 7.28675e-44 0 3.8816e-42 0 9.11222e-41 0 1.17724e-39 0 1.03042e-38 0 6.73747e-38 0 3.56651e-37 0 1.50944e-36 0 5.71973e-36 0 1.84144e-35 0 5.5704e-35 0 1.50038e-34 0 3.72879e-34 0 8.83035e-34 0 1.99763e-33 0 4.2142e-33 0 8.5386e-33 0
6.10839 1.56969e-11 1.56278e-11 6.90703e-14 0.00440026 0.0048866 0 0 0 0 0 0 4.48416e-44 0 7.49975e-42 0 3.30067e-40 0 6.64217e-39 0 7.57342e-38 0 5.96273e-37 0 3.55722e-36 0 1.73589e-35 0 6.84703e-35 0 2.43116e-34 0 7.39273e-34 0 2.11867e-33 0 5.43709e-33 0 1.2925e-32 0 2.93468e-32 0 6.37952e-32 0 1.29765e-31 0 2.54014e-31 0
6.42193 1.49709e-11 1.49132e-11 5.7726e-14 0.00385587 0.00448179 0 0 0 0 2.8026e-45 0 4.57804e-42 0 5.89587e-40 0 2.15691e-38 0 3.74876e-37 0 3.79545e-36 0 2.70186e-35 0 1.47726e-34 0 6.67202e-34 0 2.46116e-33 0 8.21454e-33 0 2.36588e-32 0 6.44057e-32 0 1.5785e-31 0 3.59706e-31 0 7.84675e-31 0 1.6423e-30 0 3.22677e-30 0 6.11258e-30 0
6.75157 1.40746e-11 1.4027e-11 4.76307e-14 0.00338415 0.00410481 0 0 0 0 3.47522e-43 0 3.58114e-40 0 3.63827e-38 0 1.11649e-36 0 1.68797e-35 0 1.52635e-34 0 9.8727e-34 0 4.96831e-33 0 2.08467e-32 0 7.21511e-32 0 2.27054e-31 0 6.21024e-31 0 1.60993e-30 0 3.77675e-30 0 8.26716e-30 0 1.73604e-29 0 3.50479e-29 0 6.66278e-29 0 1.22339e-28 0
7.09813 1.35726e-11 1.35332e-11 3.93567e-14 0.00289972 0.00369811 0 0 0 0 3.11439e-41 0 2.28759e-38 0 1.85467e-36 0 4.81534e-35 0 6.37602e-34 0 5.17784e-33 0 3.05735e-32 0 1.42185e-31 0 5.56257e-31 0 1.81198e-30 0 5.39177e-30 0 1.40403e-29 0 3.47436e-29 0 7.8182e-29 0 1.64715e-28 0 3.33584e-28 0 6.50745e-28 0 1.1989e-27 0 2.13702e-27 0
7.46248 1.28577e-11 1.28249e-11 3.2771e-14 0.00254875 0.00338753 0 0 1.68156e-44 0 2.17104e-39 0 1.15541e-36 0 7.55836e-35 0 1.67391e-33 0 1.95379e-32 0 1.43241e-31 0 7.75551e-31 0 3.34602e-30 0 1.22469e-29 0 3.76585e-29 0 1.06248e-28 0 2.6404e-28 0 6.2511e-28 0 1.35205e-27 0 2.74674e-27 0 5.37435e-27 0 1.01476e-26 0 1.81459e-26 0 3.14447e-26 0
7.84553 1.19554e-11 1.19282e-11 2.71605e-14 0.00227182 0.00313539 0 0 1.58907e-42 0 1.18956e-37 0 4.65971e-35 0 2.48542e-33 0 4.73174e-32 0 4.89851e-31 0 3.25845e-30 0 1.62458e-29 0 6.52619e-29 0 2.24204e-28 0 6.52625e-28 0 1.75036e-27 0 4.16077e-27 0 9.44467e-27 0 1.96727e-26 0 3.86064e-26 0 7.31032e-26 0 1.33812e-25 0 2.32588e-25 0 3.92373e-25 0
8.24824 1.10635e-11 1.1041e-11 2.25479e-14 0.00203803 0.00291563 0 0 1.21341e-40 0 5.25145e-36 0 1.53692e-33 0 6.75105e-32 0 1.11305e-30 0 1.02802e-29 0 6.23402e-29 0 2.87363e-28 0 1.07861e-27 0 3.48883e-27 0 9.63928e-27 0 2.4637e-26 0 5.61404e-26 0 1.22435e-25 0 2.4605e-25 0 4.67224e-25 0 8.57558e-25 0 1.52407e-24 0 2.57854e-24 0 4.2403e-24 0
8.67162 1.0144e-11 1.01254e-11 1.86391e-14 0.00183746 0.00272514 7.42688e-44 0 7.31099e-39 0 1.87882e-34 0 4.16716e-32 0 1.52179e-30 0 2.18814e-29 0 1.81309e-28 0 1.00686e-27 0 4.30755e-27 0 1.51571e-26 0 4.62958e-26 0 1.21718e-25 0 2.97168e-25 0 6.50468e-25 0 1.3656e-24 0 2.65242e-24 0 4.8814e-24 0 8.69775e-24 0 1.50298e-23 0 2.47841e-23 0 3.97786e-23 0
9.11674 9.23478e-12 9.21942e-12 1.53566e-14 0.00166291 0.00255712 6.31005e-42 0 3.52197e-37 0 5.51297e-33 0 9.39292e-31 0 2.87758e-29 0 3.63264e-28 0 2.71476e-27 0 1.38653e-26 0 5.52546e-26 0 1.82843e-25 0 5.28843e-25 0 1.32631e-24 0 3.10002e-24 0 6.53096e-24 0 1.32236e-23 0 2.48651e-23 0 4.4418e-23 0 7.69437e-23 0 1.29456e-22 0 2.08322e-22 0 3.26723e-22 0
9.5847 8.39227e-12 8.37965e-12 1.26208e-14 0.00150386 0.00239868 4.21117e-40 0 1.37839e-35 0 1.3464e-31 0 1.78501e-29 0 4.62706e-28 0 5.16101e-27 0 3.49619e-26 0 1.64898e-25 0 6.14242e-25 0 1.91724e-24 0 5.26506e-24 0 1.26248e-23 0 2.83101e-23 0 5.75115e-23 0 1.12504e-22 0 2.05125e-22 0 3.56194e-22 0 6.0069e-22 0 9.85299e-22 0 1.54915e-21 0 2.37682e-21 0
10.0767 7.69387e-12 7.68353e-12 1.03416e-14 0.00134414 0.00222931 2.27064e-38 0 4.47382e-34 0 2.7905e-30 0 2.91423e-28 0 6.44415e-27 0 6.38934e-26 0 3.94231e-25 0 1.72378e-24 0 6.02173e-24 0 1.77796e-23 0 4.64761e-23 0 1.06784e-22 0 2.30197e-22 0 4.51735e-22 0 8.55203e-22 0 1.51421e-21 0 2.55948e-21 0 4.20759e-21 0 6.73686e-21 0 1.03607e-20 0 1.55673e-20 0
10.5939 7.18404e-12 7.17559e-12 8.45615e-15 0.00117707 0.0020399 1.00962e-36 0 1.22747e-32 0 4.99723e-29 0 4.15913e-27 0 7.90667e-26 0 7.00876e-25 0 3.95686e-24 0 1.6099e-23 0 5.29072e-23 0 1.48169e-22 0 3.69565e-22 0 8.15323e-22 0 1.69292e-21 0 3.21458e-21 0 5.89897e-21 0 1.01573e-20 0 1.67346e-20 0 2.68508e-20 0 4.20145e-20 0 6.32709e-20 0 9.31957e-20 0
