# 0.000152549 0 80 : grain size, compostion index, size index
# Heating and cooling timescale: 9.35428e-05 4.50793e+07
# Ratio of heating to cooling to determine stochastic cutoff: 100
# Equilibrium emission is recorded even for those grains in the stochastic regime.
# Emission spectrum was computed for: 
# Type: ISRF
# Scales: 0.25 0.5 1 1.5 2 2.5 3 3.5 4 4.5 5 5.5 6 6.5 7 7.5 8 8.5 9 9.5 10
# StochasticallyHeated: 0 0 0 0 0 0 0 0 0 0 0 0 0 0 0 0 0 0 0 0 0
# Temperature: -1
# Wavelength  CExt  CAbs  CSca  Albedo G EqEm1 StEm1 EqEm2 StEm2 EqEm3 StEm3 EqEm4 StEm4 EqEm5 StEm5 EqEm6 StEm6 EqEm7 StEm7 EqEm8 StEm8 EqEm9 StEm9 EqEm10 StEm10 EqEm11 StEm11 EqEm12 StEm12 EqEm13 StEm13 EqEm14 StEm14 EqEm15 StEm15 EqEm16 StEm16 EqEm17 StEm17 EqEm18 StEm18 EqEm19 StEm19 EqEm20 StEm20 EqEm21 StEm21
0.05 1.47474e-07 6.96304e-08 7.78431e-08 0.527845 0.989467 0 0 0 0 0 0 0 0 0 0 0 0 0 0 0 0 0 0 0 0 0 0 0 0 0 0 0 0 0 0 0 0 0 0 0 0 0 0 0 0 0 0
0.0525665 1.48058e-07 6.84161e-08 7.96421e-08 0.537911 0.982842 0 0 0 0 0 0 0 0 0 0 0 0 0 0 0 0 0 0 0 0 0 0 0 0 0 0 0 0 0 0 0 0 0 0 0 0 0 0 0 0 0 0
0.0552647 1.48405e-07 6.8157e-08 8.0248e-08 0.540737 0.979244 0 0 0 0 0 0 0 0 0 0 0 0 0 0 0 0 0 0 0 0 0 0 0 0 0 0 0 0 0 0 0 0 0 0 0 0 0 0 0 0 0 0
0.0581015 1.48676e-07 6.8108e-08 8.0568e-08 0.541903 0.976739 0 0 0 0 0 0 0 0 0 0 0 0 0 0 0 0 0 0 0 0 0 0 0 0 0 0 0 0 0 0 0 0 0 0 0 0 0 0 0 0 0 0
0.0610839 1.48905e-07 6.81347e-08 8.07702e-08 0.542428 0.97486 0 0 0 0 0 0 0 0 0 0 0 0 0 0 0 0 0 0 0 0 0 0 0 0 0 0 0 0 0 0 0 0 0 0 0 0 0 0 0 0 0 0
0.0642193 1.49109e-07 6.81585e-08 8.09507e-08 0.542895 0.973208 0 0 0 0 0 0 0 0 0 0 0 0 0 0 0 0 0 0 0 0 0 0 0 0 0 0 0 0 0 0 0 0 0 0 0 0 0 0 0 0 0 0
0.0675157 1.49304e-07 6.81361e-08 8.11675e-08 0.543641 0.971473 0 0 0 0 0 0 0 0 0 0 0 0 0 0 0 0 0 0 0 0 0 0 0 0 0 0 0 0 0 0 0 0 0 0 0 0 0 0 0 0 0 0
0.0709813 1.49502e-07 6.8067e-08 8.14347e-08 0.544707 0.969488 0 0 0 0 0 0 0 0 0 0 0 0 0 0 0 0 0 0 0 0 0 0 0 0 0 0 0 0 0 0 0 0 0 0 0 0 0 0 0 0 0 0
0.0746248 1.49712e-07 6.79732e-08 8.17388e-08 0.545974 0.967245 0 0 0 0 0 0 0 0 0 0 0 0 0 0 0 0 0 0 0 0 0 0 0 0 0 0 0 0 0 0 0 0 0 0 0 0 0 0 0 0 0 0
0.0784553 1.49932e-07 6.78848e-08 8.20473e-08 0.54723 0.964905 0 0 0 0 0 0 0 0 0 0 0 0 0 0 0 0 0 0 0 0 0 0 0 0 0 0 0 0 0 0 0 0 0 0 0 0 0 0 0 0 0 0
0.0824824 1.5016e-07 6.78085e-08 8.23513e-08 0.548424 0.962526 0 0 0 0 0 0 0 0 0 0 0 0 0 0 0 0 0 0 0 0 0 0 0 0 0 0 0 0 0 0 0 0 0 0 0 0 0 0 0 0 0 0
0.0867162 1.50396e-07 6.77403e-08 8.26558e-08 0.549587 0.960098 0 0 0 0 0 0 0 0 0 0 0 0 0 0 0 0 0 0 0 0 0 0 0 0 0 0 0 0 0 0 0 0 0 0 0 0 0 0 0 0 0 0
0.0911674 1.50642e-07 6.76803e-08 8.29618e-08 0.550721 0.957609 0 0 0 0 0 0 0 0 0 0 0 0 0 0 0 0 0 0 0 0 0 0 0 0 0 0 0 0 0 0 0 0 0 0 0 0 0 0 0 0 0 0
0.095847 1.50899e-07 6.76324e-08 8.32669e-08 0.551804 0.955067 0 0 0 0 0 0 0 0 0 0 0 0 0 0 0 0 0 0 0 0 0 0 0 0 0 0 0 0 0 0 0 0 0 0 0 0 0 0 0 0 0 0
0.100767 1.5117e-07 6.76068e-08 8.35631e-08 0.552776 0.952529 0 0 0 0 0 0 0 0 0 0 0 0 0 0 0 0 0 0 0 0 0 0 0 0 0 0 0 0 0 0 0 0 0 0 0 0 0 0 0 0 0 0
0.105939 1.51457e-07 6.76414e-08 8.38156e-08 0.553396 0.950195 0 0 0 0 0 0 0 0 0 0 0 0 0 0 0 0 0 0 0 0 0 0 0 0 0 0 0 0 0 0 0 0 0 0 0 0 0 0 0 0 0 0
0.111377 1.51743e-07 6.77558e-08 8.39868e-08 0.553482 0.94843 0 0 0 0 0 0 0 0 0 0 0 0 0 0 0 0 0 0 0 0 0 0 0 0 0 0 0 0 0 0 0 0 0 0 0 0 0 0 0 0 0 0
0.117094 1.52012e-07 6.79165e-08 8.40957e-08 0.553217 0.947202 0 0 0 0 0 0 0 0 0 0 0 0 0 0 0 0 0 0 0 0 0 0 0 0 0 0 0 0 0 0 0 0 0 0 0 0 0 0 0 0 0 0
0.123105 1.5229e-07 6.8047e-08 8.42431e-08 0.553175 0.945763 0 0 0 0 0 0 0 0 0 0 0 0 0 0 0 0 0 0 0 0 0 0 0 0 0 0 0 0 0 0 0 0 0 0 0 0 0 0 0 0 0 0
0.129424 1.52584e-07 6.82411e-08 8.43429e-08 0.552764 0.944612 0 0 0 0 0 0 0 0 0 0 0 0 0 0 0 0 0 0 0 0 0 0 0 0 0 0 0 0 0 0 0 0 0 0 0 0 0 0 0 0 0 0
0.136067 1.52848e-07 6.85548e-08 8.42935e-08 0.551485 0.944629 0 0 0 0 0 0 0 0 0 0 0 0 0 0 0 0 0 0 0 0 0 0 0 0 0 0 0 0 0 0 0 0 0 0 0 0 0 0 0 0 0 0
0.143051 1.53106e-07 6.87889e-08 8.4317e-08 0.55071 0.944246 0 0 0 0 0 0 0 0 0 0 0 0 0 0 0 0 0 0 0 0 0 0 0 0 0 0 0 0 0 0 0 0 0 0 0 0 0 0 0 0 0 0
0.150394 1.53391e-07 6.92e-08 8.41905e-08 0.548864 0.944795 0 0 0 0 0 0 0 0 0 0 0 0 0 0 0 0 0 0 0 0 0 0 0 0 0 0 0 0 0 0 0 0 0 0 0 0 0 0 0 0 0 0
0.158114 1.53482e-07 6.99208e-08 8.35615e-08 0.544437 0.949189 0 0 0 0 0 0 0 0 0 0 0 0 0 0 0 0 0 0 0 0 0 0 0 0 0 0 0 0 0 0 0 0 0 0 0 0 0 0 0 0 0 0
0.16623 1.53437e-07 7.00122e-08 8.34244e-08 0.543706 0.95048 0 0 0 0 0 0 0 0 0 0 0 0 0 0 0 0 0 0 0 0 0 0 0 0 0 0 0 0 0 0 0 0 0 0 0 0 0 0 0 0 0 0
0.174762 1.53533e-07 6.95373e-08 8.39957e-08 0.547086 0.947013 0 0 0 0 0 0 0 0 0 0 0 0 0 0 0 0 0 0 0 0 0 0 0 0 0 0 0 0 0 0 0 0 0 0 0 0 0 0 0 0 0 0
0.183733 1.53771e-07 6.88192e-08 8.49513e-08 0.552455 0.940915 0 0 0 0 0 0 0 0 0 0 0 0 0 0 0 0 0 0 0 0 0 0 0 0 0 0 0 0 0 0 0 0 0 0 0 0 0 0 0 0 0 0
0.193164 1.54173e-07 6.77885e-08 8.63846e-08 0.560309 0.931385 0 0 0 0 0 0 0 0 0 0 0 0 0 0 0 0 0 0 0 0 0 0 0 0 0 0 0 0 0 0 0 0 0 0 0 0 0 0 0 0 0 0
0.203079 1.54791e-07 6.68447e-08 8.79458e-08 0.56816 0.920136 0 0 0 0 0 0 0 0 0 0 0 0 0 0 0 0 0 0 0 0 0 0 0 0 0 0 0 0 0 0 0 0 0 0 0 0 0 0 0 0 0 0
0.213503 1.55414e-07 6.62285e-08 8.91855e-08 0.573858 0.910747 0 0 0 0 0 0 0 0 0 0 0 0 0 0 0 0 0 0 0 0 0 0 0 0 0 0 0 0 0 0 0 0 0 0 0 0 0 0 0 0 0 0
0.224463 1.56043e-07 6.57662e-08 9.02768e-08 0.578538 0.902306 0 0 0 0 0 0 0 0 0 0 0 0 0 0 0 0 0 0 0 0 0 0 0 0 0 0 0 0 0 0 0 0 0 0 0 0 0 0 0 0 0 0
0.235984 1.56685e-07 6.53045e-08 9.13802e-08 0.583211 0.893836 0 0 0 0 0 0 0 0 0 0 0 0 0 0 0 0 0 0 0 0 0 0 0 0 0 0 0 0 0 0 0 0 0 0 0 0 0 0 0 0 0 0
0.248097 1.57425e-07 6.4752e-08 9.26734e-08 0.588681 0.883866 0 0 0 0 0 0 0 0 0 0 0 0 0 0 0 0 0 0 0 0 0 0 0 0 0 0 0 0 0 0 0 0 0 0 0 0 0 0 0 0 0 0
0.260832 1.58208e-07 6.44682e-08 9.37393e-08 0.592509 0.875387 0 0 0 0 0 0 0 0 0 0 0 0 0 0 0 0 0 0 0 0 0 0 0 0 0 0 0 0 0 0 0 0 0 0 0 0 0 0 0 0 0 0
0.274221 1.58997e-07 6.43703e-08 9.4627e-08 0.595149 0.868239 0 0 0 0 0 0 0 0 0 0 0 0 0 0 0 0 0 0 0 0 0 0 0 0 0 0 0 0 0 0 0 0 0 0 0 0 0 0 0 0 0 0
0.288297 1.59767e-07 6.43962e-08 9.53706e-08 0.596936 0.862295 0 0 0 0 0 0 0 0 0 0 0 0 0 0 0 0 0 0 0 0 0 0 0 0 0 0 0 0 0 0 0 0 0 0 0 0 0 0 0 0 0 0
0.303095 1.60547e-07 6.45176e-08 9.60292e-08 0.598138 0.856998 0 0 0 0 0 0 0 0 0 0 0 0 0 0 0 0 0 0 0 0 0 0 0 0 0 0 0 0 0 0 0 0 0 0 0 0 0 0 0 0 0 0
0.318653 1.61316e-07 6.47039e-08 9.66118e-08 0.598899 0.852379 0 0 0 0 0 0 0 0 0 0 0 0 0 0 0 0 0 0 0 0 0 0 0 0 0 0 0 0 0 0 0 0 0 0 0 0 0 0 0 0 0 0
0.335009 1.62083e-07 6.49314e-08 9.71521e-08 0.599395 0.848132 0 0 0 0 0 0 0 0 0 0 0 0 0 0 0 0 0 0 0 0 0 0 0 0 0 0 0 0 0 0 0 0 0 0 0 0 0 0 0 0 0 0
0.352205 1.62851e-07 6.51974e-08 9.76538e-08 0.599651 0.844224 0 0 0 0 0 0 0 0 0 0 0 0 0 0 0 0 0 0 0 0 0 0 0 0 0 0 0 0 0 0 0 0 0 0 0 0 0 0 0 0 0 0
0.370284 1.63624e-07 6.54678e-08 9.81566e-08 0.59989 0.840371 0 0 0 0 0 0 0 0 0 0 0 0 0 0 0 0 0 0 0 0 0 0 0 0 0 0 0 0 0 0 0 0 0 0 0 0 0 0 0 0 0 0
0.389291 1.64401e-07 6.57515e-08 9.8649e-08 0.600053 0.83663 0 0 0 0 0 0 0 0 0 0 0 0 0 0 0 0 0 0 0 0 0 0 0 0 0 0 0 0 0 0 0 0 0 0 0 0 0 0 0 0 0 0
0.409273 1.65187e-07 6.60282e-08 9.91586e-08 0.600282 0.832815 0 0 0 0 0 0 0 0 0 0 0 0 0 0 0 0 0 0 0 0 0 0 0 0 0 0 0 0 0 0 0 0 0 0 0 0 0 0 0 0 0 0
0.430281 1.65981e-07 6.63045e-08 9.96764e-08 0.600529 0.828951 0 0 0 0 0 0 0 0 0 0 0 0 0 0 0 0 0 0 0 0 0 0 0 0 0 0 0 0 0 0 0 0 0 0 0 0 0 0 0 0 0 0
0.452368 1.66773e-07 6.65974e-08 1.00176e-07 0.600671 0.825181 0 0 0 0 0 0 0 0 0 0 0 0 0 0 0 0 0 0 0 0 0 0 0 0 0 0 0 0 0 0 0 0 0 0 0 0 0 0 0 0 0 0
0.475588 1.67563e-07 6.68927e-08 1.00671e-07 0.600792 0.821415 0 0 0 0 0 0 0 0 0 0 0 0 0 0 0 0 0 0 0 0 0 0 0 0 0 0 0 0 0 0 0 0 0 0 0 0 0 0 0 0 0 0
0.5 1.6833e-07 6.72221e-08 1.01108e-07 0.600653 0.817956 0 0 0 0 0 0 0 0 0 0 0 0 0 0 0 0 0 0 0 0 0 0 0 0 0 0 0 0 0 0 0 0 0 0 0 0 0 0 0 0 0 0
0.525665 1.69072e-07 6.75804e-08 1.01492e-07 0.600287 0.814806 0 0 0 0 0 0 0 0 0 0 0 0 0 0 0 0 0 0 0 0 0 0 0 0 0 0 0 0 0 0 0 0 0 0 0 0 0 0 0 0 0 0
0.552648 1.69792e-07 6.7964e-08 1.01828e-07 0.599722 0.811941 0 0 0 0 0 0 0 0 0 0 0 0 0 0 0 0 0 0 0 0 0 0 0 0 0 0 0 0 0 0 0 0 0 0 0 0 0 0 0 0 0 0
0.581015 1.70497e-07 6.83626e-08 1.02134e-07 0.599038 0.809246 0 0 0 0 0 0 0 0 0 0 0 0 0 0 0 0 0 0 0 0 0 0 0 0 0 0 0 0 0 0 0 0 0 0 0 0 0 0 0 0 0 0
0.610839 1.71194e-07 6.87624e-08 1.02432e-07 0.598336 0.80657 0 0 0 0 0 0 0 0 0 0 0 0 0 0 0 0 0 0 0 0 0 0 0 0 0 0 0 0 0 0 0 0 0 0 0 0 0 0 0 0 0 0
0.642193 1.71887e-07 6.91667e-08 1.0272e-07 0.597604 0.803924 0 0 0 0 0 0 0 0 0 0 0 0 0 0 0 0 0 0 0 0 0 0 0 0 0 0 0 0 0 0 0 0 0 0 0 0 0 0 0 0 0 0
0.675157 1.72581e-07 6.95697e-08 1.03012e-07 0.596887 0.801231 0 0 0 0 0 0 0 0 0 0 0 0 0 0 0 0 0 0 0 0 0 0 0 0 0 0 0 0 0 0 0 0 0 0 0 0 0 0 0 0 0 0
0.709813 1.73274e-07 6.99707e-08 1.03303e-07 0.596185 0.798463 0 0 0 0 0 0 0 0 0 0 0 0 0 0 0 0 0 0 0 0 0 0 0 0 0 0 0 0 0 0 0 0 0 0 0 0 0 0 0 0 0 0
0.746248 1.73963e-07 7.03786e-08 1.03584e-07 0.595439 0.79569 0 0 0 0 0 0 0 0 0 0 0 0 0 0 0 0 0 0 0 0 0 0 0 0 0 0 0 0 0 0 0 0 0 0 0 0 0 0 0 0 0 0
0.784553 1.74638e-07 7.07962e-08 1.03842e-07 0.594613 0.79293 0 0 0 0 0 0 0 0 0 0 0 0 0 0 0 0 0 0 0 0 0 0 0 0 0 0 0 0 0 0 0 0 0 0 0 0 0 0 0 0 0 0
0.824824 1.75295e-07 7.12685e-08 1.04027e-07 0.593437 0.790517 0 0 0 0 0 0 0 0 0 0 0 0 0 0 0 0 0 0 0 0 0 0 0 0 0 0 0 0 0 0 0 0 0 0 0 0 0 0 0 0 0 0
0.867162 1.75962e-07 7.18107e-08 1.04151e-07 0.591896 0.788508 0 0 0 0 0 0 0 0 0 0 0 0 0 0 0 0 0 0 0 0 0 0 0 0 0 0 0 0 0 0 0 0 0 0 0 0 0 0 0 0 0 0
0.911674 1.7666e-07 7.23798e-08 1.0428e-07 0.590288 0.786506 0 0 0 0 0 0 0 0 0 0 0 0 0 0 0 0 0 0 0 0 0 0 0 0 0 0 0 0 0 0 0 0 0 0 0 0 0 0 0 0 0 0
0.95847 1.7741e-07 7.29257e-08 1.04484e-07 0.588942 0.784063 0 0 0 0 0 0 0 0 0 0 0 0 0 0 0 0 0 0 0 0 0 0 0 0 0 0 0 0 0 0 0 0 0 0 0 0 0 0 0 0 0 0
1.00767 1.78171e-07 7.34437e-08 1.04727e-07 0.58779 0.781247 0 0 0 0 0 0 0 0 0 0 0 0 0 0 0 0 0 0 0 0 0 0 0 0 0 0 0 0 0 0 0 0 0 0 0 0 0 0 0 0 0 0
1.05939 1.78951e-07 7.39896e-08 1.04962e-07 0.586538 0.77837 0 0 0 0 0 0 0 0 0 0 0 0 0 0 0 0 0 0 0 0 0 0 0 0 0 0 0 0 0 0 0 0 0 0 0 0 0 0 0 0 0 0
1.11377 1.79742e-07 7.45434e-08 1.05199e-07 0.585276 0.775377 0 0 0 0 0 0 0 0 0 0 0 0 0 0 0 0 0 0 0 0 0 0 0 0 0 0 0 0 0 0 0 0 0 0 0 0 0 0 0 0 0 0
1.17094 1.80564e-07 7.51096e-08 1.05455e-07 0.584029 0.77215 0 0 0 0 0 0 0 0 0 0 0 0 0 0 0 0 0 0 0 0 0 0 0 0 0 0 0 0 0 0 0 0 0 0 0 0 0 0 0 0 0 0
1.23105 1.81391e-07 7.5675e-08 1.05716e-07 0.582807 0.768732 0 0 0 0 0 0 0 0 0 0 0 0 0 0 0 0 0 0 0 0 0 0 0 0 0 0 0 0 0 0 0 0 0 0 0 0 0 0 0 0 0 0
1.29424 1.8225e-07 7.62833e-08 1.05967e-07 0.581436 0.765285 0 0 0 0 0 0 0 0 0 0 0 0 0 0 0 0 0 0 0 0 0 0 0 0 0 0 0 0 0 0 0 0 0 0 0 0 0 0 0 0 0 0
1.36067 1.83106e-07 7.69465e-08 1.06159e-07 0.57977 0.761896 0 0 0 0 0 0 0 0 0 0 0 0 0 0 0 0 0 0 0 0 0 0 0 0 0 0 0 0 0 0 0 0 0 0 0 0 0 0 0 0 0 0
1.43051 1.8403e-07 7.7646e-08 1.06384e-07 0.578079 0.758451 0 0 0 0 0 0 0 0 0 0 0 0 0 0 0 0 0 0 0 0 0 0 0 0 0 0 0 0 0 0 0 0 0 0 0 0 0 0 0 0 0 0
1.50394 1.85002e-07 7.83348e-08 1.06667e-07 0.576572 0.75443 0 0 0 0 0 0 0 0 0 0 0 0 0 0 0 0 0 0 0 0 0 0 0 0 0 0 0 0 0 0 0 0 0 0 0 0 0 0 0 0 0 0
1.58114 1.85942e-07 7.89824e-08 1.0696e-07 0.575232 0.749923 0 0 0 0 0 0 0 0 0 0 0 0 0 0 0 0 0 0 0 0 0 0 0 0 0 0 0 0 0 0 0 0 0 0 0 0 0 0 0 0 0 0
1.6623 1.86936e-07 7.9675e-08 1.07261e-07 0.573785 0.745419 0 0 0 0 0 0 0 0 0 0 0 0 0 0 0 0 0 0 0 0 0 0 0 0 0 0 0 0 0 0 0 0 0 0 0 0 0 0 0 0 0 0
1.74763 1.87974e-07 8.04593e-08 1.07515e-07 0.571967 0.74086 0 0 0 0 0 0 0 0 0 0 0 0 0 0 0 0 0 0 0 0 0 0 0 0 0 0 0 0 0 0 0 0 0 0 0 0 0 0 0 0 0 0
1.83733 1.88992e-07 8.12173e-08 1.07775e-07 0.570261 0.735741 0 0 0 0 0 0 0 0 0 0 0 0 0 0 0 0 0 0 0 0 0 0 0 0 0 0 0 0 0 0 0 0 0 0 0 0 0 0 0 0 0 0
1.93164 1.90051e-07 8.19169e-08 1.08135e-07 0.568975 0.730085 0 0 0 0 0 0 0 0 0 0 0 0 0 0 0 0 0 0 0 0 0 0 0 0 0 0 0 0 0 0 0 0 0 0 0 0 0 0 0 0 0 0
2.03079 1.91209e-07 8.27581e-08 1.08451e-07 0.567186 0.724657 0 0 0 0 0 0 0 0 0 0 0 0 0 0 0 0 0 0 0 0 0 0 0 0 0 0 0 0 0 0 0 0 0 0 0 0 0 0 0 0 0 0
2.13503 1.92336e-07 8.36455e-08 1.0869e-07 0.565107 0.718752 0 0 0 0 0 0 0 0 0 0 0 0 0 0 0 0 0 0 0 0 0 0 0 0 0 0 0 0 0 0 0 0 0 0 0 0 0 0 0 0 0 0
2.24463 1.93385e-07 8.44463e-08 1.08939e-07 0.563325 0.711962 0 0 0 0 0 0 0 0 0 0 0 0 0 0 0 0 0 0 0 0 0 0 0 0 0 0 0 0 0 0 0 0 0 0 0 0 0 0 0 0 0 0
2.35984 1.94565e-07 8.5287e-08 1.09278e-07 0.561654 0.705055 0 0 0 0 0 0 0 0 0 0 0 0 0 0 0 0 0 0 0 0 0 0 0 0 0 0 0 0 0 0 0 0 0 0 0 0 0 0 0 0 0 0
2.48097 1.95912e-07 8.62612e-08 1.09651e-07 0.559695 0.698255 0 0 0 0 0 0 0 0 0 0 0 0 0 0 0 0 0 0 0 0 0 0 0 0 0 0 0 0 0 0 0 0 0 0 0 0 0 0 0 0 0 0
2.60832 1.97239e-07 8.74214e-08 1.09818e-07 0.556775 0.69145 0 0 0 0 0 0 0 0 0 0 0 0 0 0 0 0 0 0 0 0 0 0 0 0 0 0 0 0 0 0 0 0 0 0 0 0 0 0 0 0 0 0
2.74221 1.98393e-07 8.83539e-08 1.1004e-07 0.554653 0.682533 0 0 0 0 0 0 0 0 0 0 0 0 0 0 0 0 0 0 0 0 0 0 0 0 0 0 0 0 0 0 0 0 0 0 0 0 0 0 0 0 0 0
2.88297 1.99434e-07 8.90953e-08 1.10339e-07 0.553259 0.672064 0 0 0 0 0 0 0 0 0 0 0 0 0 0 0 0 0 0 0 0 0 0 0 0 0 0 0 0 0 0 0 0 0 0 0 0 0 0 0 0 0 0
3.03095 2.00808e-07 9.00354e-08 1.10773e-07 0.551634 0.662082 0 0 0 0 0 0 0 0 0 0 0 0 0 0 0 0 0 0 0 0 0 0 0 0 0 0 0 0 0 0 0 0 0 0 0 0 0 0 0 0 0 0
3.18653 2.02517e-07 9.11226e-08 1.11395e-07 0.55005 0.65249 0 0 0 0 0 0 0 0 0 0 0 0 0 0 0 0 0 0 0 0 0 0 0 0 0 0 0 0 0 0 0 0 0 0 0 0 0 0 0 0 0 0
3.35009 2.04147e-07 9.23286e-08 1.11818e-07 0.547734 0.642884 0 0 0 0 0 0 0 0 0 0 0 0 0 0 0 0 0 0 0 0 0 0 0 0 0 0 0 0 0 0 0 0 0 0 0 0 0 0 0 0 0 0
3.52205 2.05537e-07 9.35885e-08 1.11949e-07 0.544665 0.63223 0 0 0 0 0 0 0 0 0 0 0 0 0 0 0 0 0 0 0 0 0 0 0 0 0 0 0 0 0 0 0 0 0 0 0 0 0 0 0 0 0 0
3.70284 2.0648e-07 9.44151e-08 1.12065e-07 0.542739 0.617886 0 0 0 0 0 0 0 0 0 0 0 0 0 0 0 0 0 0 0 0 0 0 0 0 0 0 0 0 0 0 0 0 0 0 0 0 0 0 0 0 0 0
3.89291 2.0736e-07 9.49855e-08 1.12375e-07 0.54193 0.60068 0 0 0 0 0 0 0 0 0 0 0 0 0 0 0 0 0 0 0 0 0 0 0 0 0 0 0 0 0 0 0 0 0 0 0 0 0 0 0 0 0 0
4.09273 2.08674e-07 9.57312e-08 1.12943e-07 0.54124 0.583186 0 0 0 0 0 0 0 0 0 0 0 0 0 0 0 0 0 0 0 0 0 0 0 0 0 0 0 0 0 0 0 0 0 0 0 0 0 0 0 0 0 0
4.30281 2.10501e-07 9.69535e-08 1.13548e-07 0.539416 0.567552 0 0 0 0 0 0 0 0 0 0 0 0 0 0 0 0 0 0 0 0 0 0 0 0 0 0 0 0 0 0 0 0 0 0 0 0 0 0 0 0 0 0
4.52368 2.12493e-07 9.85208e-08 1.13972e-07 0.536357 0.553507 0 0 0 0 0 0 0 0 0 0 0 0 0 0 0 0 0 0 0 0 0 0 0 0 0 0 0 0 0 0 0 0 0 0 0 0 0 0 0 0 0 0
4.75588 2.14256e-07 1.00259e-07 1.13997e-07 0.53206 0.539726 0 0 0 0 0 0 0 0 0 0 0 0 0 0 0 0 0 0 0 0 0 0 0 0 0 0 0 0 0 0 0 0 0 0 0 0 0 0 0 0 0 0
5 2.15442e-07 1.02001e-07 1.1344e-07 0.526548 0.52454 0 0 0 0 0 0 0 0 0 0 0 0 0 0 0 0 0 0 0 0 0 0 0 0 0 0 0 0 0 0 0 0 0 0 0 0 0 0 0 0 0 0
5.25665 2.16062e-07 1.0384e-07 1.12223e-07 0.5194 0.506528 0 0 0 0 0 0 0 0 0 0 0 0 0 0 0 0 0 0 0 0 0 0 0 0 0 0 0 0 0 0 0 0 0 0 0 0 0 0 0 0 0 0
5.52648 2.16258e-07 1.0551e-07 1.10747e-07 0.512108 0.48375 0 0 0 0 0 0 0 0 0 0 0 0 0 0 0 0 0 0 0 0 0 0 0 0 0 0 0 0 0 0 0 0 0 0 0 0 0 0 0 0 0 0
5.81015 2.16386e-07 1.07182e-07 1.09205e-07 0.504674 0.456613 0 0 0 0 0 0 0 0 0 0 0 0 0 0 0 0 0 0 0 0 0 0 0 0 0 0 0 0 0 0 0 0 0 0 0 0 0 0 0 0 0 0
6.10839 2.16315e-07 1.0767e-07 1.08645e-07 0.502255 0.421507 0 0 0 0 0 0 0 0 0 0 0 0 0 0 0 0 0 0 0 0 0 0 0 0 0 0 0 0 0 0 0 0 0 0 0 0 0 0 0 0 0 0
6.42193 2.15824e-07 1.06507e-07 1.09317e-07 0.506509 0.375189 0 0 0 0 0 0 0 0 0 0 0 0 0 0 0 0 0 0 0 0 0 0 0 0 0 0 0 0 0 0 0 0 0 0 0 0 0 0 0 0 0 0
6.75157 2.16553e-07 1.06662e-07 1.09891e-07 0.507456 0.32934 0 0 0 0 0 0 0 0 0 0 0 0 0 0 0 0 0 0 0 0 0 0 0 0 0 0 0 0 0 0 0 0 0 0 0 0 1.4013e-45 0 2.8026e-45 0 7.00649e-45 0
7.09813 2.1929e-07 1.07468e-07 1.11822e-07 0.509929 0.283991 0 0 0 0 0 0 0 0 0 0 0 0 0 0 0 0 0 0 0 0 0 0 0 0 0 0 0 0 1.4013e-45 0 5.60519e-45 0 2.10195e-44 0 6.72623e-44 0 1.91978e-43 0 5.38099e-43 0 1.34385e-42 0
7.46248 2.23156e-07 1.08285e-07 1.14871e-07 0.514758 0.238613 0 0 0 0 0 0 0 0 0 0 0 0 0 0 0 0 0 0 0 0 0 0 2.8026e-45 0 1.68156e-44 0 7.70714e-44 0 3.01279e-43 0 1.06639e-42 0 3.43598e-42 0 1.04593e-41 0 2.83525e-41 0 7.53983e-41 0 1.80028e-40 0
7.84553 2.27999e-07 1.10129e-07 1.1787e-07 0.516976 0.1984 0 0 0 0 0 0 0 0 0 0 0 0 0 0 0 0 1.4013e-45 0 1.26117e-44 0 9.52883e-44 0 5.63322e-43 0 2.72833e-42 0 1.18214e-41 0 4.32707e-41 0 1.44046e-40 0 4.38536e-40 0 1.2644e-39 0 3.26451e-39 0 8.27659e-39 0 1.89396e-38 0
8.24824 2.33023e-07 1.12222e-07 1.20801e-07 0.518408 0.161808 0 0 0 0 0 0 0 0 0 0 0 0 1.4013e-45 0 2.10195e-44 0 2.57839e-43 0 2.19303e-42 0 1.44264e-41 0 7.77398e-41 0 3.48862e-40 0 1.40716e-39 0 4.83451e-39 0 1.51759e-38 0 4.37576e-38 0 1.19806e-37 0 2.95325e-37 0 7.15497e-37 0 1.57244e-36 0
8.67162 2.37687e-07 1.14843e-07 1.22843e-07 0.516829 0.130299 0 0 0 0 0 0 0 0 0 0 7.00649e-45 0 1.98984e-43 0 3.41356e-42 0 3.67925e-41 0 2.81454e-40 0 1.68862e-39 0 8.38151e-39 0 3.49539e-38 0 1.31708e-37 0 4.26041e-37 0 1.26473e-36 0 3.46292e-36 0 9.02631e-36 0 2.12913e-35 0 4.94022e-35 0 1.04476e-34 0
9.11674 2.41224e-07 1.17568e-07 1.23655e-07 0.512617 0.103067 0 0 0 0 0 0 0 0 1.82169e-44 0 1.10422e-42 0 2.84337e-41 0 4.24153e-40 0 4.07044e-39 0 2.81928e-38 0 1.54979e-37 0 7.11364e-37 0 2.76685e-36 0 9.77181e-36 0 2.98484e-35 0 8.40226e-35 0 2.1902e-34 0 5.44799e-34 0 1.23234e-33 0 2.74428e-33 0 5.59523e-33 0
9.5847 2.42877e-07 1.19914e-07 1.22963e-07 0.506276 0.0795846 0 0 0 0 0 0 1.4013e-44 0 2.78018e-42 0 1.42885e-40 0 3.13879e-39 0 4.10343e-38 0 3.52627e-37 0 2.22216e-36 0 1.12402e-35 0 4.78938e-35 0 1.7433e-34 0 5.78904e-34 0 1.67446e-33 0 4.48132e-33 0 1.11475e-32 0 2.65221e-32 0 5.76496e-32 0 1.23457e-31 0 2.43109e-31 0
10.0767 2.42007e-07 1.21504e-07 1.20503e-07 0.497933 0.0605297 0 0 0 0 1.4013e-45 0 2.12016e-42 0 3.37707e-40 0 1.43196e-38 0 2.70518e-37 0 3.11943e-36 0 2.41342e-35 0 1.39015e-34 0 6.49663e-34 0 2.57904e-33 0 8.81366e-33 0 2.76021e-32 0 7.58036e-32 0 1.93351e-31 0 4.60039e-31 0 1.04917e-30 0 2.19569e-30 0 4.53049e-30 0 8.63099e-30 0
10.5939 2.37333e-07 1.21798e-07 1.15535e-07 0.486805 0.0467745 0 0 0 0 1.93379e-43 0 2.55148e-40 0 3.17357e-38 0 1.12068e-36 0 1.83416e-35 0 1.87703e-34 0 1.31415e-33 0 6.94938e-33 0 3.01217e-32 0 1.11793e-31 0 3.59795e-31 0 1.0657e-30 0 2.78587e-30 0 6.78833e-30 0 1.54822e-29 0 3.39158e-29 0 6.84649e-29 0 1.36359e-28 0 2.51728e-28 0
11.1377 2.26424e-07 1.19674e-07 1.0675e-07 0.47146 0.0358294 0 0 0 0 2.53103e-41 0 2.35395e-38 0 2.31356e-36 0 6.86496e-35 0 9.80217e-34 0 8.95451e-33 0 5.70101e-32 0 2.77932e-31 0 1.12143e-30 0 3.90393e-30 0 1.18675e-29 0 3.3336e-29 0 8.31503e-29 0 1.93991e-28 0 4.24979e-28 0 8.96003e-28 0 1.74776e-27 0 3.36579e-27 0 6.03026e-27 0
11.7094 2.11837e-07 1.16025e-07 9.58122e-08 0.452292 0.0245894 0 0 1.12104e-44 0 2.54577e-39 0 1.6958e-36 0 1.33222e-34 0 3.35003e-33 0 4.20103e-32 0 3.44485e-31 0 2.00369e-30 0 9.04119e-30 0 3.40786e-29 0 1.11625e-28 0 3.21397e-28 0 8.58414e-28 0 2.0477e-27 0 4.58374e-27 0 9.66447e-27 0 1.96474e-26 0 3.70944e-26 0 6.9186e-26 0 1.20477e-25 0
12.3105 1.95574e-07 1.11793e-07 8.37809e-08 0.428385 0.0187217 0 0 1.63111e-42 0 2.00407e-37 0 9.71877e-35 0 6.16994e-33 0 1.32549e-31 0 1.46913e-30 0 1.08707e-29 0 5.80208e-29 0 2.43237e-28 0 8.5931e-28 0 2.65627e-27 0 7.2632e-27 0 1.84906e-26 0 4.22754e-26 0 9.09819e-26 0 1.84968e-25 0 3.63227e-25 0 6.64824e-25 0 1.20282e-24 0 2.03856e-24 0
12.9424 1.77543e-07 1.06636e-07 7.09078e-08 0.399383 0.0220465 0 0 1.79452e-40 0 1.2444e-35 0 4.46202e-33 0 2.31306e-31 0 4.27803e-30 0 4.21621e-29 0 2.82932e-28 0 1.39154e-27 0 5.43941e-27 0 1.80681e-26 0 5.28571e-26 0 1.37604e-25 0 3.34689e-25 0 7.34923e-25 0 1.52355e-24 0 2.99194e-24 0 5.68494e-24 0 1.01027e-23 0 1.77565e-23 0 2.93289e-23 0
13.6067 1.60919e-07 1.01016e-07 5.99036e-08 0.372258 0.0168411 9.66896e-44 0 1.53638e-38 0 6.18232e-34 0 1.66341e-31 0 7.11114e-30 0 1.1406e-28 0 1.0053e-27 0 6.14738e-27 0 2.79723e-26 0 1.023e-25 0 3.20465e-25 0 8.89634e-25 0 2.2103e-24 0 5.14772e-24 0 1.08777e-23 0 2.17618e-23 0 4.13505e-23 0 7.61451e-23 0 1.31571e-22 0 2.2497e-22 0 3.62594e-22 0
14.3051 1.44556e-07 9.52666e-08 4.92894e-08 0.340971 0.026192 1.17345e-41 0 1.03825e-36 0 2.48965e-32 0 5.09742e-30 0 1.8141e-28 0 2.54105e-27 0 2.01386e-26 0 1.12727e-25 0 4.76363e-25 0 1.63528e-24 0 4.84489e-24 0 1.27957e-23 0 3.04093e-23 0 6.79585e-23 0 1.38453e-22 0 2.67766e-22 0 4.93095e-22 0 8.81346e-22 0 1.48275e-21 0 2.46978e-21 0 3.88896e-21 0
