# 5.9642e-06 2 49 : grain size, compostion index, size index
# Heating and cooling timescale: 1.97636 566499
# Ratio of heating to cooling to determine stochastic cutoff: 100
# Equilibrium emission is recorded even for those grains in the stochastic regime.
# Emission spectrum was computed for: 
# Type: ISRF
# Scales: 0.25 0.5 1 1.5 2 2.5 3 3.5 4 4.5 5 5.5 6 6.5 7 7.5 8 8.5 9 9.5 10
# StochasticallyHeated: 0 0 0 0 0 0 0 0 0 0 0 0 0 0 0 0 0 0 0 0 0
# Temperature: -1
# Wavelength  CExt  CAbs  CSca  Albedo G EqEm1 StEm1 EqEm2 StEm2 EqEm3 StEm3 EqEm4 StEm4 EqEm5 StEm5 EqEm6 StEm6 EqEm7 StEm7 EqEm8 StEm8 EqEm9 StEm9 EqEm10 StEm10 EqEm11 StEm11 EqEm12 StEm12 EqEm13 StEm13 EqEm14 StEm14 EqEm15 StEm15 EqEm16 StEm16 EqEm17 StEm17 EqEm18 StEm18 EqEm19 StEm19 EqEm20 StEm20 EqEm21 StEm21
0.05 2.29305e-10 1.13497e-10 1.15808e-10 0.50504 0.897642 0 0 0 0 0 0 0 0 0 0 0 0 0 0 0 0 0 0 0 0 0 0 0 0 0 0 0 0 0 0 0 0 0 0 0 0 0 0 0 0 0 0
0.0525665 2.3184e-10 1.1462e-10 1.1722e-10 0.505608 0.889595 0 0 0 0 0 0 0 0 0 0 0 0 0 0 0 0 0 0 0 0 0 0 0 0 0 0 0 0 0 0 0 0 0 0 0 0 0 0 0 0 0 0
0.0552647 2.35151e-10 1.15217e-10 1.19933e-10 0.510028 0.878696 0 0 0 0 0 0 0 0 0 0 0 0 0 0 0 0 0 0 0 0 0 0 0 0 0 0 0 0 0 0 0 0 0 0 0 0 0 0 0 0 0 0
0.0581015 2.40577e-10 1.15929e-10 1.24649e-10 0.518122 0.863387 0 0 0 0 0 0 0 0 0 0 0 0 0 0 0 0 0 0 0 0 0 0 0 0 0 0 0 0 0 0 0 0 0 0 0 0 0 0 0 0 0 0
0.0610839 2.48045e-10 1.18023e-10 1.30022e-10 0.524187 0.846762 0 0 0 0 0 0 0 0 0 0 0 0 0 0 0 0 0 0 0 0 0 0 0 0 0 0 0 0 0 0 0 0 0 0 0 0 0 0 0 0 0 0
0.0642193 2.56059e-10 1.21557e-10 1.34502e-10 0.525276 0.83294 0 0 0 0 0 0 0 0 0 0 0 0 0 0 0 0 0 0 0 0 0 0 0 0 0 0 0 0 0 0 0 0 0 0 0 0 0 0 0 0 0 0
0.0675157 2.63859e-10 1.2593e-10 1.37929e-10 0.522738 0.822488 0 0 0 0 0 0 0 0 0 0 0 0 0 0 0 0 0 0 0 0 0 0 0 0 0 0 0 0 0 0 0 0 0 0 0 0 0 0 0 0 0 0
0.0709813 2.71101e-10 1.30662e-10 1.4044e-10 0.518034 0.814769 0 0 0 0 0 0 0 0 0 0 0 0 0 0 0 0 0 0 0 0 0 0 0 0 0 0 0 0 0 0 0 0 0 0 0 0 0 0 0 0 0 0
0.0746248 2.77469e-10 1.35363e-10 1.42106e-10 0.51215 0.809159 0 0 0 0 0 0 0 0 0 0 0 0 0 0 0 0 0 0 0 0 0 0 0 0 0 0 0 0 0 0 0 0 0 0 0 0 0 0 0 0 0 0
0.0784553 2.82499e-10 1.39826e-10 1.42673e-10 0.50504 0.805891 0 0 0 0 0 0 0 0 0 0 0 0 0 0 0 0 0 0 0 0 0 0 0 0 0 0 0 0 0 0 0 0 0 0 0 0 0 0 0 0 0 0
0.0824824 2.85729e-10 1.44143e-10 1.41587e-10 0.495527 0.806118 0 0 0 0 0 0 0 0 0 0 0 0 0 0 0 0 0 0 0 0 0 0 0 0 0 0 0 0 0 0 0 0 0 0 0 0 0 0 0 0 0 0
0.0867162 2.86767e-10 1.4656e-10 1.40207e-10 0.488923 0.803456 0 0 0 0 0 0 0 0 0 0 0 0 0 0 0 0 0 0 0 0 0 0 0 0 0 0 0 0 0 0 0 0 0 0 0 0 0 0 0 0 0 0
0.0911674 2.91186e-10 1.48587e-10 1.42598e-10 0.489716 0.792557 0 0 0 0 0 0 0 0 0 0 0 0 0 0 0 0 0 0 0 0 0 0 0 0 0 0 0 0 0 0 0 0 0 0 0 0 0 0 0 0 0 0
0.095847 2.96187e-10 1.51405e-10 1.44782e-10 0.488818 0.783982 0 0 0 0 0 0 0 0 0 0 0 0 0 0 0 0 0 0 0 0 0 0 0 0 0 0 0 0 0 0 0 0 0 0 0 0 0 0 0 0 0 0
0.100767 3.00128e-10 1.54278e-10 1.4585e-10 0.485958 0.77727 0 0 0 0 0 0 0 0 0 0 0 0 0 0 0 0 0 0 0 0 0 0 0 0 0 0 0 0 0 0 0 0 0 0 0 0 0 0 0 0 0 0
0.105939 3.03258e-10 1.57576e-10 1.45682e-10 0.480389 0.773066 0 0 0 0 0 0 0 0 0 0 0 0 0 0 0 0 0 0 0 0 0 0 0 0 0 0 0 0 0 0 0 0 0 0 0 0 0 0 0 0 0 0
0.111377 3.05762e-10 1.60579e-10 1.45183e-10 0.474824 0.768585 0 0 0 0 0 0 0 0 0 0 0 0 0 0 0 0 0 0 0 0 0 0 0 0 0 0 0 0 0 0 0 0 0 0 0 0 0 0 0 0 0 0
0.117094 3.09051e-10 1.63339e-10 1.45712e-10 0.471483 0.762081 0 0 0 0 0 0 0 0 0 0 0 0 0 0 0 0 0 0 0 0 0 0 0 0 0 0 0 0 0 0 0 0 0 0 0 0 0 0 0 0 0 0
0.123105 3.13626e-10 1.66479e-10 1.47147e-10 0.469181 0.755203 0 0 0 0 0 0 0 0 0 0 0 0 0 0 0 0 0 0 0 0 0 0 0 0 0 0 0 0 0 0 0 0 0 0 0 0 0 0 0 0 0 0
0.129424 3.1936e-10 1.70089e-10 1.49271e-10 0.467406 0.747537 0 0 0 0 0 0 0 0 0 0 0 0 0 0 0 0 0 0 0 0 0 0 0 0 0 0 0 0 0 0 0 0 0 0 0 0 0 0 0 0 0 0
0.136067 3.25361e-10 1.73519e-10 1.51843e-10 0.46669 0.736483 0 0 0 0 0 0 0 0 0 0 0 0 0 0 0 0 0 0 0 0 0 0 0 0 0 0 0 0 0 0 0 0 0 0 0 0 0 0 0 0 0 0
0.143051 3.30967e-10 1.76182e-10 1.54785e-10 0.467676 0.718133 0 0 0 0 0 0 0 0 0 0 0 0 0 0 0 0 0 0 0 0 0 0 0 0 0 0 0 0 0 0 0 0 0 0 0 0 0 0 0 0 0 0
0.150394 3.41121e-10 1.7798e-10 1.6314e-10 0.478249 0.687082 0 0 0 0 0 0 0 0 0 0 0 0 0 0 0 0 0 0 0 0 0 0 0 0 0 0 0 0 0 0 0 0 0 0 0 0 0 0 0 0 0 0
0.158114 3.66866e-10 1.70721e-10 1.96146e-10 0.534652 0.638749 0 0 0 0 0 0 0 0 0 0 0 0 0 0 0 0 0 0 0 0 0 0 0 0 0 0 0 0 0 0 0 0 0 0 0 0 0 0 0 0 0 0
0.16623 4.18009e-10 1.52025e-10 2.65984e-10 0.636312 0.625801 0 0 0 0 0 0 0 0 0 0 0 0 0 0 0 0 0 0 0 0 0 0 0 0 0 0 0 0 0 0 0 0 0 0 0 0 0 0 0 0 0 0
0.174762 4.81248e-10 1.40536e-10 3.40712e-10 0.707976 0.646763 0 0 0 0 0 0 0 0 0 0 0 0 0 0 0 0 0 0 0 0 0 0 0 0 0 0 0 0 0 0 0 0 0 0 0 0 0 0 0 0 0 0
0.183733 4.79142e-10 1.09135e-10 3.70007e-10 0.772228 0.613912 0 0 0 0 0 0 0 0 0 0 0 0 0 0 0 0 0 0 0 0 0 0 0 0 0 0 0 0 0 0 0 0 0 0 0 0 0 0 0 0 0 0
0.193164 4.10744e-10 6.23282e-11 3.48415e-10 0.848255 0.54337 0 0 0 0 0 0 0 0 0 0 0 0 0 0 0 0 0 0 0 0 0 0 0 0 0 0 0 0 0 0 0 0 0 0 0 0 0 0 0 0 0 0
0.203079 3.83345e-10 3.94139e-11 3.43931e-10 0.897184 0.508806 0 0 0 0 0 0 0 0 0 0 0 0 0 0 0 0 0 0 0 0 0 0 0 0 0 0 0 0 0 0 0 0 0 0 0 0 0 0 0 0 0 0
0.213503 3.78622e-10 3.13034e-11 3.47319e-10 0.917323 0.513752 0 0 0 0 0 0 0 0 0 0 0 0 0 0 0 0 0 0 0 0 0 0 0 0 0 0 0 0 0 0 0 0 0 0 0 0 0 0 0 0 0 0
0.224463 3.61099e-10 2.94968e-11 3.31602e-10 0.918314 0.544516 0 0 0 0 0 0 0 0 0 0 0 0 0 0 0 0 0 0 0 0 0 0 0 0 0 0 0 0 0 0 0 0 0 0 0 0 0 0 0 0 0 0
0.235984 3.12279e-10 2.8536e-11 2.83743e-10 0.90862 0.574409 0 0 0 0 0 0 0 0 0 0 0 0 0 0 0 0 0 0 0 0 0 0 0 0 0 0 0 0 0 0 0 0 0 0 0 0 0 0 0 0 0 0
0.248097 2.51785e-10 2.60333e-11 2.25752e-10 0.896605 0.577633 0 0 0 0 0 0 0 0 0 0 0 0 0 0 0 0 0 0 0 0 0 0 0 0 0 0 0 0 0 0 0 0 0 0 0 0 0 0 0 0 0 0
0.260832 2.00259e-10 2.22657e-11 1.77993e-10 0.888816 0.548398 0 0 0 0 0 0 0 0 0 0 0 0 0 0 0 0 0 0 0 0 0 0 0 0 0 0 0 0 0 0 0 0 0 0 0 0 0 0 0 0 0 0
0.274221 1.62246e-10 1.88861e-11 1.4336e-10 0.883596 0.497723 0 0 0 0 0 0 0 0 0 0 0 0 0 0 0 0 0 0 0 0 0 0 0 0 0 0 0 0 0 0 0 0 0 0 0 0 0 0 0 0 0 0
0.288297 1.34563e-10 1.62937e-11 1.1827e-10 0.878914 0.440564 0 0 0 0 0 0 0 0 0 0 0 0 0 0 0 0 0 0 0 0 0 0 0 0 0 0 0 0 0 0 0 0 0 0 0 0 0 0 0 0 0 0
0.303095 1.13209e-10 1.43501e-11 9.88591e-11 0.873243 0.386256 0 0 0 0 0 0 0 0 0 0 0 0 0 0 0 0 0 0 0 0 0 0 0 0 0 0 0 0 0 0 0 0 0 0 0 0 0 0 0 0 0 0
0.318653 9.5786e-11 1.28405e-11 8.29455e-11 0.865946 0.338223 0 0 0 0 0 0 0 0 0 0 0 0 0 0 0 0 0 0 0 0 0 0 0 0 0 0 0 0 0 0 0 0 0 0 0 0 0 0 0 0 0 0
0.335009 8.11527e-11 1.16254e-11 6.95273e-11 0.856746 0.297115 0 0 0 0 0 0 0 0 0 0 0 0 0 0 0 0 0 0 0 0 0 0 0 0 0 0 0 0 0 0 0 0 0 0 0 0 0 0 0 0 0 0
0.352205 6.86482e-11 1.06079e-11 5.80402e-11 0.845474 0.262175 0 0 0 0 0 0 0 0 0 0 0 0 0 0 0 0 0 0 0 0 0 0 0 0 0 0 0 0 0 0 0 0 0 0 0 0 0 0 0 0 0 0
0.370284 5.79286e-11 9.72438e-12 4.82042e-11 0.832132 0.232367 0 0 0 0 0 0 0 0 0 0 0 0 0 0 0 0 0 0 0 0 0 0 0 0 0 0 0 0 0 0 0 0 0 0 0 0 0 0 0 0 0 0
0.389291 4.88075e-11 8.94511e-12 3.98624e-11 0.816727 0.20681 0 0 0 0 0 0 0 0 0 0 0 0 0 0 0 0 0 0 0 0 0 0 0 0 0 0 0 0 0 0 0 0 0 0 0 0 0 0 0 0 0 0
0.409273 4.10941e-11 8.2438e-12 3.28503e-11 0.799392 0.18477 0 0 0 0 0 0 0 0 0 0 0 0 0 0 0 0 0 0 0 0 0 0 0 0 0 0 0 0 0 0 0 0 0 0 0 0 0 0 0 0 0 0
0.430281 3.45709e-11 7.6069e-12 2.6964e-11 0.779962 0.165535 0 0 0 0 0 0 0 0 0 0 0 0 0 0 0 0 0 0 0 0 0 0 0 0 0 0 0 0 0 0 0 0 0 0 0 0 0 0 0 0 0 0
0.452368 2.91202e-11 7.0308e-12 2.20894e-11 0.75856 0.14867 0 0 0 0 0 0 0 0 0 0 0 0 0 0 0 0 0 0 0 0 0 0 0 0 0 0 0 0 0 0 0 0 0 0 0 0 0 0 0 0 0 0
0.475588 2.45618e-11 6.50654e-12 1.80553e-11 0.735095 0.133769 0 0 0 0 0 0 0 0 0 0 0 0 0 0 0 0 0 0 0 0 0 0 0 0 0 0 0 0 0 0 0 0 0 0 0 0 0 0 0 0 0 0
0.5 2.07761e-11 6.03187e-12 1.47442e-11 0.709673 0.120567 0 0 0 0 0 0 0 0 0 0 0 0 0 0 0 0 0 0 0 0 0 0 0 0 0 0 0 0 0 0 0 0 0 0 0 0 0 0 0 0 0 0
0.525665 1.7625e-11 5.60058e-12 1.20244e-11 0.682237 0.108784 0 0 0 0 0 0 0 0 0 0 0 0 0 0 0 0 0 0 0 0 0 0 0 0 0 0 0 0 0 0 0 0 0 0 0 0 0 0 0 0 0 0
0.552648 1.50015e-11 5.20842e-12 9.79311e-12 0.652808 0.0982259 0 0 0 0 0 0 0 0 0 0 0 0 0 0 0 0 0 0 0 0 0 0 0 0 0 0 0 0 0 0 0 0 0 0 0 0 0 0 0 0 0 0
0.581015 1.28366e-11 4.85002e-12 7.98661e-12 0.622173 0.0887888 0 0 0 0 0 0 0 0 0 0 0 0 0 0 0 0 0 0 0 0 0 0 0 0 0 0 0 0 0 0 0 0 0 0 0 0 0 0 0 0 0 0
0.610839 1.10345e-11 4.52379e-12 6.51075e-12 0.590034 0.0803006 0 0 0 0 0 0 0 0 0 0 0 0 0 0 0 0 0 0 0 0 0 0 0 0 0 0 0 0 0 0 0 0 0 0 0 0 0 0 0 0 0 0
0.642193 9.52999e-12 4.22605e-12 5.30394e-12 0.556553 0.0726422 0 0 0 0 0 0 0 0 0 0 0 0 0 0 0 0 0 0 0 0 0 0 0 0 0 0 0 0 0 0 0 0 0 0 0 0 0 0 0 0 0 0
0.675157 8.27554e-12 3.95445e-12 4.32108e-12 0.522151 0.0657325 0 0 0 0 0 0 0 0 0 0 0 0 0 0 0 0 0 0 0 0 0 0 0 0 0 0 0 0 0 0 0 0 0 0 0 0 0 0 0 0 0 0
0.709813 7.23056e-12 3.7068e-12 3.52377e-12 0.487343 0.0595061 0 0 0 0 0 0 0 0 0 0 0 0 0 0 0 0 0 0 0 0 0 0 0 0 0 0 0 0 0 0 0 0 0 0 0 0 0 0 0 0 0 0
0.746248 6.35328e-12 3.47995e-12 2.87333e-12 0.452259 0.0538744 0 0 0 0 0 0 0 0 0 0 0 0 0 0 0 0 0 0 0 0 0 0 0 0 0 0 0 0 0 0 0 0 0 0 0 0 0 0 0 0 0 0
0.784553 5.6138e-12 3.27144e-12 2.34237e-12 0.417251 0.0487749 0 0 0 0 0 0 0 0 0 0 0 0 0 0 0 0 0 0 0 0 0 0 0 0 0 0 0 0 0 0 0 0 0 0 0 0 0 0 0 0 0 0
0.824824 4.98864e-12 3.07812e-12 1.91052e-12 0.382974 0.0441633 0 0 0 0 0 0 0 0 0 0 0 0 0 0 0 0 0 0 0 0 0 0 0 0 0 0 0 0 0 0 0 0 0 0 0 0 0 0 0 0 0 0
0.867162 4.45908e-12 2.89923e-12 1.55985e-12 0.349814 0.0399971 0 0 0 0 0 0 0 0 0 0 0 0 0 0 0 0 0 0 0 0 0 0 0 0 0 0 0 0 0 0 0 0 0 0 0 0 0 0 0 0 0 0
0.911674 4.00689e-12 2.73345e-12 1.27344e-12 0.317812 0.0362211 0 0 0 0 0 0 0 0 0 0 0 0 0 0 0 0 0 0 0 0 0 0 0 0 0 0 0 0 0 0 0 0 0 0 0 0 0 0 0 0 0 0
0.95847 3.61857e-12 2.57891e-12 1.03966e-12 0.287313 0.0327994 0 0 0 0 0 0 0 0 0 0 0 0 0 0 0 0 0 0 0 0 0 0 0 0 0 0 0 0 0 0 0 0 0 0 0 0 0 0 0 0 0 0
1.00767 3.28497e-12 2.43582e-12 8.49149e-13 0.258495 0.0297021 0 0 0 0 0 0 0 0 0 0 0 0 0 0 0 0 0 0 0 0 0 0 0 0 0 0 0 0 0 0 0 0 0 0 0 0 0 0 0 0 0 0
1.05939 2.99733e-12 2.30361e-12 6.93721e-13 0.231446 0.0268972 0 0 0 0 0 0 0 0 0 0 0 0 0 0 0 0 0 0 0 0 0 0 0 0 0 0 0 0 0 0 0 0 0 0 0 0 0 0 0 0 0 0
1.11377 2.74717e-12 2.1805e-12 5.6667e-13 0.206274 0.0243541 0 0 0 0 0 0 0 0 0 0 0 0 0 0 0 0 0 0 0 0 0 0 0 0 0 0 0 0 0 0 0 0 0 0 0 0 0 0 0 0 0 0
1.17094 2.52802e-12 2.06525e-12 4.62765e-13 0.183054 0.0220482 0 0 0 0 0 0 0 0 0 0 0 0 0 0 0 0 0 0 0 0 0 0 0 0 0 0 0 0 0 0 0 0 0 0 0 0 0 0 0 0 0 0
1.23105 2.33584e-12 1.95768e-12 3.78159e-13 0.161894 0.0199626 0 0 0 0 0 0 0 0 0 0 0 0 0 0 0 0 0 0 0 0 0 0 0 0 0 0 0 0 0 0 0 0 0 0 0 0 0 0 0 0 0 0
1.29424 2.17061e-12 1.86166e-12 3.08944e-13 0.142331 0.0180718 0 0 0 0 0 0 0 0 0 0 0 0 0 0 0 0 0 0 0 0 0 0 0 0 0 0 0 0 0 0 0 0 0 0 0 0 0 0 0 0 0 0
1.36067 2.02541e-12 1.77288e-12 2.52532e-13 0.124682 0.0163603 0 0 0 0 0 0 0 0 0 0 0 0 0 0 0 0 0 0 0 0 0 0 0 0 0 0 0 0 0 0 0 0 0 0 0 0 0 0 0 0 0 0
1.43051 1.89586e-12 1.68958e-12 2.06287e-13 0.108809 0.0148077 0 0 0 0 0 0 0 0 0 0 0 0 0 0 0 0 0 0 0 0 0 0 0 0 0 0 0 0 0 0 0 0 0 0 0 0 0 0 0 0 0 0
1.50394 1.78007e-12 1.61142e-12 1.68652e-13 0.0947445 0.0134044 0 0 0 0 0 0 0 0 0 0 0 0 0 0 0 0 0 0 0 0 0 0 0 0 0 0 0 0 0 0 0 0 0 0 0 0 0 0 0 0 0 0
1.58114 1.67541e-12 1.53756e-12 1.37857e-13 0.0822821 0.0121326 0 0 0 0 0 0 0 0 0 0 0 0 0 0 0 0 0 0 0 0 0 0 0 0 0 0 0 0 0 0 0 0 0 0 0 0 0 0 0 0 0 0
1.6623 1.58019e-12 1.4676e-12 1.126e-13 0.0712569 0.0109788 0 0 0 0 0 0 0 0 0 0 0 0 0 0 0 0 0 0 0 0 0 0 0 0 0 0 0 0 0 0 0 0 0 0 0 0 0 0 0 0 0 0
1.74763 1.49436e-12 1.40236e-12 9.20005e-14 0.061565 0.00993508 0 0 0 0 0 0 0 0 0 0 0 0 0 0 0 0 0 0 0 0 0 0 0 0 0 0 0 0 0 0 0 0 0 0 0 0 0 0 0 0 0 0
1.83733 1.41835e-12 1.34319e-12 7.51592e-14 0.0529907 0.00898994 0 0 0 0 0 0 0 0 0 0 0 0 0 0 0 0 0 0 0 0 0 0 0 0 0 0 0 0 0 0 0 0 0 0 0 0 0 0 0 0 0 0
1.93164 1.3497e-12 1.28832e-12 6.13789e-14 0.0454761 0.00813349 0 0 0 0 0 0 0 0 0 0 0 0 0 0 0 0 0 0 0 0 0 0 0 0 0 0 0 0 0 0 0 0 0 0 0 0 0 0 0 0 0 0
2.03079 1.28703e-12 1.23691e-12 5.01212e-14 0.0389433 0.00735802 0 0 0 0 0 0 0 0 0 0 0 0 0 0 0 0 0 0 0 0 0 0 0 0 0 0 0 0 0 0 0 0 0 0 0 0 0 0 0 0 0 0
2.13503 1.2295e-12 1.18856e-12 4.09324e-14 0.033292 0.00665666 0 0 0 0 0 0 0 0 0 0 0 0 0 0 0 0 0 0 0 0 0 0 0 0 0 0 0 0 0 0 0 0 0 0 0 0 0 0 0 0 0 0
2.24463 1.1772e-12 1.14379e-12 3.34088e-14 0.0283799 0.00602108 0 0 0 0 0 0 0 0 0 0 0 0 0 0 0 0 0 0 0 0 0 0 0 0 0 0 0 0 0 0 0 0 0 0 0 0 0 0 0 0 0 0
2.35984 1.12856e-12 1.1013e-12 2.72558e-14 0.024151 0.00544534 0 0 0 0 0 0 0 0 0 0 0 0 0 0 0 0 0 0 0 0 0 0 0 0 0 0 0 0 0 0 0 0 0 0 0 0 0 0 0 0 0 0
2.48097 1.08357e-12 1.06136e-12 2.22155e-14 0.0205021 0.00492351 0 0 0 0 0 0 0 0 0 0 0 0 0 0 0 0 0 0 0 0 0 0 0 0 0 0 0 0 0 0 0 0 0 0 0 0 0 0 0 0 0 0
2.60832 1.04269e-12 1.02457e-12 1.81138e-14 0.0173723 0.00445206 0 0 0 0 0 0 0 0 0 0 0 0 0 0 0 0 0 0 0 0 0 0 0 0 0 0 0 0 0 0 0 0 0 0 0 0 0 0 0 0 0 0
2.74221 1.00458e-12 9.89822e-13 1.47626e-14 0.0146953 0.00402518 0 0 0 0 0 0 0 0 0 0 0 0 0 0 0 0 0 0 0 0 0 0 0 0 0 0 0 0 0 0 0 0 0 0 0 0 0 0 0 0 0 0
2.88297 9.69691e-13 9.5768e-13 1.20113e-14 0.0123867 0.00363774 0 0 0 0 0 0 0 0 0 0 0 0 0 0 0 0 0 0 0 0 0 0 0 0 0 0 0 0 0 0 0 0 0 0 0 0 0 0 0 0 0 0
3.03095 9.37201e-13 9.2743e-13 9.77148e-15 0.0104262 0.00328754 0 0 0 0 0 0 0 0 0 0 0 0 0 0 0 0 0 0 0 0 0 0 0 0 0 0 0 0 0 0 0 0 0 0 0 0 0 0 0 0 0 0
3.18653 9.08989e-13 9.01043e-13 7.94568e-15 0.00874123 0.00297073 0 0 0 0 0 0 0 0 0 0 0 0 0 0 0 0 0 0 0 0 0 0 0 0 0 0 0 0 0 0 0 0 0 0 0 0 0 0 0 0 0 0
3.35009 8.82634e-13 8.76181e-13 6.45269e-15 0.00731073 0.00268362 0 0 0 0 0 0 0 0 0 0 0 0 0 0 0 0 0 0 0 0 0 0 0 0 0 0 0 0 0 0 0 0 0 0 0 0 0 0 0 0 0 0
3.52205 8.5463e-13 8.49399e-13 5.23107e-15 0.00612085 0.00242333 0 0 0 0 0 0 0 0 0 0 0 0 0 0 0 0 0 0 0 0 0 0 0 0 0 0 0 0 0 0 0 0 0 0 0 0 0 0 0 0 0 0
3.70284 8.27364e-13 8.23126e-13 4.23831e-15 0.00512267 0.00218815 0 0 0 0 0 0 0 0 0 0 0 0 0 0 0 0 0 0 0 0 0 0 0 0 0 0 0 0 0 0 0 0 0 0 0 0 0 0 0 0 0 0
3.89291 8.01235e-13 7.97808e-13 3.42716e-15 0.00427735 0.00197497 0 0 0 0 0 0 0 0 0 0 0 0 0 0 0 0 0 0 0 0 0 0 0 0 0 0 0 0 0 0 0 0 0 0 0 0 0 0 0 0 0 0
4.09273 7.76641e-13 7.73877e-13 2.76379e-15 0.00355865 0.00178156 0 0 0 0 0 0 0 0 0 0 0 0 0 0 0 0 0 0 0 0 0 0 0 0 0 0 0 0 0 0 0 0 0 0 0 0 0 0 0 0 0 0
4.30281 7.51149e-13 7.48926e-13 2.22256e-15 0.00295888 0.00160626 0 0 0 0 0 0 0 0 0 0 0 0 0 0 0 0 0 0 0 0 0 0 0 0 0 0 0 0 0 0 0 0 0 0 0 0 0 0 0 0 0 0
4.52368 7.2777e-13 7.25987e-13 1.78258e-15 0.00244937 0.00144757 0 0 0 0 0 0 0 0 0 0 0 0 0 0 0 0 0 0 0 0 0 0 0 0 0 0 0 0 0 0 0 0 0 0 0 0 0 0 0 0 0 0
4.75588 7.07512e-13 7.06088e-13 1.42379e-15 0.00201239 0.00130357 0 0 0 0 0 0 0 0 0 0 0 0 0 0 0 0 0 0 0 0 0 0 0 0 0 0 0 0 0 0 0 0 0 0 0 0 0 0 0 0 0 0
5 6.92235e-13 6.91105e-13 1.13017e-15 0.00163264 0.0011726 0 0 0 0 0 0 0 0 0 0 0 0 0 0 0 0 0 0 0 0 0 0 0 0 0 0 0 0 0 0 0 0 0 0 0 0 0 0 0 0 0 0
5.25665 6.83739e-13 6.82848e-13 8.91371e-16 0.00130367 0.00105372 0 0 0 0 0 0 0 0 0 0 0 0 0 0 0 0 0 0 0 0 0 0 0 0 0 0 0 0 0 0 0 0 0 0 0 0 0 0 0 0 0 0
5.52648 6.81073e-13 6.80375e-13 6.9835e-16 0.00102537 0.000945976 0 0 0 0 0 0 0 0 0 0 0 0 0 0 0 0 0 0 0 0 0 0 0 0 0 0 0 0 0 0 0 0 0 0 0 0 0 0 0 0 0 0
5.81015 6.87603e-13 6.87062e-13 5.40597e-16 0.000786206 0.000847729 0 0 0 0 0 0 0 0 0 0 0 0 0 0 0 0 0 0 0 0 0 0 0 0 0 0 0 0 0 0 0 0 0 0 0 0 0 0 0 0 0 0
6.10839 7.00391e-13 6.99978e-13 4.13137e-16 0.000589866 0.00075842 0 0 0 0 0 0 0 0 0 0 0 0 0 0 0 0 0 0 0 0 0 0 0 0 0 0 0 0 0 0 0 0 0 0 1.4013e-45 0 1.4013e-45 0 5.60519e-45 0 1.12104e-44 0
6.42193 7.10457e-13 7.10147e-13 3.10009e-16 0.000436351 0.000677152 0 0 0 0 0 0 0 0 0 0 0 0 0 0 0 0 0 0 0 0 0 0 0 0 0 0 1.4013e-45 0 4.2039e-45 0 1.26117e-44 0 3.50325e-44 0 9.10844e-44 0 2.22806e-43 0 5.25487e-43 0 1.16448e-42 0
6.75157 7.12005e-13 7.11781e-13 2.24009e-16 0.000314617 0.000602096 0 0 0 0 0 0 0 0 0 0 0 0 0 0 0 0 0 0 0 0 1.4013e-45 0 8.40779e-45 0 3.50325e-44 0 1.26117e-43 0 4.07778e-43 0 1.1911e-42 0 3.17534e-42 0 7.92434e-42 0 1.85798e-41 0 4.19647e-41 0 8.94953e-41 0
7.09813 7.2312e-13 7.2297e-13 1.49999e-16 0.000207433 0.000531445 0 0 0 0 0 0 0 0 0 0 0 0 0 0 0 0 5.60519e-45 0 3.78351e-44 0 1.97583e-43 0 8.54792e-43 0 3.20757e-42 0 1.08152e-41 0 3.29838e-41 0 9.15468e-41 0 2.32529e-40 0 5.54931e-40 0 1.24818e-39 0 2.70913e-39 0 5.56786e-39 0
7.46248 8.90606e-13 8.90521e-13 8.45051e-17 9.4885e-05 0.000462591 0 0 0 0 0 0 0 0 0 0 0 0 7.00649e-45 0 8.26766e-44 0 6.71222e-43 0 4.06797e-42 0 1.98914e-41 0 8.00113e-41 0 2.81507e-40 0 8.94377e-40 0 2.58296e-39 0 6.82062e-39 0 1.65536e-38 0 3.78626e-38 0 8.18579e-38 0 1.71073e-37 0 3.39441e-37 0
7.84553 1.73014e-12 1.7301e-12 4.2226e-17 2.44061e-05 0.000397018 0 0 0 0 0 0 0 0 1.4013e-45 0 7.56701e-44 0 1.30321e-42 0 1.37033e-41 0 1.00163e-40 0 5.55402e-40 0 2.51325e-39 0 9.44506e-39 0 3.12515e-38 0 9.38406e-38 0 2.57335e-37 0 6.48061e-37 0 1.5062e-36 0 3.3087e-36 0 6.88905e-36 0 1.38883e-35 0 2.66505e-35 0
8.24824 3.59824e-12 3.59818e-12 5.15936e-17 1.43386e-05 0.000341214 0 0 0 0 0 0 4.2039e-45 0 4.316e-43 0 1.35926e-41 0 2.05381e-40 0 1.92594e-39 0 1.2775e-38 0 6.51537e-38 0 2.73877e-37 0 9.64836e-37 0 3.01125e-36 0 8.56945e-36 0 2.23703e-35 0 5.38522e-35 0 1.20112e-34 0 2.53908e-34 0 5.10067e-34 0 9.93691e-34 0 1.84708e-33 0
8.67162 5.49163e-12 5.49153e-12 9.28056e-17 1.68995e-05 0.000297067 0 0 0 0 1.4013e-45 0 6.82432e-43 0 5.39976e-41 0 1.43596e-39 0 1.90023e-38 0 1.59744e-37 0 9.66105e-37 0 4.55046e-36 0 1.7833e-35 0 5.90773e-35 0 1.74414e-34 0 4.71639e-34 0 1.17485e-33 0 2.70949e-33 0 5.81115e-33 0 1.18434e-32 0 2.29952e-32 0 4.33632e-32 0 7.82007e-32 0
9.11674 8.09687e-12 8.09669e-12 1.81e-16 2.23543e-05 0.000253171 0 0 0 0 1.58347e-43 0 8.13173e-41 0 5.19521e-39 0 1.17709e-37 0 1.37312e-36 0 1.04036e-35 0 5.76265e-35 0 2.51648e-34 0 9.22576e-34 0 2.8827e-33 0 8.07244e-33 0 2.07941e-32 0 4.95405e-32 0 1.09685e-31 0 2.26643e-31 0 4.4613e-31 0 8.38595e-31 0 1.53315e-30 0 2.68641e-30 0
9.5847 9.1135e-12 9.11324e-12 2.57568e-16 2.82622e-05 0.000226711 0 0 0 0 1.5546e-41 0 5.89405e-39 0 3.07386e-37 0 5.98031e-36 0 6.18774e-35 0 4.24687e-34 0 2.16376e-33 0 8.79274e-33 0 3.02542e-32 0 8.94181e-32 0 2.3812e-31 0 5.85691e-31 0 1.33746e-30 0 2.84848e-30 0 5.68094e-30 0 1.08188e-29 0 1.97191e-29 0 3.50048e-29 0 5.96789e-29 0
10.0767 8.16753e-12 8.16728e-12 2.47734e-16 3.03316e-05 0.000215294 0 0 2.38221e-44 0 9.6645e-40 0 2.74193e-37 0 1.17892e-35 0 1.9842e-34 0 1.83167e-33 0 1.1443e-32 0 5.38463e-32 0 2.04334e-31 0 6.61913e-31 0 1.8555e-30 0 4.71047e-30 0 1.1088e-29 0 2.43196e-29 0 4.99182e-29 0 9.62559e-29 0 1.77635e-28 0 3.14418e-28 0 5.42722e-28 0 9.01486e-28 0
10.5939 6.85277e-12 6.85255e-12 2.24653e-16 3.27828e-05 0.00021156 0 0 1.92118e-42 0 4.5175e-38 0 9.72784e-36 0 3.4809e-34 0 5.10425e-33 0 4.22733e-32 0 2.41496e-31 0 1.05362e-30 0 3.74621e-30 0 1.14586e-29 0 3.05446e-29 0 7.40939e-29 0 1.6727e-28 0 3.53076e-28 0 6.99717e-28 0 1.30668e-27 0 2.34032e-27 0 4.02854e-27 0 6.77087e-27 0 1.09715e-26 0
11.1377 5.38748e-12 5.3873e-12 1.77809e-16 3.30041e-05 0.000216827 2.8026e-45 0 1.11671e-40 0 1.60624e-36 0 2.66083e-34 0 7.99531e-33 0 1.02834e-31 0 7.68143e-31 0 4.03027e-30 0 1.63634e-29 0 5.46868e-29 0 1.58385e-28 0 4.02466e-28 0 9.34947e-28 0 2.02842e-27 0 4.12825e-27 0 7.91256e-27 0 1.43324e-26 0 2.49499e-26 0 4.1824e-26 0 6.85349e-26 0 1.08467e-25 0
11.7094 4.3017e-12 4.30156e-12 1.39726e-16 3.24816e-05 0.000218109 2.00386e-43 0 5.27792e-39 0 4.75696e-35 0 6.14022e-33 0 1.56261e-31 0 1.77415e-30 0 1.20132e-29 0 5.81302e-29 0 2.20409e-28 0 6.94472e-28 0 1.90958e-27 0 4.63637e-27 0 1.03363e-26 0 2.15929e-26 0 4.24475e-26 0 7.88149e-26 0 1.3868e-25 0 2.34969e-25 0 3.84071e-25 0 6.14365e-25 0 9.50776e-25 0
12.3105 3.35886e-12 3.35875e-12 1.07107e-16 3.1888e-05 0.000216988 1.23482e-41 0 1.97446e-37 0 1.14083e-33 0 1.16149e-31 0 2.52378e-30 0 2.54492e-29 0 1.56959e-28 0 7.03232e-28 0 2.49842e-27 0 7.44313e-27 0 1.94801e-26 0 4.52921e-26 0 9.70975e-26 0 1.95675e-25 0 3.72172e-25 0 6.70467e-25 0 1.14763e-24 0 1.89503e-24 0 3.02412e-24 0 4.72774e-24 0 7.16219e-24 0
12.9424 2.62118e-12 2.6211e-12 7.98097e-17 3.0448e-05 0.000207688 6.05694e-40 0 6.03719e-36 0 2.2853e-32 0 1.85656e-30 0 3.47109e-29 0 3.12671e-28 0 1.7645e-27 0 7.34743e-27 0 2.4537e-26 0 6.9305e-26 0 1.73061e-25 0 3.86136e-25 0 7.97547e-25 0 1.55319e-24 0 2.86287e-24 0 5.01134e-24 0 8.35567e-24 0 1.34636e-23 0 2.10007e-23 0 3.21228e-23 0 4.76868e-23 0
