# 1.70392e-07 1 15 : grain size, compostion index, size index
# Heating and cooling timescale: 15129.3 5.61626
# Ratio of heating to cooling to determine stochastic cutoff: 100
# Equilibrium emission is recorded even for those grains in the stochastic regime.
# Emission spectrum was computed for: 
# Type: IRSF
# Scales: 0.25 0.5 1 1.5 2 2.5 3 3.5 4 4.5 5 5.5 6 6.5 7 7.5 8 8.5 9 9.5 10
# StochasticallyHeated: 1 1 1 1 1 1 1 1 1 1 1 1 1 1 1 1 1 1 1 1 1
# Temperature: -1
# Wavelength  CExt  CAbs  CSca  Albedo G EqEm1 StEm1 EqEm2 StEm2 EqEm3 StEm3 EqEm4 StEm4 EqEm5 StEm5 EqEm6 StEm6 EqEm7 StEm7 EqEm8 StEm8 EqEm9 StEm9 EqEm10 StEm10 EqEm11 StEm11 EqEm12 StEm12 EqEm13 StEm13 EqEm14 StEm14 EqEm15 StEm15 EqEm16 StEm16 EqEm17 StEm17 EqEm18 StEm18 EqEm19 StEm19 EqEm20 StEm20 EqEm21 StEm21
0.05 2.06325e-14 2.05561e-14 7.64372e-17 0.0037047 0.00641664 0 0 0 0 0 0 0 0 0 0 0 0 0 0 0 0 0 0 0 0 0 0 0 0 0 0 0 0 0 0 0 0 0 0 0 0 0 0 0 0 0 0
0.0525665 2.38964e-14 2.38143e-14 8.20844e-17 0.00343501 0.00571449 0 0 0 0 0 0 0 0 0 0 0 0 0 0 0 0 0 0 0 0 0 0 0 0 0 0 0 0 0 0 0 0 0 0 0 0 0 0 0 0 0 0
0.0552647 2.75841e-14 2.74961e-14 8.80698e-17 0.00319277 0.00508682 0 0 0 0 0 0 0 0 0 0 0 0 0 0 0 0 0 0 0 0 0 0 0 0 0 0 0 0 0 0 0 0 0 0 0 0 0 0 0 0 0 0
0.0581015 3.13066e-14 3.12136e-14 9.30389e-17 0.00297186 0.00452508 0 0 0 0 0 0 0 0 0 0 0 0 0 0 0 0 0 0 0 0 0 0 0 0 0 0 0 0 0 0 0 0 0 0 0 0 0 0 0 0 0 0
0.0610839 3.55031e-14 3.5404e-14 9.91423e-17 0.0027925 0.00398421 0 0 0 0 0 0 0 0 0 0 0 0 0 0 0 0 0 0 0 0 0 0 0 0 0 0 0 0 0 0 0 0 0 0 0 0 0 0 0 0 0 0
0.0642193 4.1521e-14 4.14102e-14 1.1082e-16 0.00266901 0.00344591 0 0 0 0 0 0 0 0 0 0 0 0 0 0 0 0 0 0 0 0 0 0 0 0 0 0 0 0 0 0 0 0 0 0 0 0 0 0 0 0 0 0
0.0675157 5.07725e-14 5.06415e-14 1.30949e-16 0.00257913 0.00290255 0 0 0 0 0 0 0 0 0 0 0 0 0 0 0 0 0 0 0 0 0 0 0 0 0 0 0 0 0 0 0 0 0 0 0 0 0 0 0 0 0 0
0.0709813 5.67837e-14 5.66473e-14 1.36396e-16 0.00240203 0.00242914 0 0 0 0 0 0 0 0 0 0 0 0 0 0 0 0 0 0 0 0 0 0 0 0 0 0 0 0 0 0 0 0 0 0 0 0 0 0 0 0 0 0
0.0746248 5.4433e-14 5.43128e-14 1.20203e-16 0.00220828 0.00209025 0 0 0 0 0 0 0 0 0 0 0 0 0 0 0 0 0 0 0 0 0 0 0 0 0 0 0 0 0 0 0 0 0 0 0 0 0 0 0 0 0 0
0.0784553 4.66839e-14 4.65901e-14 9.38581e-17 0.0020105 0.00186471 0 0 0 0 0 0 0 0 0 0 0 0 0 0 0 0 0 0 0 0 0 0 0 0 0 0 0 0 0 0 0 0 0 0 0 0 0 0 0 0 0 0
0.0824824 3.75875e-14 3.75213e-14 6.61984e-17 0.00176118 0.00173916 0 0 0 0 0 0 0 0 0 0 0 0 0 0 0 0 0 0 0 0 0 0 0 0 0 0 0 0 0 0 0 0 0 0 0 0 0 0 0 0 0 0
0.0867162 3.28228e-14 3.27718e-14 5.09914e-17 0.00155354 0.00166658 0 0 0 0 0 0 0 0 0 0 0 0 0 0 0 0 0 0 0 0 0 0 0 0 0 0 0 0 0 0 0 0 0 0 0 0 0 0 0 0 0 0
0.0911674 2.8944e-14 2.89012e-14 4.28006e-17 0.00147874 0.00161525 0 0 0 0 0 0 0 0 0 0 0 0 0 0 0 0 0 0 0 0 0 0 0 0 0 0 0 0 0 0 0 0 0 0 0 0 0 0 0 0 0 0
0.095847 2.27631e-14 2.27291e-14 3.40153e-17 0.00149432 0.00170042 0 0 0 0 0 0 0 0 0 0 0 0 0 0 0 0 0 0 0 0 0 0 0 0 0 0 0 0 0 0 0 0 0 0 0 0 0 0 0 0 0 0
0.100767 1.57034e-14 1.56802e-14 2.32113e-17 0.0014781 0.00198378 0 0 0 0 0 0 0 0 0 0 0 0 0 0 0 0 0 0 0 0 0 0 0 0 0 0 0 0 0 0 0 0 0 0 0 0 0 0 0 0 0 0
0.105939 1.02994e-14 1.02833e-14 1.60762e-17 0.00156089 0.0021424 0 0 0 0 0 0 0 0 0 0 0 0 0 0 0 0 0 0 0 0 0 0 0 0 0 0 0 0 0 0 0 0 0 0 0 0 0 0 0 0 0 0
0.111377 6.2311e-15 6.22128e-15 9.81939e-18 0.00157587 0.00245268 0 0 0 0 0 0 0 0 0 0 0 0 0 0 0 0 0 0 0 0 0 0 0 0 0 0 0 0 0 0 0 0 0 0 0 0 0 0 0 0 0 0
0.117094 4.75358e-15 4.74747e-15 6.113e-18 0.00128598 0.00225093 0 0 0 0 0 0 0 0 0 0 0 0 0 0 0 0 0 0 0 0 0 0 0 0 0 0 0 0 0 0 0 0 0 0 0 0 0 0 0 0 0 0
0.123105 3.71699e-15 3.71301e-15 3.97929e-18 0.00107057 0.00193199 0 0 0 0 0 0 0 0 0 0 0 0 0 0 0 0 0 0 0 0 0 0 0 0 0 0 0 0 0 0 0 0 0 0 0 0 0 0 0 0 0 0
0.129424 3.11413e-15 3.11157e-15 2.55779e-18 0.00082135 0.00162502 0 0 0 0 0 0 0 0 0 0 0 0 0 0 0 0 0 0 0 0 0 0 0 0 0 0 0 0 0 0 0 0 0 0 0 0 0 0 0 0 0 0
0.136067 2.94617e-15 2.94451e-15 1.65621e-18 0.000562157 0.00137504 0 0 0 0 0 0 0 0 0 0 0 0 0 0 0 0 0 0 0 0 0 0 0 0 0 0 0 0 0 0 0 0 0 0 0 0 0 0 0 0 0 0
0.143051 3.0527e-15 3.05162e-15 1.0874e-18 0.000356207 0.00117308 0 0 0 0 0 0 0 0 0 0 0 0 0 0 0 0 0 0 0 0 0 0 0 0 0 0 0 0 0 0 0 0 0 0 0 0 0 0 0 0 0 0
0.150394 3.51907e-15 3.51833e-15 7.40506e-19 0.000210427 0.00100149 0 0 0 0 0 0 0 0 0 0 0 0 0 0 0 0 0 0 0 0 0 0 0 0 0 0 0 0 0 0 0 0 0 0 0 0 0 0 0 0 0 0
0.158114 4.26848e-15 4.26792e-15 5.5976e-19 0.000131138 0.00085771 0 0 0 0 0 0 0 0 0 0 0 0 0 0 0 0 0 0 0 0 0 0 0 0 0 0 0 0 0 0 0 0 0 0 0 0 0 0 0 0 0 0
0.16623 5.34339e-15 5.34287e-15 5.1675e-19 9.67083e-05 0.000737434 0 0 0 0 0 0 0 0 0 0 0 0 0 0 0 0 0 0 0 0 0 0 0 0 0 0 0 0 0 0 0 0 0 0 0 0 0 0 0 0 0 0
0.174762 6.99117e-15 6.99054e-15 6.22176e-19 8.89946e-05 0.000634149 0 0 0 0 0 0 0 0 0 0 0 0 0 0 0 0 0 0 0 0 0 0 0 0 0 0 0 0 0 0 0 0 0 0 0 0 0 0 0 0 0 0
0.183733 9.38213e-15 9.38124e-15 8.87895e-19 9.46369e-05 0.000540165 0 0 0 0 0 0 0 0 0 0 0 0 0 0 0 0 0 0 0 0 0 0 0 0 0 0 0 0 0 0 0 0 0 0 0 0 0 0 0 0 0 0
0.193164 1.3023e-14 1.30215e-14 1.41019e-18 0.000108285 0.000449535 0 0 0 0 0 0 0 0 0 0 0 0 0 0 0 0 0 0 0 0 0 0 0 0 0 0 0 0 0 0 0 0 0 0 0 0 0 0 0 0 0 0
0.203079 1.72251e-14 1.7223e-14 2.15407e-18 0.000125054 0.000360483 0 0 0 0 0 0 0 0 0 0 0 0 0 0 0 0 0 0 0 0 0 0 0 0 0 0 0 0 0 0 0 0 0 0 0 0 0 0 0 0 0 0
0.213503 1.86286e-14 1.86259e-14 2.64801e-18 0.000142148 0.000277237 0 0 0 0 0 0 0 0 0 0 0 0 0 0 0 0 0 0 0 0 0 0 0 0 0 0 0 0 0 0 0 0 0 0 0 0 0 0 0 0 0 0
0.224463 1.43259e-14 1.43237e-14 2.20287e-18 0.000153768 0.000205285 0 0 0 0 0 0 0 0 0 0 0 0 0 0 0 0 0 0 0 0 0 0 0 0 0 0 0 0 0 0 0 0 0 0 0 0 0 0 0 0 0 0
0.235984 9.76562e-15 9.76413e-15 1.49428e-18 0.000153015 0.000146545 0 0 0 0 0 0 0 0 0 0 0 0 0 0 0 0 0 0 0 0 0 0 0 0 0 0 0 0 0 0 0 0 0 0 0 0 0 0 0 0 0 0
0.248097 6.92891e-15 6.92794e-15 9.66709e-19 0.000139518 0.000112207 0 0 0 0 0 0 0 0 0 0 0 0 0 0 0 0 0 0 0 0 0 0 0 0 0 0 0 0 0 0 0 0 0 0 0 0 0 0 0 0 0 0
0.260832 5.47416e-15 5.47349e-15 6.63591e-19 0.000121222 0.00011659 0 0 0 0 0 0 0 0 0 0 0 0 0 0 0 0 0 0 0 0 0 0 0 0 0 0 0 0 0 0 0 0 0 0 0 0 0 0 0 0 0 0
0.274221 4.51626e-15 4.51578e-15 4.78466e-19 0.000105943 0.000155755 0 0 0 0 0 0 0 0 0 0 0 0 0 0 0 0 0 0 0 0 0 0 0 0 0 0 0 0 0 0 0 0 0 0 0 0 0 0 0 0 0 0
0.288297 3.90255e-15 3.9022e-15 3.56535e-19 9.13594e-05 0.000209044 0 0 0 0 0 0 0 0 0 0 0 0 0 0 0 0 0 0 0 0 0 0 0 0 0 0 0 0 0 0 0 0 0 0 0 0 0 0 0 0 0 0
0.303095 3.43193e-15 3.43165e-15 2.74695e-19 8.00411e-05 0.000234489 0 0 0 0 0 0 0 0 0 0 0 0 0 0 0 0 0 0 0 0 0 0 0 0 0 0 0 0 0 0 0 0 0 0 0 0 0 0 0 0 0 0
0.318653 3.0293e-15 3.02909e-15 2.13867e-19 7.05995e-05 0.000244748 0 0 0 0 0 0 0 0 0 0 0 0 0 0 0 0 0 0 0 0 0 0 0 0 0 0 0 0 0 0 0 0 0 0 0 0 0 0 0 0 0 0
0.335009 2.71575e-15 2.71558e-15 1.68435e-19 6.20214e-05 0.000240738 0 0 0 0 0 0 0 0 0 0 0 0 0 0 0 0 0 0 0 0 0 0 0 0 0 0 0 0 0 0 0 0 0 0 0 0 0 0 0 0 0 0
0.352205 2.4735e-15 2.47336e-15 1.34292e-19 5.42924e-05 0.000228465 0 0 0 0 0 0 0 0 0 0 0 0 0 0 0 0 0 0 0 0 0 0 0 0 0 0 0 0 0 0 0 0 0 0 0 0 0 0 0 0 0 0
0.370284 2.27112e-15 2.27101e-15 1.08019e-19 4.75621e-05 0.000213612 0 0 0 0 0 0 0 0 0 0 0 0 0 0 0 0 0 0 0 0 0 0 0 0 0 0 0 0 0 0 0 0 0 0 0 0 0 0 0 0 0 0
0.389291 2.0808e-15 2.08071e-15 8.7556e-20 4.2078e-05 0.00019917 0 0 0 0 0 0 0 0 0 0 0 0 0 0 0 0 0 0 0 0 0 0 0 0 0 0 0 0 0 0 0 0 0 0 0 0 0 0 0 0 0 0
0.409273 1.89892e-15 1.89885e-15 7.11817e-20 3.74853e-05 0.000185145 0 0 0 0 0 0 0 0 0 0 0 0 0 0 0 0 0 0 0 0 0 0 0 0 0 0 0 0 0 0 0 0 0 0 0 0 0 0 0 0 0 0
0.430281 1.72482e-15 1.72476e-15 5.79274e-20 3.35847e-05 0.000171819 0 0 0 0 0 0 0 0 0 0 0 0 0 0 0 0 0 0 0 0 0 0 0 0 0 0 0 0 0 0 0 0 0 0 0 0 0 0 0 0 0 0
0.452368 1.57504e-15 1.575e-15 4.71344e-20 2.99258e-05 0.00015805 0 0 0 0 0 0 0 0 0 0 0 0 0 0 0 0 0 0 0 0 0 0 0 0 0 0 0 0 0 0 0 0 0 0 0 0 0 0 0 0 0 0
0.475588 1.43946e-15 1.43942e-15 3.83779e-20 2.66614e-05 0.000144862 0 0 0 0 0 0 0 0 0 0 0 0 0 0 0 0 0 0 0 0 0 0 0 0 0 0 0 0 0 0 0 0 0 0 0 0 0 0 0 0 0 0
0.5 1.32473e-15 1.3247e-15 3.13307e-20 2.36507e-05 0.000132207 0 0 0 0 0 0 0 0 0 0 0 0 0 0 0 0 0 0 0 0 0 0 0 0 0 0 0 0 0 0 0 0 0 0 0 0 0 0 0 0 0 0
0.525665 1.22569e-15 1.22566e-15 2.5605e-20 2.08903e-05 0.000120241 0 0 0 0 0 0 0 0 0 0 0 0 0 0 0 0 0 0 0 0 0 0 0 0 0 0 0 0 0 0 0 0 0 0 0 0 0 0 0 0 0 0
0.552648 1.13226e-15 1.13223e-15 2.09336e-20 1.84884e-05 0.000109341 0 0 0 0 0 0 0 0 0 0 0 0 0 0 0 0 0 0 0 0 0 0 0 0 0 0 0 0 0 0 0 0 0 0 0 0 0 0 0 0 0 0
0.581015 1.05465e-15 1.05463e-15 1.71978e-20 1.63068e-05 9.92096e-05 0 0 0 0 0 0 0 0 0 0 0 0 0 0 0 0 0 0 0 0 0 0 0 0 0 0 0 0 0 0 0 0 0 0 0 0 0 0 0 0 0 0
0.610839 9.80604e-16 9.8059e-16 1.41329e-20 1.44125e-05 9.00327e-05 0 0 0 0 0 0 0 0 0 0 0 0 0 0 0 0 0 0 0 0 0 0 0 0 0 0 0 0 0 0 0 0 0 0 0 0 0 0 0 0 0 0
0.642193 9.09898e-16 9.09887e-16 1.16123e-20 1.27622e-05 8.17075e-05 0 0 0 0 0 0 0 0 0 0 0 0 0 0 0 0 0 0 0 0 0 0 0 0 0 0 0 0 0 0 0 0 0 0 0 0 0 0 0 0 0 0
0.675157 8.4443e-16 8.4442e-16 9.5522e-21 1.1312e-05 7.41875e-05 0 0 0 0 0 0 0 0 0 0 0 0 0 0 0 0 0 0 0 0 0 0 0 0 0 0 0 0 0 0 0 0 0 1.4013e-45 0 1.4013e-45 0 1.4013e-45 0 1.4013e-45 0 1.4013e-45
0.709813 7.83932e-16 7.83924e-16 7.87086e-21 1.00402e-05 6.74423e-05 0 0 0 0 0 0 0 0 0 1.4013e-45 0 1.4013e-45 0 2.8026e-45 0 4.2039e-45 0 4.2039e-45 0 7.00649e-45 0 8.40779e-45 0 9.80909e-45 0 1.26117e-44 0 1.54143e-44 0 1.82169e-44 0 2.10195e-44 0 2.38221e-44 0 2.66247e-44 0 3.08286e-44 0 3.36312e-44 0 3.78351e-44
0.746248 7.27102e-16 7.27096e-16 6.48663e-21 8.92121e-06 6.14158e-05 0 0 0 0 0 2.8026e-45 0 9.80909e-45 0 2.24208e-44 0 4.34403e-44 0 6.86636e-44 0 9.94922e-44 0 1.30321e-43 0 1.75162e-43 0 2.28412e-43 0 2.76056e-43 0 3.27904e-43 0 4.00771e-43 0 4.65231e-43 0 5.32493e-43 0 6.06762e-43 0 7.04853e-43 0 7.90332e-43 0 8.81417e-43 0 9.76705e-43
0.784553 6.73146e-16 6.73141e-16 5.34419e-21 7.93912e-06 5.59427e-05 0 1.4013e-45 0 4.2039e-45 0 6.30584e-44 0 2.41023e-43 0 5.32493e-43 0 1.00053e-42 0 1.55264e-42 0 2.25329e-42 0 2.94133e-42 0 3.93485e-42 0 5.07831e-42 0 6.14469e-42 0 7.31198e-42 0 8.87863e-42 0 1.02981e-41 0 1.18157e-41 0 1.34455e-41 0 1.55586e-41 0 1.74462e-41 0 1.94486e-41 0 2.15548e-41
0.824824 6.22725e-16 6.2272e-16 4.40197e-21 7.0689e-06 5.10307e-05 0 5.1848e-44 0 1.58347e-43 0 1.46716e-42 0 5.0685e-42 0 1.08222e-41 0 1.9813e-41 0 3.03928e-41 0 4.36729e-41 0 5.69404e-41 0 7.5565e-41 0 9.69068e-41 0 1.17179e-40 0 1.39383e-40 0 1.68397e-40 0 1.9525e-40 0 2.23944e-40 0 2.54766e-40 0 2.937e-40 0 3.29263e-40 0 3.66969e-40 0 4.06633e-40
0.867162 5.75566e-16 5.75562e-16 3.62722e-21 6.302e-06 4.66111e-05 0 1.99405e-42 0 5.08111e-42 0 3.07739e-41 0 9.43789e-41 0 1.92806e-40 0 3.42231e-40 0 5.17528e-40 0 7.35287e-40 0 9.56147e-40 0 1.25801e-39 0 1.60201e-39 0 1.93466e-39 0 2.29877e-39 0 2.763e-39 0 3.20113e-39 0 3.66934e-39 0 4.17188e-39 0 4.79156e-39 0 5.36928e-39 0 5.98149e-39 0 6.6255e-39
0.911674 5.31271e-16 5.31268e-16 2.98724e-21 5.62281e-06 4.26129e-05 0 6.30682e-41 0 1.45371e-40 0 6.07192e-40 0 1.60882e-39 0 3.09736e-39 0 5.2809e-39 0 7.83036e-39 0 1.09593e-38 0 1.41751e-38 0 1.84527e-38 0 2.3299e-38 0 2.80618e-38 0 3.32682e-38 0 3.97528e-38 0 4.59817e-38 0 5.26362e-38 0 5.97708e-38 0 6.83746e-38 0 7.65441e-38 0 8.51953e-38 0 9.42934e-38
0.95847 4.90244e-16 4.90241e-16 2.45813e-21 5.0141e-06 3.90295e-05 0 1.67068e-39 0 3.63263e-39 0 1.14696e-38 0 2.59825e-38 0 4.64328e-38 0 7.51509e-38 0 1.08399e-37 0 1.48567e-37 0 1.90296e-37 0 2.44191e-37 0 3.04823e-37 0 3.6527e-37 0 4.31181e-37 0 5.11378e-37 0 5.89645e-37 0 6.73168e-37 0 7.62556e-37 0 8.68093e-37 0 9.69953e-37 0 1.07769e-36 0 1.19092e-36
1.00767 4.51899e-16 4.51897e-16 2.02289e-21 4.47642e-06 3.57756e-05 0 3.73172e-38 0 7.84597e-38 0 2.05597e-37 0 4.0494e-37 0 6.67855e-37 0 1.0172e-36 0 1.41594e-36 0 1.8874e-36 0 2.38067e-36 0 2.99663e-36 0 3.68306e-36 0 4.3756e-36 0 5.12725e-36 0 6.01969e-36 0 6.9028e-36 0 7.84294e-36 0 8.84605e-36 0 1.00058e-35 0 1.11412e-35 0 1.23398e-35 0 1.35976e-35
1.05939 4.1699e-16 4.16988e-16 1.66401e-21 3.99054e-06 3.28241e-05 0 7.09703e-37 0 1.46344e-36 0 3.42279e-36 0 6.07178e-36 0 9.32401e-36 0 1.33777e-35 0 1.79097e-35 0 2.31206e-35 0 2.85841e-35 0 3.51467e-35 0 4.2366e-35 0 4.97126e-35 0 5.76262e-35 0 6.67747e-35 0 7.59303e-35 0 8.56344e-35 0 9.59383e-35 0 1.07594e-34 0 1.19146e-34 0 1.31299e-34 0 1.44019e-34
1.11377 3.84191e-16 3.84189e-16 1.36838e-21 3.56172e-06 3.01372e-05 0 1.15486e-35 0 2.35442e-35 0 5.15561e-35 0 8.54127e-35 0 1.24365e-34 0 1.69941e-34 0 2.19645e-34 0 2.75001e-34 0 3.32853e-34 0 3.9949e-34 0 4.71602e-34 0 5.45317e-34 0 6.23871e-34 0 7.12112e-34 0 8.01128e-34 0 8.94843e-34 0 9.93642e-34 0 1.10288e-33 0 1.21218e-33 0 1.32658e-33 0 1.4458e-33
1.17094 3.55083e-16 3.55082e-16 1.12479e-21 3.16767e-06 2.76289e-05 0 1.62723e-34 0 3.29498e-34 0 6.95029e-34 0 1.10504e-33 0 1.5538e-33 0 2.05193e-33 0 2.58218e-33 0 3.15483e-33 0 3.74905e-33 0 4.40668e-33 0 5.10559e-33 0 5.82025e-33 0 6.57209e-33 0 7.39268e-33 0 8.22398e-33 0 9.09151e-33 0 9.99784e-33 0 1.09771e-32 0 1.19631e-32 0 1.2988e-32 0 1.40499e-32
1.23105 3.28251e-16 3.2825e-16 9.24982e-22 2.81791e-06 2.53325e-05 0 1.99344e-33 0 4.01987e-33 0 8.30112e-33 0 1.28877e-32 0 1.77405e-32 0 2.29267e-32 0 2.83386e-32 0 3.40383e-32 0 3.99029e-32 0 4.61822e-32 0 5.27443e-32 0 5.94359e-32 0 6.63856e-32 0 7.37786e-32 0 8.12742e-32 0 8.90222e-32 0 9.70376e-32 0 1.05516e-31 0 1.14077e-31 0 1.22909e-31 0 1.31996e-31
1.29424 3.03374e-16 3.03373e-16 7.60913e-22 2.50817e-06 2.322e-05 0 2.1365e-32 0 4.2973e-32 0 8.76639e-32 0 1.34257e-31 0 1.82514e-31 0 2.32824e-31 0 2.84575e-31 0 3.38103e-31 0 3.92757e-31 0 4.49886e-31 0 5.08785e-31 0 5.68607e-31 0 6.30055e-31 0 6.94119e-31 0 7.58979e-31 0 8.25439e-31 0 8.93572e-31 0 9.64385e-31 0 1.03593e-30 0 1.10917e-30 0 1.18401e-30
1.36067 2.80372e-16 2.80371e-16 6.25582e-22 2.23126e-06 2.12957e-05 0 2.01662e-31 0 4.04956e-31 0 8.20222e-31 0 1.24634e-30 0 1.68196e-30 0 2.12919e-30 0 2.58484e-30 0 3.05052e-30 0 3.52314e-30 0 4.00934e-30 0 4.50574e-30 0 5.00793e-30 0 5.5195e-30 0 6.04529e-30 0 6.57639e-30 0 7.11675e-30 0 7.66668e-30 0 8.23089e-30 0 8.80031e-30 0 9.3795e-30 0 9.96789e-30
1.43051 2.59145e-16 2.59145e-16 5.14082e-22 1.98376e-06 1.95426e-05 0 1.6869e-30 0 3.38385e-30 0 6.82463e-30 0 1.03224e-29 0 1.38702e-29 0 1.74787e-29 0 2.11325e-29 0 2.48383e-29 0 2.85832e-29 0 3.23969e-29 0 3.62651e-29 0 4.01658e-29 0 4.41162e-29 0 4.81385e-29 0 5.21918e-29 0 5.62947e-29 0 6.04478e-29 0 6.46712e-29 0 6.89268e-29 0 7.32343e-29 0 7.75902e-29
1.50394 2.39873e-16 2.39873e-16 4.22608e-22 1.7618e-06 1.79221e-05 0 1.25954e-29 0 2.52481e-29 0 5.07878e-29 0 7.66055e-29 0 1.02667e-28 0 1.29025e-28 0 1.55608e-28 0 1.82442e-28 0 2.09477e-28 0 2.36837e-28 0 2.64469e-28 0 2.92266e-28 0 3.20307e-28 0 3.48688e-28 0 3.77232e-28 0 4.06022e-28 0 4.35055e-28 0 4.64412e-28 0 4.93946e-28 0 5.23735e-28 0 5.53759e-28
1.58114 2.22281e-16 2.22281e-16 3.47417e-22 1.56296e-06 1.64114e-05 0 8.43838e-29 0 1.69069e-28 0 3.39532e-28 0 5.11262e-28 0 6.84099e-28 0 8.58294e-28 0 1.03353e-27 0 1.20988e-27 0 1.3872e-27 0 1.56596e-27 0 1.74599e-27 0 1.92677e-27 0 2.10868e-27 0 2.29209e-27 0 2.47629e-27 0 2.66162e-27 0 2.84805e-27 0 3.03587e-27 0 3.22458e-27 0 3.41445e-27 0 3.60539e-27
1.6623 2.06011e-16 2.0601e-16 2.85632e-22 1.38649e-06 1.501e-05 0 5.09458e-28 0 1.02039e-27 0 2.04703e-27 0 3.07907e-27 0 4.11581e-27 0 5.15841e-27 0 6.20548e-27 0 7.25724e-27 0 8.31324e-27 0 9.37529e-27 0 1.04429e-26 0 1.15137e-26 0 1.25893e-26 0 1.36712e-26 0 1.47566e-26 0 1.58469e-26 0 1.69417e-26 0 1.80422e-26 0 1.91468e-26 0 2.02563e-26 0 2.13704e-26
1.74763 1.90696e-16 1.90696e-16 2.34862e-22 1.2316e-06 1.37473e-05 0 2.78197e-27 0 5.57065e-27 0 1.11675e-26 0 1.67861e-26 0 2.24234e-26 0 2.80845e-26 0 3.37635e-26 0 3.94609e-26 0 4.51758e-26 0 5.09146e-26 0 5.66763e-26 0 6.24504e-26 0 6.82437e-26 0 7.40621e-26 0 7.98943e-26 0 8.57466e-26 0 9.16168e-26 0 9.75085e-26 0 1.03417e-25 0 1.09346e-25 0 1.15293e-25
1.83733 1.76559e-16 1.76559e-16 1.93094e-22 1.09365e-06 1.25932e-05 0 1.38262e-26 0 2.76809e-26 0 5.54655e-26 0 8.33324e-26 0 1.11269e-25 0 1.39298e-25 0 1.67394e-25 0 1.95558e-25 0 2.23789e-25 0 2.52109e-25 0 2.8052e-25 0 3.08974e-25 0 3.375e-25 0 3.66121e-25 0 3.94794e-25 0 4.23544e-25 0 4.52359e-25 0 4.81252e-25 0 5.10211e-25 0 5.39246e-25 0 5.68348e-25
1.93164 1.63462e-16 1.63462e-16 1.58694e-22 9.70834e-07 1.15335e-05 0 6.281e-26 0 1.25732e-25 0 2.51851e-25 0 3.78265e-25 0 5.04927e-25 0 6.31921e-25 0 7.59155e-25 0 8.86625e-25 0 1.01434e-24 0 1.14237e-24 0 1.27073e-24 0 1.39923e-24 0 1.528e-24 0 1.6571e-24 0 1.78638e-24 0 1.91593e-24 0 2.04572e-24 0 2.17577e-24 0 2.30606e-24 0 2.43663e-24 0 2.56742e-24
2.03079 1.51458e-16 1.51457e-16 1.30393e-22 8.60921e-07 1.05502e-05 0 2.62174e-25 0 5.24764e-25 0 1.05089e-24 0 1.57801e-24 0 2.10596e-24 0 2.63506e-24 0 3.16496e-24 0 3.69563e-24 0 4.22713e-24 0 4.7597e-24 0 5.29342e-24 0 5.82758e-24 0 6.36261e-24 0 6.89878e-24 0 7.43554e-24 0 7.97325e-24 0 8.5117e-24 0 9.05101e-24 0 9.59115e-24 0 1.01322e-23 0 1.0674e-23
2.13503 1.40286e-16 1.40286e-16 1.07223e-22 7.64315e-07 9.65072e-06 0 1.00853e-24 0 2.01848e-24 0 4.04147e-24 0 6.06768e-24 0 8.09648e-24 0 1.0129e-23 0 1.21641e-23 0 1.42016e-23 0 1.62417e-23 0 1.82853e-23 0 2.03326e-23 0 2.23812e-23 0 2.44325e-23 0 2.64875e-23 0 2.85443e-23 0 3.06042e-23 0 3.26664e-23 0 3.47312e-23 0 3.67987e-23 0 3.8869e-23 0 4.09418e-23
2.24463 1.2986e-16 1.2986e-16 8.8129e-23 6.78647e-07 8.83104e-06 0 3.58861e-24 0 7.18183e-24 0 1.43777e-23 0 2.15834e-23 0 2.87969e-23 0 3.60218e-23 0 4.32543e-23 0 5.04939e-23 0 5.77416e-23 0 6.49995e-23 0 7.22691e-23 0 7.95421e-23 0 8.68232e-23 0 9.41157e-23 0 1.01413e-22 0 1.0872e-22 0 1.16034e-22 0 1.23355e-22 0 1.30685e-22 0 1.38023e-22 0 1.45368e-22
2.35984 1.20305e-16 1.20305e-16 7.24081e-23 6.01872e-07 8.07545e-06 0 1.18728e-23 0 2.37595e-23 0 4.75604e-23 0 7.13895e-23 0 9.52406e-23 0 1.19125e-22 0 1.43031e-22 0 1.66957e-22 0 1.90906e-22 0 2.14884e-22 0 2.38896e-22 0 2.62917e-22 0 2.86961e-22 0 3.11038e-22 0 3.35129e-22 0 3.59247e-22 0 3.83383e-22 0 4.07541e-22 0 4.31721e-22 0 4.55926e-22 0 4.80152e-22
2.48097 1.11491e-16 1.11491e-16 5.94812e-23 5.33508e-07 7.37754e-06 0 3.66372e-23 0 7.33141e-23 0 1.46744e-22 0 2.2025e-22 0 2.93816e-22 0 3.67474e-22 0 4.41188e-22 0 5.14956e-22 0 5.88785e-22 0 6.62696e-22 0 7.367e-22 0 8.10725e-22 0 8.84811e-22 0 9.58988e-22 0 1.0332e-21 0 1.10749e-21 0 1.18182e-21 0 1.25621e-21 0 1.33067e-21 0 1.40519e-21 0 1.47976e-21
2.60832 1.03266e-16 1.03266e-16 4.89032e-23 4.73565e-07 6.73363e-06 0 1.05716e-22 0 2.11538e-22 0 4.2338e-22 0 6.3542e-22 0 8.4761e-22 0 1.06004e-21 0 1.27262e-21 0 1.48533e-21 0 1.69819e-21 0 1.91127e-21 0 2.12459e-21 0 2.33796e-21 0 2.55148e-21 0 2.76524e-21 0 2.97909e-21 0 3.19313e-21 0 3.40728e-21 0 3.62158e-21 0 3.83604e-21 0 4.05067e-21 0 4.26543e-21
2.74221 9.5527e-17 9.5527e-17 4.01927e-23 4.20747e-07 6.1476e-06 0 2.85965e-22 0 5.72196e-22 0 1.14515e-21 0 1.71858e-21 0 2.29238e-21 0 2.86678e-21 0 3.44152e-21 0 4.01658e-21 0 4.59203e-21 0 5.16798e-21 0 5.74455e-21 0 6.32121e-21 0 6.89825e-21 0 7.47586e-21 0 8.05367e-21 0 8.63197e-21 0 9.21053e-21 0 9.78945e-21 0 1.03688e-20 0 1.09484e-20 0 1.15285e-20
2.88297 8.83739e-17 8.83739e-17 3.30082e-23 3.73506e-07 5.6173e-06 0 7.28403e-22 0 1.45744e-21 0 2.91666e-21 0 4.37701e-21 0 5.83819e-21 0 7.30079e-21 0 8.76415e-21 0 1.02282e-20 0 1.16932e-20 0 1.31594e-20 0 1.4627e-20 0 1.60948e-20 0 1.75635e-20 0 1.90335e-20 0 2.05039e-20 0 2.19755e-20 0 2.34477e-20 0 2.49206e-20 0 2.63945e-20 0 2.78693e-20 0 2.93448e-20
3.03095 8.16787e-17 8.16787e-17 2.71126e-23 3.31942e-07 5.13571e-06 0 1.75053e-21 0 3.5025e-21 0 7.00897e-21 0 1.05179e-20 0 1.40287e-20 0 1.75427e-20 0 2.10583e-20 0 2.45755e-20 0 2.80946e-20 0 3.16164e-20 0 3.51414e-20 0 3.86667e-20 0 4.21939e-20 0 4.57241e-20 0 4.92552e-20 0 5.27889e-20 0 5.63238e-20 0 5.98604e-20 0 6.3399e-20 0 6.69396e-20 0 7.04819e-20
3.18653 7.55136e-17 7.55136e-17 2.22739e-23 2.94965e-07 4.68889e-06 0 3.98556e-21 0 7.97418e-21 0 1.59568e-20 0 2.39447e-20 0 3.19364e-20 0 3.99348e-20 0 4.79366e-20 0 5.59418e-20 0 6.39511e-20 0 7.19659e-20 0 7.99875e-20 0 8.80095e-20 0 9.60357e-20 0 1.04068e-19 0 1.12102e-19 0 1.20142e-19 0 1.28184e-19 0 1.3623e-19 0 1.4428e-19 0 1.52334e-19 0 1.60391e-19
