# 0.000902528 1 97 : grain size, compostion index, size index
# Heating and cooling timescale: 4.14681e-06 6.79611e+16
# Ratio of heating to cooling to determine stochastic cutoff: 100
# Equilibrium emission is recorded even for those grains in the stochastic regime.
# Emission spectrum was computed for: 
# Type: IRSF
# Scales: 0.5 1 2 5 10
# StochasticallyHeated: 0 0 0 0 0
# Temperature: -1
# Wavelength  CExt  CAbs  CSca  Albedo G EqEm1 StEm1 EqEm2 StEm2 EqEm3 StEm3 EqEm4 StEm4 EqEm5 StEm5
0.05 5.15974e-06 1.81748e-06 3.34226e-06 0.647758 0.854952 0 0 0 0 0 0 0 0 0 0
0.0525665 5.16186e-06 1.78858e-06 3.37328e-06 0.6535 0.842567 0 0 0 0 0 0 0 0 0 0
0.0552647 5.16404e-06 1.76694e-06 3.3971e-06 0.657837 0.832291 0 0 0 0 0 0 0 0 0 0
0.0581015 5.16617e-06 1.75753e-06 3.40864e-06 0.6598 0.825998 0 0 0 0 0 0 0 0 0 0
0.0610839 5.16831e-06 1.73316e-06 3.43515e-06 0.664657 0.817329 0 0 0 0 0 0 0 0 0 0
0.0642193 5.17092e-06 1.67164e-06 3.49928e-06 0.676722 0.799222 0 0 0 0 0 0 0 0 0 0
0.0675157 5.17415e-06 1.61096e-06 3.56319e-06 0.688652 0.779443 0 0 0 0 0 0 0 0 0 0
0.0709813 5.1776e-06 1.60623e-06 3.57136e-06 0.689772 0.772421 0 0 0 0 0 0 0 0 0 0
0.0746248 5.18093e-06 1.63222e-06 3.5487e-06 0.684955 0.773804 0 0 0 0 0 0 0 0 0 0
0.0784553 5.1841e-06 1.66782e-06 3.51628e-06 0.678282 0.778706 0 0 0 0 0 0 0 0 0 0
0.0824824 5.18724e-06 1.70838e-06 3.47886e-06 0.670657 0.784571 0 0 0 0 0 0 0 0 0 0
0.0867162 5.19048e-06 1.71912e-06 3.47136e-06 0.668793 0.78349 0 0 0 0 0 0 0 0 0 0
0.0911674 5.19411e-06 1.71316e-06 3.48095e-06 0.670172 0.778412 0 0 0 0 0 0 0 0 0 0
0.095847 5.19782e-06 1.72281e-06 3.47501e-06 0.668552 0.776686 0 0 0 0 0 0 0 0 0 0
0.100767 5.20047e-06 1.78527e-06 3.4152e-06 0.65671 0.788029 0 0 0 0 0 0 0 0 0 0
0.105939 5.20237e-06 1.84743e-06 3.35495e-06 0.644888 0.802533 0 0 0 0 0 0 0 0 0 0
0.111377 5.20263e-06 1.95883e-06 3.2438e-06 0.623492 0.830227 0 0 0 0 0 0 0 0 0 0
0.117094 5.20264e-06 2.07235e-06 3.13028e-06 0.601673 0.862276 0 0 0 0 0 0 0 0 0 0
0.123105 5.20405e-06 2.14614e-06 3.05792e-06 0.587603 0.884715 0 0 0 0 0 0 0 0 0 0
0.129424 5.20602e-06 2.20919e-06 2.99684e-06 0.575648 0.904508 0 0 0 0 0 0 0 0 0 0
0.136067 5.20805e-06 2.25998e-06 2.94807e-06 0.566059 0.920555 0 0 0 0 0 0 0 0 0 0
0.143051 5.2095e-06 2.29956e-06 2.90993e-06 0.558583 0.93307 0 0 0 0 0 0 0 0 0 0
0.150394 5.2098e-06 2.32166e-06 2.88813e-06 0.554366 0.941136 0 0 0 0 0 0 0 0 0 0
0.158114 5.20997e-06 2.31285e-06 2.89712e-06 0.556072 0.942017 0 0 0 0 0 0 0 0 0 0
0.16623 5.21215e-06 2.25695e-06 2.95519e-06 0.566982 0.931363 0 0 0 0 0 0 0 0 0 0
0.174762 5.21748e-06 2.14911e-06 3.06838e-06 0.588095 0.90525 0 0 0 0 0 0 0 0 0 0
0.183733 5.22421e-06 2.01454e-06 3.20967e-06 0.614384 0.870007 0 0 0 0 0 0 0 0 0 0
0.193164 5.23173e-06 1.87555e-06 3.35617e-06 0.641504 0.833746 0 0 0 0 0 0 0 0 0 0
0.203079 5.23979e-06 1.75556e-06 3.48423e-06 0.664957 0.803802 0 0 0 0 0 0 0 0 0 0
0.213503 5.24859e-06 1.65324e-06 3.59535e-06 0.685012 0.779477 0 0 0 0 0 0 0 0 0 0
0.224463 5.25888e-06 1.58714e-06 3.67174e-06 0.698198 0.762711 0 0 0 0 0 0 0 0 0 0
0.235984 5.27045e-06 1.55269e-06 3.71775e-06 0.705396 0.751469 0 0 0 0 0 0 0 0 0 0
0.248097 5.28256e-06 1.56686e-06 3.7157e-06 0.703389 0.74784 0 0 0 0 0 0 0 0 0 0
0.260832 5.29182e-06 1.61067e-06 3.68115e-06 0.695631 0.74991 0 0 0 0 0 0 0 0 0 0
0.274221 5.2974e-06 1.66058e-06 3.63682e-06 0.686529 0.753928 0 0 0 0 0 0 0 0 0 0
0.288297 5.29918e-06 1.72237e-06 3.57681e-06 0.674974 0.763112 0 0 0 0 0 0 0 0 0 0
0.303095 5.30172e-06 1.76503e-06 3.53669e-06 0.667084 0.770144 0 0 0 0 0 0 0 0 0 0
0.318653 5.30471e-06 1.80005e-06 3.50465e-06 0.660669 0.776341 0 0 0 0 0 0 0 0 0 0
0.335009 5.30847e-06 1.82827e-06 3.4802e-06 0.655594 0.781681 0 0 0 0 0 0 0 0 0 0
0.352205 5.31313e-06 1.8485e-06 3.46463e-06 0.652089 0.785458 0 0 0 0 0 0 0 0 0 0
0.370284 5.31847e-06 1.86254e-06 3.45593e-06 0.649798 0.787791 0 0 0 0 0 0 0 0 0 0
0.389291 5.32426e-06 1.87118e-06 3.45308e-06 0.648555 0.788683 0 0 0 0 0 0 0 0 0 0
0.409273 5.33031e-06 1.87828e-06 3.45203e-06 0.647622 0.789212 0 0 0 0 0 0 0 0 0 0
0.430281 5.3365e-06 1.8847e-06 3.4518e-06 0.646829 0.789579 0 0 0 0 0 0 0 0 0 0
0.452368 5.34305e-06 1.89128e-06 3.45176e-06 0.646029 0.790131 0 0 0 0 0 0 0 0 0 0
0.475588 5.34985e-06 1.89756e-06 3.4523e-06 0.645307 0.790628 0 0 0 0 0 0 0 0 0 0
0.5 5.35712e-06 1.9028e-06 3.45433e-06 0.64481 0.790866 0 0 0 0 0 0 0 0 0 0
0.525665 5.3648e-06 1.90742e-06 3.45738e-06 0.644457 0.790945 0 0 0 0 0 0 0 0 0 0
0.552647 5.37275e-06 1.91173e-06 3.46102e-06 0.644181 0.790903 0 0 0 0 0 0 0 0 0 0
0.581015 5.38132e-06 1.91315e-06 3.46817e-06 0.644484 0.790074 0 0 0 0 0 0 0 0 0 0
0.610839 5.39016e-06 1.91455e-06 3.47561e-06 0.644807 0.789205 0 0 0 0 0 0 0 0 0 0
0.642193 5.39924e-06 1.9159e-06 3.48334e-06 0.645154 0.788291 0 0 0 0 0 0 0 0 0 0
0.675157 5.40873e-06 1.91619e-06 3.49254e-06 0.645723 0.787063 0 0 0 0 0 0 0 0 0 0
0.709813 5.41851e-06 1.91549e-06 3.50303e-06 0.646492 0.78554 0 0 0 0 0 0 0 0 0 0
0.746248 5.42857e-06 1.91434e-06 3.51422e-06 0.647357 0.78386 0 0 0 0 0 0 0 0 0 0
0.784553 5.43887e-06 1.9131e-06 3.52577e-06 0.648255 0.782135 0 0 0 0 0 0 0 0 0 0
0.824824 5.44938e-06 1.91177e-06 3.53761e-06 0.649176 0.780356 0 0 0 0 0 0 0 0 0 0
0.867162 5.46009e-06 1.91034e-06 3.54975e-06 0.650126 0.778525 0 0 0 0 0 0 0 0 0 0
0.911674 5.47097e-06 1.90894e-06 3.56203e-06 0.651078 0.776681 0 0 0 0 0 0 0 0 0 0
0.95847 5.48198e-06 1.90786e-06 3.57412e-06 0.651976 0.774877 0 0 0 0 0 0 0 0 0 0
1.00767 5.49315e-06 1.90677e-06 3.58639e-06 0.652883 0.773055 0 0 0 0 0 0 0 0 0 0
1.05939 5.5045e-06 1.90624e-06 3.59826e-06 0.653694 0.771331 0 0 0 0 0 0 0 0 0 0
1.11377 5.51604e-06 1.90555e-06 3.61049e-06 0.654543 0.769561 0 0 0 0 0 0 0 0 0 0
1.17094 5.52804e-06 1.90541e-06 3.62263e-06 0.655319 0.767889 0 0 0 0 0 0 0 0 0 0
1.23105 5.54026e-06 1.90528e-06 3.63497e-06 0.656102 0.766203 0 0 0 0 0 0 0 0 0 0
1.29424 5.55267e-06 1.9045e-06 3.64817e-06 0.657012 0.76436 0 0 0 0 0 0 0 0 0 0
1.36067 5.56451e-06 1.90375e-06 3.66076e-06 0.657877 0.762494 0 0 0 0 0 0 0 0 0 0
1.43051 5.57486e-06 1.90302e-06 3.67184e-06 0.658642 0.760561 0 0 0 0 0 0 0 0 0 0
1.50394 5.58767e-06 1.90202e-06 3.68565e-06 0.659604 0.758682 0 0 0 0 0 0 0 0 0 0
1.58114 5.60729e-06 1.90007e-06 3.70722e-06 0.661143 0.756887 0 0 0 0 0 0 0 0 0 0
1.6623 5.6186e-06 1.89679e-06 3.72181e-06 0.662408 0.754542 0 0 0 0 0 0 0 0 0 0
1.74762 5.62152e-06 1.89172e-06 3.7298e-06 0.663485 0.751519 0 0 0 0 0 0 0 0 0 0
1.83733 5.65472e-06 1.88606e-06 3.76866e-06 0.666462 0.749774 0 0 0 0 0 0 0 0 0 0
1.93164 5.65148e-06 1.8789e-06 3.77257e-06 0.667538 0.74611 0 0 0 0 0 0 0 0 0 0
2.03079 5.67587e-06 1.87032e-06 3.80555e-06 0.670479 0.743712 0 0 0 0 0 0 0 0 0 0
2.13503 5.69012e-06 1.86002e-06 3.8301e-06 0.673114 0.740362 0 0 0 0 0 0 0 0 0 0
2.24463 5.69919e-06 1.84814e-06 3.85105e-06 0.675719 0.736374 0 0 0 0 0 0 0 0 0 0
2.35984 5.71674e-06 1.83534e-06 3.8814e-06 0.678953 0.732862 0 0 0 0 0 0 0 0 0 0
2.48097 5.74348e-06 1.82397e-06 3.91951e-06 0.682428 0.730153 0 0 0 0 0 0 0 0 0 0
2.60832 5.71892e-06 1.80629e-06 3.91263e-06 0.684156 0.7237 0 0 0 0 0 0 0 0 0 0
2.74221 5.81176e-06 1.79202e-06 4.01974e-06 0.691657 0.723477 0 0 0 0 0 0 0 0 0 0
2.88297 5.73157e-06 1.77547e-06 3.95609e-06 0.690229 0.714018 0 0 0 0 0 0 0 0 0 0
3.03095 5.81484e-06 1.76085e-06 4.05398e-06 0.697179 0.714388 0 0 0 0 0 0 0 0 0 0
3.18653 5.85552e-06 1.73946e-06 4.11606e-06 0.702937 0.710411 0 0 0 0 0 0 0 0 0 0
3.35009 5.75961e-06 1.72785e-06 4.03175e-06 0.700005 0.698929 0 0 0 0 0 0 0 0 0 0
3.52205 5.87033e-06 1.69945e-06 4.17088e-06 0.710502 0.700537 0 0 0 0 0 0 0 0 0 0
3.70284 5.93106e-06 1.69313e-06 4.23793e-06 0.714532 0.698909 0 0 0 0 0 0 0 0 0 0
3.89291 5.80804e-06 1.67391e-06 4.13412e-06 0.711794 0.685684 0 0 0 0 0 0 0 0 0 0
4.09273 5.84932e-06 1.64718e-06 4.20214e-06 0.718398 0.682487 0 0 0 0 0 0 0 0 0 0
4.30281 6.03396e-06 1.64718e-06 4.38679e-06 0.727016 0.686641 0 0 0 0 0 0 0 0 0 0
4.52368 6.00495e-06 1.63855e-06 4.3664e-06 0.727133 0.679535 0 0 0 0 0 0 0 0 0 0
4.75588 5.84468e-06 1.62349e-06 4.2212e-06 0.722228 0.663549 0 0 0 0 0 0 0 0 0 0
5 5.84186e-06 1.60489e-06 4.23697e-06 0.725277 0.658587 0 0 0 0 0 0 0 0 0 0
5.25665 6.04308e-06 1.58474e-06 4.45835e-06 0.73776 0.667439 0 0 0 0 0 0 0 0 0 0
5.52648 6.1451e-06 1.5675e-06 4.5776e-06 0.744918 0.664211 0 0 0 0 0 0 0 0 0 0
5.81015 6.03498e-06 1.56566e-06 4.46932e-06 0.740569 0.646757 0 0 0 0 0 0 0 0 0 0
6.10839 5.8999e-06 1.57206e-06 4.32784e-06 0.733545 0.637019 0 0 0 0 0 0 0 0 0 0
6.42193 5.93721e-06 1.5359e-06 4.40131e-06 0.741309 0.640839 0 0 0 0 0 0 0 0 0 0
6.75157 6.11642e-06 1.48542e-06 4.631e-06 0.757142 0.647481 0 0 0 0 0 0 0 0 0 0
7.09813 6.35526e-06 1.52469e-06 4.83057e-06 0.76009 0.650741 0 0 0 0 0 0 0 0 0 0
7.46248 6.31399e-06 1.50455e-06 4.80944e-06 0.761712 0.636209 0 0 0 0 0 0 0 0 0 0
7.84553 6.22939e-06 1.52377e-06 4.70563e-06 0.755391 0.626628 0 0 0 0 0 0 0 0 0 0
8.24824 6.00886e-06 1.4616e-06 4.54726e-06 0.75676 0.596827 0 0 0 0 0 0 0 0 0 0
8.67162 5.85516e-06 1.51349e-06 4.34167e-06 0.741512 0.577917 0 0 0 0 0 0 0 0 0 0
9.11674 6.13022e-06 1.47764e-06 4.65258e-06 0.758957 0.596619 0 0 0 0 0 0 0 0 0 0
9.5847 6.27324e-06 1.50496e-06 4.76829e-06 0.760099 0.618309 0 0 0 0 0 0 0 0 0 0
10.0767 6.64187e-06 1.54878e-06 5.09309e-06 0.766815 0.627785 0 0 0 0 0 0 0 0 0 0
10.5939 6.60803e-06 1.51997e-06 5.08805e-06 0.769981 0.637512 0 0 0 0 0 0 0 0 0 0
11.1377 6.59607e-06 1.63837e-06 4.9577e-06 0.751614 0.626981 0 0 0 0 0 0 0 0 0 0
11.7094 6.56149e-06 1.65778e-06 4.90371e-06 0.747347 0.615288 0 0 0 0 0 0 0 0 0 0
12.3105 6.23653e-06 1.70072e-06 4.53582e-06 0.727298 0.601229 0 0 0 0 0 0 0 0 1.96182e-44 0
12.9424 6.1237e-06 1.73259e-06 4.39111e-06 0.717068 0.555127 0 0 0 0 0 0 0 0 3.29726e-42 0
13.6067 6.09006e-06 1.75634e-06 4.33373e-06 0.711606 0.53801 0 0 0 0 0 0 0 0 4.20793e-40 0
14.3051 6.23239e-06 1.78064e-06 4.45176e-06 0.714293 0.542922 0 0 0 0 0 0 1.13505e-43 0 4.18906e-38 0
15.0394 6.56205e-06 1.81585e-06 4.7462e-06 0.72328 0.557624 0 0 0 0 0 0 1.66881e-41 0 3.31245e-36 0
15.8114 6.77937e-06 1.85796e-06 4.92141e-06 0.725939 0.562318 0 0 0 0 0 0 1.91861e-39 0 2.09922e-34 0
16.623 6.90179e-06 1.8115e-06 5.09029e-06 0.737531 0.567483 0 0 0 0 4.2039e-45 0 1.64888e-37 0 1.02384e-32 0
17.4762 7.05574e-06 1.83156e-06 5.22418e-06 0.740415 0.571466 0 0 0 0 7.51096e-43 0 1.16647e-35 0 4.22573e-31 0
18.3733 7.03042e-06 1.84831e-06 5.18211e-06 0.737099 0.570151 0 0 0 0 9.55265e-41 0 6.61248e-34 0 1.43483e-29 0
19.3164 6.84861e-06 1.82151e-06 5.02711e-06 0.734033 0.565503 0 0 1.26117e-44 0 9.25855e-39 0 2.97041e-32 0 3.9585e-28 0
20.3079 6.62201e-06 1.79473e-06 4.82729e-06 0.728975 0.557181 0 0 1.80487e-42 0 7.08414e-37 0 1.09369e-30 0 9.16694e-27 0
21.3503 6.39615e-06 1.77492e-06 4.62123e-06 0.722502 0.542374 0 0 2.07654e-40 0 4.34548e-35 0 3.34576e-29 0 1.80415e-25 0
22.4463 6.22562e-06 1.75784e-06 4.46778e-06 0.717645 0.522169 2.38221e-44 0 1.8736e-38 0 2.15573e-33 0 8.56346e-28 0 3.03546e-24 0
23.5984 6.14979e-06 1.74904e-06 4.40074e-06 0.715593 0.500721 3.29585e-42 0 1.34597e-36 0 8.76714e-32 0 1.85587e-26 0 4.41386e-23 0
24.8097 6.16494e-06 1.74821e-06 4.41673e-06 0.716428 0.480408 3.58267e-40 0 7.78635e-35 0 2.95207e-30 0 3.43393e-25 0 5.58753e-22 0
26.0832 6.24884e-06 1.76137e-06 4.48747e-06 0.718129 0.461622 3.08443e-38 0 3.67894e-33 0 8.33606e-29 0 5.48658e-24 0 6.22208e-21 0
27.4221 6.34202e-06 1.77722e-06 4.56479e-06 0.71977 0.443399 2.11434e-36 0 1.42516e-31 0 1.97907e-27 0 7.57792e-23 0 6.09598e-20 0
28.8297 6.44092e-06 1.80126e-06 4.63966e-06 0.720341 0.42366 1.17041e-34 0 4.5843e-30 0 3.99588e-26 0 9.13982e-22 0 5.30364e-19 0
30.3095 6.52243e-06 1.8228e-06 4.69963e-06 0.720534 0.399641 5.25678e-33 0 1.22859e-28 0 6.87643e-25 0 9.6349e-21 0 4.0978e-18 0
31.8653 6.59428e-06 1.84174e-06 4.75255e-06 0.720707 0.369584 1.93506e-31 0 2.76748e-27 0 1.01636e-23 0 8.9348e-20 0 2.82777e-17 0
33.5009 6.67402e-06 1.85069e-06 4.82332e-06 0.722702 0.331942 5.87123e-30 0 5.26304e-26 0 1.29463e-22 0 7.30497e-19 0 1.74542e-16 0
35.2206 6.75027e-06 1.8473e-06 4.90297e-06 0.726337 0.288152 1.48016e-28 0 8.50821e-25 0 1.42952e-21 0 5.29053e-18 0 9.67528e-16 0
37.0284 6.83246e-06 1.81948e-06 5.01298e-06 0.733701 0.239062 3.10677e-27 0 1.17026e-23 0 1.36824e-20 0 3.39041e-17 0 4.80805e-15 0
38.9291 6.90362e-06 1.76792e-06 5.1357e-06 0.743914 0.18731 5.47331e-26 0 1.37921e-22 0 1.14214e-19 0 1.93241e-16 0 2.15159e-14 0
40.9273 6.97606e-06 1.70092e-06 5.27514e-06 0.756177 0.135703 8.18724e-25 0 1.40751e-21 0 8.39592e-19 0 9.88152e-16 0 8.74096e-14 0
43.0282 7.05641e-06 1.64119e-06 5.41522e-06 0.767418 0.0875956 1.06121e-23 0 1.26809e-20 0 5.53672e-18 0 4.61403e-15 0 3.2792e-13 0
45.2368 7.14588e-06 1.59764e-06 5.54824e-06 0.776425 0.0446937 1.20756e-22 0 1.02097e-19 0 3.31293e-17 0 1.98809e-14 0 1.1474e-12 0
47.5588 7.22421e-06 1.58633e-06 5.63788e-06 0.780415 0.00828906 1.22795e-21 0 7.47087e-19 0 1.82795e-16 0 8.02679e-14 0 3.8004e-12 0
50 7.26184e-06 1.58757e-06 5.67428e-06 0.781382 -0.0230952 1.10976e-20 0 4.93725e-18 0 9.23546e-16 0 3.01312e-13 0 1.18171e-11 0
52.5665 7.22939e-06 1.60497e-06 5.62442e-06 0.777994 -0.0497024 8.98913e-20 0 2.96943e-17 0 4.30248e-15 0 1.05816e-12 0 3.46933e-11 0
55.2648 7.0978e-06 1.62207e-06 5.47572e-06 0.771468 -0.0727887 6.49581e-19 0 1.6166e-16 0 1.83713e-14 0 3.45338e-12 0 9.54849e-11 0
58.1015 6.84794e-06 1.62858e-06 5.21936e-06 0.76218 -0.0930527 4.18479e-18 0 7.95541e-16 0 7.17527e-14 0 1.04451e-11 0 2.45591e-10 0
61.0839 6.48017e-06 1.61662e-06 4.86355e-06 0.750528 -0.111125 2.40461e-17 0 3.53806e-15 0 2.56142e-13 0 2.92378e-11 0 5.89243e-10 0
64.2193 6.00926e-06 1.58226e-06 4.427e-06 0.736696 -0.127403 1.23525e-16 0 1.42442e-14 0 8.36669e-13 0 7.57816e-11 0 1.31895e-09 0
67.5157 5.46442e-06 1.52618e-06 3.93823e-06 0.720705 -0.142103 5.69711e-16 0 5.21037e-14 0 2.50853e-12 0 1.8234e-10 0 2.7604e-09 0
70.9813 4.88289e-06 1.45225e-06 3.43063e-06 0.702583 -0.155454 2.37236e-15 0 1.74036e-13 0 6.93492e-12 0 4.08901e-10 0 5.42116e-09 0
74.6248 4.30203e-06 1.36775e-06 2.93428e-06 0.682069 -0.167599 8.98712e-15 0 5.34565e-13 0 1.77937e-11 0 8.59798e-10 0 1.00477e-08 0
78.4553 3.75134e-06 1.27956e-06 2.47178e-06 0.658907 -0.178635 3.12131e-14 0 1.52084e-12 0 4.26605e-11 0 1.70581e-09 0 1.76796e-08 0
82.4824 3.25267e-06 1.1945e-06 2.05816e-06 0.632762 -0.188561 1.00231e-13 0 4.03969e-12 0 9.62932e-11 0 3.2158e-09 0 2.97337e-08 0
86.7162 2.81501e-06 1.11617e-06 1.69884e-06 0.603495 -0.19734 2.99629e-13 0 1.0082e-11 0 2.05851e-10 0 5.79233e-09 0 4.80453e-08 0
91.1674 2.43815e-06 1.0451e-06 1.39305e-06 0.571355 -0.205075 8.377e-13 0 2.37411e-11 0 4.18355e-10 0 1.00019e-08 0 7.48208e-08 0
95.847 2.11935e-06 9.82458e-07 1.1369e-06 0.536435 -0.211849 2.20197e-12 0 5.30044e-11 0 8.11932e-10 0 1.66247e-08 0 1.12726e-07 0
100.767 1.85615e-06 9.30586e-07 9.25568e-07 0.498648 -0.217614 5.47916e-12 0 1.12918e-10 0 1.51393e-09 0 2.67497e-08 0 1.65197e-07 0
105.939 1.64288e-06 8.90973e-07 7.51903e-07 0.457675 -0.221813 1.29865e-11 0 2.3088e-10 0 2.72701e-09 0 4.188e-08 0 2.3664e-07 0
111.377 1.47078e-06 8.60919e-07 6.09862e-07 0.414652 -0.224557 2.93591e-11 0 4.53534e-10 0 4.74849e-09 0 6.38196e-08 0 3.31371e-07 0
117.094 1.32981e-06 8.35478e-07 4.94332e-07 0.371731 -0.225251 6.31726e-11 0 8.5379e-10 0 7.97074e-09 0 9.43637e-08 0 4.52107e-07 0
123.105 1.20895e-06 8.08525e-07 4.00425e-07 0.331217 -0.223392 1.28798e-10 0 1.53293e-09 0 1.28322e-08 0 1.3465e-07 0 5.97619e-07 0
129.424 1.08888e-06 7.64907e-07 3.23972e-07 0.297528 -0.219351 2.44534e-10 0 2.57891e-09 0 1.94609e-08 0 1.82064e-07 0 7.51358e-07 0
136.067 9.67356e-07 7.05584e-07 2.61772e-07 0.270606 -0.214189 4.3224e-10 0 4.0632e-09 0 2.77806e-08 0 2.3302e-07 0 8.97355e-07 0
143.051 8.31003e-07 6.19414e-07 2.11589e-07 0.254619 -0.211469 6.95822e-10 0 5.86313e-09 0 3.64957e-08 0 2.75931e-07 0 9.94929e-07 0
150.394 7.05044e-07 5.33976e-07 1.71068e-07 0.242635 -0.210233 1.05491e-09 0 8.01042e-09 0 4.56034e-08 0 3.12369e-07 0 1.05799e-06 0
158.114 6.02008e-07 4.63561e-07 1.38447e-07 0.229975 -0.212477 1.54775e-09 0 1.06452e-08 0 5.56697e-08 0 3.47135e-07 0 1.10781e-06 0
166.23 5.16017e-07 4.03899e-07 1.12118e-07 0.217275 -0.214979 2.19451e-09 0 1.37373e-08 0 6.62661e-08 0 3.77899e-07 0 1.13964e-06 0
174.763 4.44775e-07 3.53829e-07 9.09457e-08 0.204476 -0.217476 3.01782e-09 0 1.7273e-08 0 7.71605e-08 0 4.0419e-07 0 1.15508e-06 0
183.733 3.92633e-07 3.18801e-07 7.3832e-08 0.188043 -0.219822 4.12464e-09 0 2.16805e-08 0 9.00259e-08 0 4.34985e-07 0 1.18113e-06 0
193.164 3.4858e-07 2.88611e-07 5.99697e-08 0.17204 -0.221874 5.48281e-09 0 2.65768e-08 0 1.02949e-07 0 4.60652e-07 0 1.1915e-06 0
203.079 3.12027e-07 2.63275e-07 4.87519e-08 0.156243 -0.223493 7.11994e-09 0 3.19531e-08 0 1.1586e-07 0 4.81914e-07 0 1.19026e-06 0
213.503 2.82886e-07 2.43218e-07 3.96685e-08 0.140228 -0.224521 9.09162e-09 0 3.79184e-08 0 1.29116e-07 0 5.01041e-07 0 1.18442e-06 0
224.463 2.57127e-07 2.2484e-07 3.22872e-08 0.125569 -0.225377 1.12961e-08 0 4.39409e-08 0 1.40945e-07 0 5.12034e-07 0 1.16106e-06 0
235.984 2.34262e-07 2.07976e-07 2.6286e-08 0.112208 -0.226087 1.36744e-08 0 4.97808e-08 0 1.5086e-07 0 5.14766e-07 0 1.12206e-06 0
248.097 2.13937e-07 1.92516e-07 2.14217e-08 0.100131 -0.226672 1.61507e-08 0 5.52044e-08 0 1.58503e-07 0 5.09597e-07 0 1.06995e-06 0
260.832 1.97139e-07 1.79677e-07 1.74619e-08 0.0885766 -0.226744 1.87751e-08 0 6.04419e-08 0 1.64861e-07 0 5.00925e-07 0 1.01506e-06 0
274.221 1.82168e-07 1.67933e-07 1.42353e-08 0.0781438 -0.226694 2.13615e-08 0 6.49603e-08 0 1.68755e-07 0 4.85995e-07 0 9.5223e-07 0
288.297 1.68568e-07 1.5696e-07 1.16072e-08 0.0688577 -0.226609 2.37813e-08 0 6.8507e-08 0 1.69917e-07 0 4.65083e-07 0 8.82698e-07 0
303.095 1.56363e-07 1.4689e-07 9.47329e-09 0.0605853 -0.226424 2.59648e-08 0 7.1046e-08 0 1.68637e-07 0 4.39862e-07 0 8.10058e-07 0
318.653 1.45759e-07 1.38028e-07 7.73075e-09 0.0530378 -0.225952 2.79101e-08 0 7.27258e-08 0 1.65573e-07 0 4.12596e-07 0 7.38511e-07 0
335.009 1.36017e-07 1.29709e-07 6.30877e-09 0.0463821 -0.225497 2.94466e-08 0 7.32496e-08 0 1.60297e-07 0 3.82552e-07 0 6.66561e-07 0
352.206 1.27062e-07 1.21912e-07 5.15067e-09 0.0405366 -0.22506 3.05259e-08 0 7.26613e-08 0 1.53157e-07 0 3.50868e-07 0 5.96026e-07 0
370.284 1.19176e-07 1.14969e-07 4.20668e-09 0.0352981 -0.224383 3.12199e-08 0 7.12708e-08 0 1.44983e-07 0 3.19548e-07 0 5.29974e-07 0
389.291 1.11928e-07 1.08492e-07 3.43546e-09 0.0306935 -0.223711 3.14428e-08 0 6.89897e-08 0 1.35701e-07 0 2.88365e-07 0 4.67581e-07 0
409.273 1.05216e-07 1.0241e-07 2.80547e-09 0.026664 -0.223081 3.11987e-08 0 6.59297e-08 0 1.25621e-07 0 2.57899e-07 0 4.09382e-07 0
430.282 9.92285e-08 9.69362e-08 2.29223e-09 0.0231005 -0.222246 3.05979e-08 0 6.23995e-08 0 1.15371e-07 0 2.29278e-07 0 3.56737e-07 0
452.368 9.37254e-08 9.18524e-08 1.87303e-09 0.0199842 -0.221405 2.96332e-08 0 5.84302e-08 0 1.05005e-07 0 2.02379e-07 0 3.09011e-07 0
475.588 8.86054e-08 8.70751e-08 1.53034e-09 0.0172714 -0.220616 2.8343e-08 0 5.41337e-08 0 9.47088e-08 0 1.7734e-07 0 2.66027e-07 0
500 8.38373e-08 8.25869e-08 1.25035e-09 0.014914 -0.219873 2.67924e-08 0 4.9654e-08 0 8.47005e-08 0 1.54348e-07 0 2.27716e-07 0
525.665 7.96365e-08 7.86145e-08 1.02202e-09 0.0128336 -0.218729 2.5126e-08 0 4.52597e-08 0 7.53848e-08 0 1.33904e-07 0 1.94492e-07 0
552.648 7.57246e-08 7.48893e-08 8.35258e-10 0.0110302 -0.217639 2.33243e-08 0 4.09014e-08 0 6.66117e-08 0 1.15511e-07 0 1.65332e-07 0
581.015 7.20714e-08 7.13889e-08 6.82533e-10 0.00947022 -0.216604 2.14437e-08 0 3.66634e-08 0 5.846e-08 0 9.91106e-08 0 1.39919e-07 0
610.838 6.86554e-08 6.80975e-08 5.5791e-10 0.00812624 -0.215622 1.95365e-08 0 3.26149e-08 0 5.09799e-08 0 8.46148e-08 0 1.17922e-07 0
642.193 6.54537e-08 6.49975e-08 4.56208e-10 0.00696994 -0.214691 1.76467e-08 0 2.88054e-08 0 4.41907e-08 0 7.18998e-08 0 9.89947e-08 0
675.157 6.24423e-08 6.20693e-08 3.7298e-10 0.00597319 -0.213807 1.581e-08 0 2.52672e-08 0 3.80871e-08 0 6.08213e-08 0 8.2795e-08 0
