# 0.000285692 1 86 : grain size, compostion index, size index
# Heating and cooling timescale: 3.25432e-05 4.11722e+14
# Ratio of heating to cooling to determine stochastic cutoff: 100
# Equilibrium emission is recorded even for those grains in the stochastic regime.
# Emission spectrum was computed for: 
# Type: ISRF
# Scales: 0.25 0.5 1 1.5 2 2.5 3 3.5 4 4.5 5 5.5 6 6.5 7 7.5 8 8.5 9 9.5 10
# StochasticallyHeated: 0 0 0 0 0 0 0 0 0 0 0 0 0 0 0 0 0 0 0 0 0
# Temperature: -1
# Wavelength  CExt  CAbs  CSca  Albedo G EqEm1 StEm1 EqEm2 StEm2 EqEm3 StEm3 EqEm4 StEm4 EqEm5 StEm5 EqEm6 StEm6 EqEm7 StEm7 EqEm8 StEm8 EqEm9 StEm9 EqEm10 StEm10 EqEm11 StEm11 EqEm12 StEm12 EqEm13 StEm13 EqEm14 StEm14 EqEm15 StEm15 EqEm16 StEm16 EqEm17 StEm17 EqEm18 StEm18 EqEm19 StEm19 EqEm20 StEm20 EqEm21 StEm21
0.05 5.21052e-07 2.19629e-07 3.01423e-07 0.578489 0.932417 0 0 0 0 0 0 0 0 0 0 0 0 0 0 0 0 0 0 0 0 0 0 0 0 0 0 0 0 0 0 0 0 0 0 0 0 0 0 0 0 0 0
0.0525665 5.21446e-07 2.17857e-07 3.0359e-07 0.582207 0.926706 0 0 0 0 0 0 0 0 0 0 0 0 0 0 0 0 0 0 0 0 0 0 0 0 0 0 0 0 0 0 0 0 0 0 0 0 0 0 0 0 0 0
0.0552647 5.21878e-07 2.14806e-07 3.07071e-07 0.588397 0.91798 0 0 0 0 0 0 0 0 0 0 0 0 0 0 0 0 0 0 0 0 0 0 0 0 0 0 0 0 0 0 0 0 0 0 0 0 0 0 0 0 0 0
0.0581015 5.22408e-07 2.10148e-07 3.1226e-07 0.597732 0.904416 0 0 0 0 0 0 0 0 0 0 0 0 0 0 0 0 0 0 0 0 0 0 0 0 0 0 0 0 0 0 0 0 0 0 0 0 0 0 0 0 0 0
0.0610839 5.2305e-07 2.05541e-07 3.17509e-07 0.607034 0.889214 0 0 0 0 0 0 0 0 0 0 0 0 0 0 0 0 0 0 0 0 0 0 0 0 0 0 0 0 0 0 0 0 0 0 0 0 0 0 0 0 0 0
0.0642193 5.23737e-07 2.02471e-07 3.21266e-07 0.613411 0.876857 0 0 0 0 0 0 0 0 0 0 0 0 0 0 0 0 0 0 0 0 0 0 0 0 0 0 0 0 0 0 0 0 0 0 0 0 0 0 0 0 0 0
0.0675157 5.24442e-07 2.00925e-07 3.23516e-07 0.616878 0.868145 0 0 0 0 0 0 0 0 0 0 0 0 0 0 0 0 0 0 0 0 0 0 0 0 0 0 0 0 0 0 0 0 0 0 0 0 0 0 0 0 0 0
0.0709813 5.25154e-07 2.00621e-07 3.24533e-07 0.617976 0.862655 0 0 0 0 0 0 0 0 0 0 0 0 0 0 0 0 0 0 0 0 0 0 0 0 0 0 0 0 0 0 0 0 0 0 0 0 0 0 0 0 0 0
0.0746248 5.25862e-07 2.0135e-07 3.24512e-07 0.617106 0.859983 0 0 0 0 0 0 0 0 0 0 0 0 0 0 0 0 0 0 0 0 0 0 0 0 0 0 0 0 0 0 0 0 0 0 0 0 0 0 0 0 0 0
0.0784553 5.26537e-07 2.03228e-07 3.23309e-07 0.614029 0.86061 0 0 0 0 0 0 0 0 0 0 0 0 0 0 0 0 0 0 0 0 0 0 0 0 0 0 0 0 0 0 0 0 0 0 0 0 0 0 0 0 0 0
0.0824824 5.27123e-07 2.06702e-07 3.20421e-07 0.607867 0.866037 0 0 0 0 0 0 0 0 0 0 0 0 0 0 0 0 0 0 0 0 0 0 0 0 0 0 0 0 0 0 0 0 0 0 0 0 0 0 0 0 0 0
0.0867162 5.27595e-07 2.08234e-07 3.19361e-07 0.605314 0.868967 0 0 0 0 0 0 0 0 0 0 0 0 0 0 0 0 0 0 0 0 0 0 0 0 0 0 0 0 0 0 0 0 0 0 0 0 0 0 0 0 0 0
0.0911674 5.28298e-07 2.06769e-07 3.21529e-07 0.608613 0.862586 0 0 0 0 0 0 0 0 0 0 0 0 0 0 0 0 0 0 0 0 0 0 0 0 0 0 0 0 0 0 0 0 0 0 0 0 0 0 0 0 0 0
0.095847 5.29038e-07 2.0701e-07 3.22028e-07 0.608705 0.859336 0 0 0 0 0 0 0 0 0 0 0 0 0 0 0 0 0 0 0 0 0 0 0 0 0 0 0 0 0 0 0 0 0 0 0 0 0 0 0 0 0 0
0.100767 5.29692e-07 2.08079e-07 3.21613e-07 0.60717 0.858849 0 0 0 0 0 0 0 0 0 0 0 0 0 0 0 0 0 0 0 0 0 0 0 0 0 0 0 0 0 0 0 0 0 0 0 0 0 0 0 0 0 0
0.105939 5.30221e-07 2.10553e-07 3.19668e-07 0.602895 0.862649 0 0 0 0 0 0 0 0 0 0 0 0 0 0 0 0 0 0 0 0 0 0 0 0 0 0 0 0 0 0 0 0 0 0 0 0 0 0 0 0 0 0
0.111377 5.30698e-07 2.13018e-07 3.1768e-07 0.598608 0.867588 0 0 0 0 0 0 0 0 0 0 0 0 0 0 0 0 0 0 0 0 0 0 0 0 0 0 0 0 0 0 0 0 0 0 0 0 0 0 0 0 0 0
0.117094 5.31213e-07 2.14747e-07 3.16466e-07 0.595742 0.870673 0 0 0 0 0 0 0 0 0 0 0 0 0 0 0 0 0 0 0 0 0 0 0 0 0 0 0 0 0 0 0 0 0 0 0 0 0 0 0 0 0 0
0.123105 5.31757e-07 2.16042e-07 3.15715e-07 0.59372 0.872603 0 0 0 0 0 0 0 0 0 0 0 0 0 0 0 0 0 0 0 0 0 0 0 0 0 0 0 0 0 0 0 0 0 0 0 0 0 0 0 0 0 0
0.129424 5.32327e-07 2.16983e-07 3.15344e-07 0.592388 0.873522 0 0 0 0 0 0 0 0 0 0 0 0 0 0 0 0 0 0 0 0 0 0 0 0 0 0 0 0 0 0 0 0 0 0 0 0 0 0 0 0 0 0
0.136067 5.32921e-07 2.17532e-07 3.15389e-07 0.591812 0.873241 0 0 0 0 0 0 0 0 0 0 0 0 0 0 0 0 0 0 0 0 0 0 0 0 0 0 0 0 0 0 0 0 0 0 0 0 0 0 0 0 0 0
0.143051 5.33528e-07 2.17455e-07 3.16073e-07 0.59242 0.8709 0 0 0 0 0 0 0 0 0 0 0 0 0 0 0 0 0 0 0 0 0 0 0 0 0 0 0 0 0 0 0 0 0 0 0 0 0 0 0 0 0 0
0.150394 5.33998e-07 2.18511e-07 3.15487e-07 0.590802 0.872024 0 0 0 0 0 0 0 0 0 0 0 0 0 0 0 0 0 0 0 0 0 0 0 0 0 0 0 0 0 0 0 0 0 0 0 0 0 0 0 0 0 0
0.158114 5.34447e-07 2.21056e-07 3.13391e-07 0.586384 0.878277 0 0 0 0 0 0 0 0 0 0 0 0 0 0 0 0 0 0 0 0 0 0 0 0 0 0 0 0 0 0 0 0 0 0 0 0 0 0 0 0 0 0
0.16623 5.35003e-07 2.23958e-07 3.11045e-07 0.581389 0.885907 0 0 0 0 0 0 0 0 0 0 0 0 0 0 0 0 0 0 0 0 0 0 0 0 0 0 0 0 0 0 0 0 0 0 0 0 0 0 0 0 0 0
0.174762 5.35662e-07 2.26637e-07 3.09025e-07 0.576903 0.892835 0 0 0 0 0 0 0 0 0 0 0 0 0 0 0 0 0 0 0 0 0 0 0 0 0 0 0 0 0 0 0 0 0 0 0 0 0 0 0 0 0 0
0.183733 5.36385e-07 2.29109e-07 3.07276e-07 0.572865 0.899021 0 0 0 0 0 0 0 0 0 0 0 0 0 0 0 0 0 0 0 0 0 0 0 0 0 0 0 0 0 0 0 0 0 0 0 0 0 0 0 0 0 0
0.193164 5.37163e-07 2.31319e-07 3.05844e-07 0.569369 0.904259 0 0 0 0 0 0 0 0 0 0 0 0 0 0 0 0 0 0 0 0 0 0 0 0 0 0 0 0 0 0 0 0 0 0 0 0 0 0 0 0 0 0
0.203079 5.37981e-07 2.33317e-07 3.04664e-07 0.56631 0.908695 0 0 0 0 0 0 0 0 0 0 0 0 0 0 0 0 0 0 0 0 0 0 0 0 0 0 0 0 0 0 0 0 0 0 0 0 0 0 0 0 0 0
0.213503 5.3885e-07 2.35172e-07 3.03678e-07 0.563567 0.912572 0 0 0 0 0 0 0 0 0 0 0 0 0 0 0 0 0 0 0 0 0 0 0 0 0 0 0 0 0 0 0 0 0 0 0 0 0 0 0 0 0 0
0.224463 5.39838e-07 2.36808e-07 3.0303e-07 0.561335 0.915735 0 0 0 0 0 0 0 0 0 0 0 0 0 0 0 0 0 0 0 0 0 0 0 0 0 0 0 0 0 0 0 0 0 0 0 0 0 0 0 0 0 0
0.235984 5.40625e-07 2.38249e-07 3.02376e-07 0.559309 0.918106 0 0 0 0 0 0 0 0 0 0 0 0 0 0 0 0 0 0 0 0 0 0 0 0 0 0 0 0 0 0 0 0 0 0 0 0 0 0 0 0 0 0
0.248097 5.41713e-07 2.39544e-07 3.02169e-07 0.557802 0.919947 0 0 0 0 0 0 0 0 0 0 0 0 0 0 0 0 0 0 0 0 0 0 0 0 0 0 0 0 0 0 0 0 0 0 0 0 0 0 0 0 0 0
0.260832 5.42711e-07 2.40724e-07 3.01987e-07 0.556441 0.921337 0 0 0 0 0 0 0 0 0 0 0 0 0 0 0 0 0 0 0 0 0 0 0 0 0 0 0 0 0 0 0 0 0 0 0 0 0 0 0 0 0 0
0.274221 5.43672e-07 2.41835e-07 3.01836e-07 0.555181 0.922428 0 0 0 0 0 0 0 0 0 0 0 0 0 0 0 0 0 0 0 0 0 0 0 0 0 0 0 0 0 0 0 0 0 0 0 0 0 0 0 0 0 0
0.288297 5.44818e-07 2.4289e-07 3.01928e-07 0.554181 0.923306 0 0 0 0 0 0 0 0 0 0 0 0 0 0 0 0 0 0 0 0 0 0 0 0 0 0 0 0 0 0 0 0 0 0 0 0 0 0 0 0 0 0
0.303095 5.46148e-07 2.43893e-07 3.02256e-07 0.553431 0.924006 0 0 0 0 0 0 0 0 0 0 0 0 0 0 0 0 0 0 0 0 0 0 0 0 0 0 0 0 0 0 0 0 0 0 0 0 0 0 0 0 0 0
0.318653 5.46937e-07 2.44853e-07 3.02084e-07 0.552319 0.924391 0 0 0 0 0 0 0 0 0 0 0 0 0 0 0 0 0 0 0 0 0 0 0 0 0 0 0 0 0 0 0 0 0 0 0 0 0 0 0 0 0 0
0.335009 5.47072e-07 2.45782e-07 3.01289e-07 0.550731 0.924426 0 0 0 0 0 0 0 0 0 0 0 0 0 0 0 0 0 0 0 0 0 0 0 0 0 0 0 0 0 0 0 0 0 0 0 0 0 0 0 0 0 0
0.352205 5.49398e-07 2.46666e-07 3.02732e-07 0.551026 0.924863 0 0 0 0 0 0 0 0 0 0 0 0 0 0 0 0 0 0 0 0 0 0 0 0 0 0 0 0 0 0 0 0 0 0 0 0 0 0 0 0 0 0
0.370284 5.50886e-07 2.47509e-07 3.03377e-07 0.550707 0.924922 0 0 0 0 0 0 0 0 0 0 0 0 0 0 0 0 0 0 0 0 0 0 0 0 0 0 0 0 0 0 0 0 0 0 0 0 0 0 0 0 0 0
0.389291 5.50225e-07 2.48324e-07 3.01902e-07 0.548687 0.92431 0 0 0 0 0 0 0 0 0 0 0 0 0 0 0 0 0 0 0 0 0 0 0 0 0 0 0 0 0 0 0 0 0 0 0 0 0 0 0 0 0 0
0.409273 5.54666e-07 2.49013e-07 3.05653e-07 0.551057 0.924749 0 0 0 0 0 0 0 0 0 0 0 0 0 0 0 0 0 0 0 0 0 0 0 0 0 0 0 0 0 0 0 0 0 0 0 0 0 0 0 0 0 0
0.430281 5.52143e-07 2.49742e-07 3.02401e-07 0.547686 0.923326 0 0 0 0 0 0 0 0 0 0 0 0 0 0 0 0 0 0 0 0 0 0 0 0 0 0 0 0 0 0 0 0 0 0 0 0 0 0 0 0 0 0
0.452368 5.58162e-07 2.50327e-07 3.07835e-07 0.551516 0.92384 0 0 0 0 0 0 0 0 0 0 0 0 0 0 0 0 0 0 0 0 0 0 0 0 0 0 0 0 0 0 0 0 0 0 0 0 0 0 0 0 0 0
0.475588 5.54376e-07 2.5087e-07 3.03506e-07 0.547473 0.921775 0 0 0 0 0 0 0 0 0 0 0 0 0 0 0 0 0 0 0 0 0 0 0 0 0 0 0 0 0 0 0 0 0 0 0 0 0 0 0 0 0 0
0.5 5.60394e-07 2.51336e-07 3.09059e-07 0.551502 0.921833 0 0 0 0 0 0 0 0 0 0 0 0 0 0 0 0 0 0 0 0 0 0 0 0 0 0 0 0 0 0 0 0 0 0 0 0 0 0 0 0 0 0
0.525665 5.60605e-07 2.51667e-07 3.08938e-07 0.55108 0.920311 0 0 0 0 0 0 0 0 0 0 0 0 0 0 0 0 0 0 0 0 0 0 0 0 0 0 0 0 0 0 0 0 0 0 0 0 0 0 0 0 0 0
0.552648 5.57856e-07 2.51782e-07 3.06074e-07 0.548662 0.917921 0 0 0 0 0 0 0 0 0 0 0 0 0 0 0 0 0 0 0 0 0 0 0 0 0 0 0 0 0 0 0 0 0 0 0 0 0 0 0 0 0 0
0.581015 5.69215e-07 2.52219e-07 3.16996e-07 0.5569 0.918938 0 0 0 0 0 0 0 0 0 0 0 0 0 0 0 0 0 0 0 0 0 0 0 0 0 0 0 0 0 0 0 0 0 0 0 0 0 0 0 0 0 0
0.610839 5.62618e-07 2.52041e-07 3.10577e-07 0.552021 0.914849 0 0 0 0 0 0 0 0 0 0 0 0 0 0 0 0 0 0 0 0 0 0 0 0 0 0 0 0 0 0 0 0 0 0 0 0 0 0 0 0 0 0
0.642193 5.61706e-07 2.52085e-07 3.09621e-07 0.551216 0.911823 0 0 0 0 0 0 0 0 0 0 0 0 0 0 0 0 0 0 0 0 0 0 0 0 0 0 0 0 0 0 0 0 0 0 0 0 0 0 0 0 0 0
0.675157 5.77002e-07 2.52094e-07 3.24908e-07 0.563097 0.913528 0 0 0 0 0 0 0 0 0 0 0 0 0 0 0 0 0 0 0 0 0 0 0 0 0 0 0 0 0 0 0 0 0 0 0 0 0 0 0 0 0 0
0.709813 5.72578e-07 2.5165e-07 3.20929e-07 0.560497 0.909468 0 0 0 0 0 0 0 0 0 0 0 0 0 0 0 0 0 0 0 0 0 0 0 0 0 0 0 0 0 0 0 0 0 0 0 0 0 0 0 0 0 0
0.746248 5.61419e-07 2.51083e-07 3.10337e-07 0.552771 0.903505 0 0 0 0 0 0 0 0 0 0 0 0 0 0 0 0 0 0 0 0 0 0 0 0 0 0 0 0 0 0 0 0 0 0 0 0 0 0 0 0 0 0
0.784553 5.74445e-07 2.50745e-07 3.237e-07 0.5635 0.90403 0 0 0 0 0 0 0 0 0 0 0 0 0 0 0 0 0 0 0 0 0 0 0 0 0 0 0 0 0 0 0 0 0 0 0 0 0 0 0 0 0 0
0.824824 5.91832e-07 2.506e-07 3.41232e-07 0.576569 0.904279 0 0 0 0 0 0 0 0 0 0 0 0 0 0 0 0 0 0 0 0 0 0 0 0 0 0 0 0 0 0 0 0 0 0 0 0 0 0 0 0 0 0
0.867162 5.8032e-07 2.48518e-07 3.31802e-07 0.571757 0.89584 0 0 0 0 0 0 0 0 0 0 0 0 0 0 0 0 0 0 0 0 0 0 0 0 0 0 0 0 0 0 0 0 0 0 0 0 0 0 0 0 0 0
0.911674 5.6457e-07 2.47703e-07 3.16867e-07 0.561253 0.88558 0 0 0 0 0 0 0 0 0 0 0 0 0 0 0 0 0 0 0 0 0 0 0 0 0 0 0 0 0 0 0 0 0 0 0 0 0 0 0 0 0 0
0.95847 5.72982e-07 2.47261e-07 3.25721e-07 0.568467 0.884066 0 0 0 0 0 0 0 0 0 0 0 0 0 0 0 0 0 0 0 0 0 0 0 0 0 0 0 0 0 0 0 0 0 0 0 0 0 0 0 0 0 0
1.00767 5.98688e-07 2.4422e-07 3.54467e-07 0.592074 0.888387 0 0 0 0 0 0 0 0 0 0 0 0 0 0 0 0 0 0 0 0 0 0 0 0 0 0 0 0 0 0 0 0 0 0 0 0 0 0 0 0 0 0
1.05939 6.11936e-07 2.43879e-07 3.68057e-07 0.601463 0.888498 0 0 0 0 0 0 0 0 0 0 0 0 0 0 0 0 0 0 0 0 0 0 0 0 0 0 0 0 0 0 0 0 0 0 0 0 0 0 0 0 0 0
1.11377 5.95792e-07 2.43495e-07 3.52297e-07 0.591309 0.878758 0 0 0 0 0 0 0 0 0 0 0 0 0 0 0 0 0 0 0 0 0 0 0 0 0 0 0 0 0 0 0 0 0 0 0 0 0 0 0 0 0 0
1.17094 5.71525e-07 2.43621e-07 3.27903e-07 0.573734 0.864065 0 0 0 0 0 0 0 0 0 0 0 0 0 0 0 0 0 0 0 0 0 0 0 0 0 0 0 0 0 0 0 0 0 0 0 0 0 0 0 0 0 0
1.23105 5.67834e-07 2.42554e-07 3.2528e-07 0.572843 0.856023 0 0 0 0 0 0 0 0 0 0 0 0 0 0 0 0 0 0 0 0 0 0 0 0 0 0 0 0 0 0 0 0 0 0 0 0 0 0 0 0 0 0
1.29424 5.94829e-07 2.41198e-07 3.53631e-07 0.594508 0.85712 0 0 0 0 0 0 0 0 0 0 0 0 0 0 0 0 0 0 0 0 0 0 0 0 0 0 0 0 0 0 0 0 0 0 0 0 0 0 0 0 0 0
1.36067 6.31944e-07 2.38907e-07 3.93037e-07 0.621949 0.858949 0 0 0 0 0 0 0 0 0 0 0 0 0 0 0 0 0 0 0 0 0 0 0 0 0 0 0 0 0 0 0 0 0 0 0 0 0 0 0 0 0 0
1.43051 6.51948e-07 2.35613e-07 4.16336e-07 0.638602 0.858466 0 0 0 0 0 0 0 0 0 0 0 0 0 0 0 0 0 0 0 0 0 0 0 0 0 0 0 0 0 0 0 0 0 0 0 0 0 0 0 0 0 0
1.50394 6.38238e-07 2.30744e-07 4.07494e-07 0.638467 0.848584 0 0 0 0 0 0 0 0 0 0 0 0 0 0 0 0 0 0 0 0 0 0 0 0 0 0 0 0 0 0 0 0 0 0 0 0 0 0 0 0 0 0
1.58114 6.01693e-07 2.26297e-07 3.75396e-07 0.6239 0.823048 0 0 0 0 0 0 0 0 0 0 0 0 0 0 0 0 0 0 0 0 0 0 0 0 0 0 0 0 0 0 0 0 0 0 0 0 0 0 0 0 0 0
1.6623 5.68428e-07 2.27116e-07 3.41312e-07 0.600448 0.80407 0 0 0 0 0 0 0 0 0 0 0 0 0 0 0 0 0 0 0 0 0 0 0 0 0 0 0 0 0 0 0 0 0 0 0 0 0 0 0 0 0 0
1.74763 5.62387e-07 2.26922e-07 3.35465e-07 0.596502 0.794255 0 0 0 0 0 0 0 0 0 0 0 0 0 0 0 0 0 0 0 0 0 0 0 0 0 0 0 0 0 0 0 0 0 0 0 0 0 0 0 0 0 0
1.83733 5.814e-07 2.24859e-07 3.56541e-07 0.613246 0.800269 0 0 0 0 0 0 0 0 0 0 0 0 0 0 0 0 0 0 0 0 0 0 0 0 0 0 0 0 0 0 0 0 0 0 0 0 0 0 0 0 0 0
1.93164 6.13571e-07 2.23243e-07 3.90328e-07 0.636158 0.817482 0 0 0 0 0 0 0 0 0 0 0 0 0 0 0 0 0 0 0 0 0 0 0 0 0 0 0 0 0 0 0 0 0 0 0 0 0 0 0 0 0 0
2.03079 6.60114e-07 2.20976e-07 4.39138e-07 0.665246 0.838803 0 0 0 0 0 0 0 0 0 0 0 0 0 0 0 0 0 0 0 0 0 0 0 0 0 0 0 0 0 0 0 0 0 0 0 0 0 0 0 0 0 0
2.13503 7.14795e-07 2.26392e-07 4.88403e-07 0.683277 0.840522 0 0 0 0 0 0 0 0 0 0 0 0 0 0 0 0 0 0 0 0 0 0 0 0 0 0 0 0 0 0 0 0 0 0 0 0 0 0 0 0 0 0
2.24463 7.2126e-07 2.26047e-07 4.95212e-07 0.686594 0.849654 0 0 0 0 0 0 0 0 0 0 0 0 0 0 0 0 0 0 0 0 0 0 0 0 0 0 0 0 0 0 0 0 0 0 0 0 0 0 0 0 0 0
2.35984 7.23065e-07 2.23114e-07 4.99951e-07 0.691433 0.825848 0 0 0 0 0 0 0 0 0 0 0 0 0 0 0 0 0 0 0 0 0 0 0 0 0 0 0 0 0 0 0 0 0 0 0 0 0 0 0 0 0 0
2.48097 6.83743e-07 2.24861e-07 4.58883e-07 0.671133 0.815943 0 0 0 0 0 0 0 0 0 0 0 0 0 0 0 0 0 0 0 0 0 0 0 0 0 0 0 0 0 0 0 0 0 0 0 0 0 0 0 0 0 0
2.60832 6.46076e-07 2.22064e-07 4.24012e-07 0.656288 0.761649 0 0 0 0 0 0 0 0 0 0 0 0 0 0 0 0 0 0 0 0 0 0 0 0 0 0 0 0 0 0 0 0 0 0 0 0 0 0 0 0 0 0
2.74221 5.90938e-07 2.23357e-07 3.67581e-07 0.62203 0.714172 0 0 0 0 0 0 0 0 0 0 0 0 0 0 0 0 0 0 0 0 0 0 0 0 0 0 0 0 0 0 0 0 0 0 0 0 0 0 0 0 0 0
2.88297 5.71021e-07 2.22761e-07 3.4826e-07 0.609889 0.651893 0 0 0 0 0 0 0 0 0 0 0 0 0 0 0 0 0 0 0 0 0 0 0 0 0 0 0 0 0 0 0 0 0 0 0 0 0 0 0 0 0 0
3.03095 5.32634e-07 2.26696e-07 3.05937e-07 0.574386 0.563667 0 0 0 0 0 0 0 0 0 0 0 0 0 0 0 0 0 0 0 0 0 0 0 0 0 0 0 0 0 0 0 0 0 0 0 0 0 0 0 0 0 0
3.18653 5.5047e-07 2.12771e-07 3.37699e-07 0.613474 0.565025 0 0 0 0 0 0 0 0 0 0 0 0 0 0 0 0 0 0 0 0 0 0 0 0 0 0 0 0 0 0 0 0 0 0 0 0 0 0 0 0 0 0
3.35009 5.79083e-07 2.30809e-07 3.48274e-07 0.601423 0.549931 0 0 0 0 0 0 0 0 0 0 0 0 0 0 0 0 0 0 0 0 0 0 0 0 0 0 0 0 0 0 0 0 0 0 0 0 0 0 0 0 0 0
3.52205 5.87766e-07 2.02833e-07 3.84934e-07 0.654909 0.558636 0 0 0 0 0 0 0 0 0 0 0 0 0 0 0 0 0 0 0 0 0 0 0 0 0 0 0 0 0 0 0 0 0 0 0 0 0 0 0 0 0 0
3.70284 6.90252e-07 2.0573e-07 4.84522e-07 0.701949 0.614304 0 0 0 0 0 0 0 0 0 0 0 0 0 0 0 0 0 0 0 0 0 0 0 0 0 0 0 0 0 0 0 0 0 0 0 0 0 0 0 0 0 0
3.89291 7.58557e-07 2.20679e-07 5.37878e-07 0.709081 0.631756 0 0 0 0 0 0 0 0 0 0 0 0 0 0 0 0 0 0 0 0 0 0 0 0 0 0 0 0 0 0 0 0 0 0 0 0 0 0 0 0 0 0
4.09273 7.85052e-07 1.89314e-07 5.95738e-07 0.758851 0.66752 0 0 0 0 0 0 0 0 0 0 0 0 0 0 0 0 0 0 0 0 0 0 0 0 0 0 0 0 0 0 0 0 0 0 0 0 0 0 0 0 0 0
4.30281 9.01132e-07 1.87783e-07 7.13349e-07 0.791615 0.701253 0 0 0 0 0 0 0 0 0 0 0 0 0 0 0 0 0 0 0 0 0 0 0 0 0 0 0 0 0 0 0 0 0 0 0 0 0 0 0 0 0 0
4.52368 9.75467e-07 2.00113e-07 7.75354e-07 0.794854 0.707984 0 0 0 0 0 0 0 0 0 0 0 0 0 0 0 0 0 0 0 0 0 0 0 0 0 0 0 0 0 0 0 0 0 0 0 0 0 0 0 0 0 0
4.75588 9.56633e-07 1.788e-07 7.77834e-07 0.813095 0.719182 0 0 0 0 0 0 0 0 0 0 0 0 0 0 0 0 0 0 0 0 0 0 0 0 0 0 0 0 0 0 0 0 0 0 0 0 0 0 0 0 0 0
5 9.95322e-07 1.65873e-07 8.29449e-07 0.833347 0.744848 0 0 0 0 0 0 0 0 0 0 0 0 0 0 0 0 0 0 0 0 0 0 0 0 0 0 0 0 0 0 0 0 0 0 0 0 0 0 0 0 0 0
5.25665 1.04013e-06 1.71989e-07 8.68141e-07 0.834647 0.754089 0 0 0 0 0 0 0 0 0 0 0 0 0 0 0 0 0 0 0 0 0 0 0 0 0 0 0 0 0 0 0 0 0 0 0 0 0 0 0 0 0 0
5.52648 9.95528e-07 1.69736e-07 8.25791e-07 0.829501 0.746676 0 0 0 0 0 0 0 0 0 0 0 0 0 0 0 0 0 0 0 0 0 0 0 0 0 0 0 0 0 0 0 0 0 0 0 0 0 0 0 0 0 0
5.81015 9.1191e-07 1.55102e-07 7.56808e-07 0.829915 0.742117 0 0 0 0 0 0 0 0 0 0 0 0 0 0 0 0 0 0 0 0 0 0 0 0 0 0 0 0 0 0 0 0 0 0 0 0 0 0 0 0 0 0
6.10839 8.56761e-07 1.49778e-07 7.06984e-07 0.825182 0.751793 0 0 0 0 0 0 0 0 0 0 0 0 0 0 0 0 0 0 0 0 0 0 0 0 0 0 0 0 0 0 0 0 0 0 0 0 0 0 0 0 0 0
6.42193 7.88218e-07 1.5019e-07 6.38028e-07 0.809456 0.761124 0 0 0 0 0 0 0 0 0 0 0 0 0 0 0 0 0 0 0 0 0 0 0 0 0 0 0 0 0 0 0 0 0 0 0 0 0 0 0 0 0 0
6.75157 6.68478e-07 1.42345e-07 5.26133e-07 0.787061 0.754458 0 0 0 0 0 0 0 0 0 0 0 0 0 0 0 0 0 0 0 0 0 0 0 0 0 0 0 0 0 0 0 0 0 0 0 0 0 0 0 0 0 0
7.09813 5.18785e-07 1.27708e-07 3.91077e-07 0.753832 0.730567 0 0 0 0 0 0 0 0 0 0 0 0 0 0 0 0 0 0 0 0 0 0 0 0 0 0 0 0 0 0 0 0 0 0 0 0 0 0 0 0 0 0
7.46248 3.63973e-07 1.31759e-07 2.32214e-07 0.637998 0.720453 0 0 0 0 0 0 0 0 0 0 0 0 0 0 0 0 0 0 0 0 0 0 0 0 0 0 0 0 0 0 0 0 0 0 0 0 0 0 0 0 0 0
7.84553 2.81542e-07 1.84698e-07 9.68447e-08 0.343979 0.730776 0 0 0 0 0 0 0 0 0 0 0 0 0 0 0 0 0 0 0 0 0 0 0 0 0 0 0 0 0 0 0 0 1.4013e-45 0 4.2039e-45 0 1.26117e-44 0 3.22299e-44 0 8.12753e-44 0
8.24824 3.44385e-07 2.61163e-07 8.32226e-08 0.241655 0.70965 0 0 0 0 0 0 0 0 0 0 0 0 0 0 0 0 0 0 0 0 0 0 0 0 2.8026e-45 0 9.80909e-45 0 3.92364e-44 0 1.28919e-43 0 3.9937e-43 0 1.12384e-42 0 2.98757e-42 0 7.27274e-42 0 1.74392e-41 0
8.67162 4.29257e-07 3.10991e-07 1.18266e-07 0.275513 0.67523 0 0 0 0 0 0 0 0 0 0 0 0 0 0 0 0 0 0 2.8026e-45 0 2.24208e-44 0 1.20512e-43 0 5.395e-43 0 2.07112e-42 0 7.40586e-42 0 2.30486e-41 0 6.7551e-41 0 1.80601e-40 0 4.57915e-40 0 1.06734e-39 0 2.45257e-39 0
9.11674 5.33673e-07 3.57639e-07 1.76034e-07 0.329853 0.635992 0 0 0 0 0 0 0 0 0 0 0 0 0 0 8.40779e-45 0 8.82818e-44 0 6.9084e-43 0 4.09039e-42 0 2.07658e-41 0 8.64937e-41 0 3.10909e-40 0 1.04495e-39 0 3.07668e-39 0 8.55574e-39 0 2.1802e-38 0 5.28242e-38 0 1.18143e-37 0 2.60666e-37 0
9.5847 6.34261e-07 3.97493e-07 2.36768e-07 0.373297 0.60892 0 0 0 0 0 0 0 0 0 0 4.2039e-45 0 1.13505e-43 0 1.59748e-42 0 1.49575e-41 0 1.05224e-40 0 5.71157e-40 0 2.67819e-39 0 1.04045e-38 0 3.51349e-38 0 1.11301e-37 0 3.10875e-37 0 8.22384e-37 0 2.00206e-36 0 4.6457e-36 0 9.9898e-36 0 2.12058e-35 0
10.0767 6.80745e-07 4.13781e-07 2.66964e-07 0.392165 0.584762 0 0 0 0 0 0 0 0 1.68156e-44 0 8.00141e-43 0 1.75471e-41 0 2.17091e-40 0 1.82308e-39 0 1.16595e-38 0 5.82708e-38 0 2.5338e-37 0 9.21249e-37 0 2.9315e-36 0 8.77808e-36 0 2.33188e-35 0 5.88259e-35 0 1.37122e-34 0 3.05373e-34 0 6.3256e-34 0 1.29431e-33 0
10.5939 7.17002e-07 4.21545e-07 2.95457e-07 0.412072 0.554336 0 0 0 0 0 0 1.82169e-44 0 2.66807e-42 0 1.08894e-40 0 2.05549e-39 0 2.24919e-38 0 1.70243e-37 0 9.94482e-37 0 4.59464e-36 0 1.85955e-35 0 6.34806e-35 0 1.90901e-34 0 5.41831e-34 0 1.37232e-33 0 3.30899e-33 0 7.40098e-33 0 1.58502e-32 0 3.16859e-32 0 6.26069e-32 0
11.1377 7.29651e-07 4.20601e-07 3.0905e-07 0.423558 0.522965 0 0 0 0 2.8026e-45 0 2.96375e-42 0 3.31748e-40 0 1.12994e-38 0 1.84788e-37 0 1.79908e-36 0 1.2336e-35 0 6.61116e-35 0 2.83453e-34 0 1.0715e-33 0 3.44503e-33 0 9.81781e-33 0 2.64819e-32 0 6.40967e-32 0 1.48052e-31 0 3.18375e-31 0 6.56957e-31 0 1.26964e-30 0 2.42659e-30 0
11.7094 7.39731e-07 4.17875e-07 3.21856e-07 0.435098 0.488532 0 0 0 0 4.27396e-43 0 3.60704e-40 0 3.20653e-38 0 9.19332e-37 0 1.31171e-35 0 1.14277e-34 0 7.1328e-34 0 3.5218e-33 0 1.40638e-32 0 4.98215e-32 0 1.51305e-31 0 4.09702e-31 0 1.05284e-30 0 2.44065e-30 0 5.4117e-30 0 1.12104e-29 0 2.23286e-29 0 4.17862e-29 0 7.73775e-29 0
12.3105 7.5454e-07 4.1521e-07 3.3933e-07 0.449718 0.458072 0 0 0 0 5.64891e-41 0 3.42931e-38 0 2.44872e-36 0 5.9596e-35 0 7.4683e-34 0 5.85385e-33 0 3.34129e-32 0 1.52601e-31 0 5.69555e-31 0 1.89685e-30 0 5.45648e-30 0 1.40736e-29 0 3.45373e-29 0 7.6843e-29 0 1.63888e-28 0 3.27637e-28 0 6.30989e-28 0 1.14526e-27 0 2.05789e-27 0
12.9424 7.69049e-07 4.12263e-07 3.56785e-07 0.463931 0.440341 0 0 6.5861e-44 0 5.80195e-39 0 2.5759e-36 0 1.49333e-34 0 3.10992e-33 0 3.44465e-32 0 2.44177e-31 0 1.2801e-30 0 5.42853e-30 0 1.89991e-29 0 5.96649e-29 0 1.63003e-28 0 4.01419e-28 0 9.42854e-28 0 2.01745e-27 0 4.14653e-27 0 8.01388e-27 0 1.49477e-26 0 2.63523e-26 0 4.6016e-26 0
13.6067 7.49892e-07 3.99456e-07 3.50436e-07 0.467315 0.440614 0 0 8.99073e-42 0 4.58034e-37 0 1.51008e-34 0 7.1802e-33 0 1.2893e-31 0 1.26986e-30 0 8.18066e-30 0 3.95545e-29 0 1.56315e-28 0 5.14622e-28 0 1.5283e-27 0 3.97535e-27 0 9.36846e-27 0 2.11061e-26 0 4.35148e-26 0 8.63462e-26 0 1.61596e-25 0 2.92377e-25 0 5.01377e-25 0 8.51991e-25 0
14.3051 6.413e-07 3.60041e-07 2.81259e-07 0.438576 0.422808 8.40779e-45 0 8.93182e-40 0 2.6804e-35 0 6.6582e-33 0 2.62186e-31 0 4.08874e-30 0 3.60157e-29 0 2.11848e-28 0 9.48453e-28 0 3.50495e-27 0 1.08869e-26 0 3.06581e-26 0 7.61098e-26 0 1.72011e-25 0 3.72456e-25 0 7.41245e-25 0 1.42245e-24 0 2.58187e-24 0 4.53812e-24 0 7.57985e-24 0 1.25513e-23 0
15.0394 5.51227e-07 3.39543e-07 2.11684e-07 0.384023 0.366331 1.22053e-42 0 7.28956e-38 0 1.3224e-33 0 2.50945e-31 0 8.25935e-30 0 1.12637e-28 0 8.9217e-28 0 4.81292e-27 0 2.0027e-26 0 6.94331e-26 0 2.04059e-25 0 5.46316e-25 0 1.29736e-24 0 2.81765e-24 0 5.87521e-24 0 1.13062e-23 0 2.10171e-23 0 3.70535e-23 0 6.33594e-23 0 1.03209e-22 0 1.66745e-22 0
