# 1.38236e-07 3 13 : grain size, compostion index, size index
# Heating and cooling timescale: 148100 8.00573
# Ratio of heating to cooling to determine stochastic cutoff: 100
# Equilibrium emission is recorded even for those grains in the stochastic regime.
# Emission spectrum was computed for: 
# Type: IRSF
# Scales: 0.5 1 2 5 10
# StochasticallyHeated: 1 1 1 1 1
# Temperature: -1
# Wavelength  CExt  CAbs  CSca  Albedo G EqEm1 StEm1 EqEm2 StEm2 EqEm3 StEm3 EqEm4 StEm4 EqEm5 StEm5
0.05 1.10988e-14 1.10874e-14 1.13952e-17 0.00102671 0.00447048 0 0 0 0 0 0 0 0 0 0
0.0525665 1.1481e-14 1.14701e-14 1.08698e-17 0.000946768 0.00401764 0 0 0 0 0 0 0 0 0 0
0.0552647 1.20438e-14 1.2033e-14 1.07788e-17 0.000894969 0.00359515 0 0 0 0 0 0 0 0 0 0
0.0581015 1.32003e-14 1.31887e-14 1.16033e-17 0.000879021 0.00319529 0 0 0 0 0 0 0 0 0 0
0.0610839 1.4961e-14 1.49479e-14 1.30498e-17 0.000872257 0.00282987 0 0 0 0 0 0 0 0 0 0
0.0642193 1.66692e-14 1.66551e-14 1.4157e-17 0.000849287 0.00251147 0 0 0 0 0 0 0 0 0 0
0.0675157 1.77322e-14 1.77178e-14 1.43941e-17 0.000811748 0.00224263 0 0 0 0 0 0 0 0 0 0
0.0709813 1.78298e-14 1.78161e-14 1.36594e-17 0.000766102 0.00202419 0 0 0 0 0 0 0 0 0 0
0.0746248 1.6923e-14 1.69109e-14 1.21267e-17 0.000716581 0.00185711 0 0 0 0 0 0 0 0 0 0
0.0784553 1.51732e-14 1.51632e-14 1.00544e-17 0.000662639 0.00174381 0 0 0 0 0 0 0 0 0 0
0.0824824 1.2875e-14 1.28673e-14 7.70783e-18 0.000598666 0.00168234 0 0 0 0 0 0 0 0 0 0
0.0867162 1.17928e-14 1.17867e-14 6.07659e-18 0.000515281 0.00155178 0 0 0 0 0 0 0 0 0 0
0.0911674 1.11323e-14 1.11269e-14 5.36969e-18 0.000482354 0.00141916 0 0 0 0 0 0 0 0 0 0
0.095847 9.63e-15 9.6255e-15 4.50307e-18 0.000467609 0.00136425 0 0 0 0 0 0 0 0 0 0
0.100767 8.14182e-15 8.13819e-15 3.63875e-18 0.000446921 0.00132699 0 0 0 0 0 0 0 0 0 0
0.105939 6.60648e-15 6.60368e-15 2.80064e-18 0.000423923 0.00130968 0 0 0 0 0 0 0 0 0 0
0.111377 5.5511e-15 5.54895e-15 2.14726e-18 0.000386816 0.00125193 0 0 0 0 0 0 0 0 0 0
0.117094 4.74214e-15 4.74045e-15 1.68428e-18 0.000355173 0.00118162 0 0 0 0 0 0 0 0 0 0
0.123105 4.07498e-15 4.07365e-15 1.33908e-18 0.000328611 0.00110852 0 0 0 0 0 0 0 0 0 0
0.129424 3.50088e-15 3.4998e-15 1.07684e-18 0.000307592 0.00103742 0 0 0 0 0 0 0 0 0 0
0.136067 2.98738e-15 2.9865e-15 8.77837e-19 0.000293849 0.000972233 0 0 0 0 0 0 0 0 0 0
0.143051 2.46022e-15 2.45949e-15 7.29836e-19 0.000296655 0.000921998 0 0 0 0 0 0 0 0 0 0
0.150394 1.75086e-15 1.75027e-15 5.84001e-19 0.000333552 0.000877777 0 0 0 0 0 0 0 0 0 0
0.158114 1.15403e-15 1.15358e-15 4.44812e-19 0.000385443 0.000802783 0 0 0 0 0 0 0 0 0 0
0.16623 7.54618e-16 7.54284e-16 3.3412e-19 0.000442768 0.000714171 0 0 0 0 0 0 0 0 0 0
0.174762 5.12641e-16 5.12389e-16 2.51859e-19 0.000491296 0.00063037 0 0 0 0 0 0 0 0 0 0
0.183733 3.42879e-16 3.42688e-16 1.90524e-19 0.000555659 0.000556178 0 0 0 0 0 0 0 0 0 0
0.193164 2.33676e-16 2.33531e-16 1.45286e-19 0.000621741 0.000491976 0 0 0 0 0 0 0 0 0 0
0.203079 1.62552e-16 1.6244e-16 1.11623e-19 0.000686693 0.000436498 0 0 0 0 0 0 0 0 0 0
0.213503 1.2015e-16 1.20064e-16 8.61291e-20 0.000716848 0.000388077 0 0 0 0 0 0 0 0 0 0
0.224463 1.01185e-16 1.01119e-16 6.69555e-20 0.000661711 0.000346012 0 0 0 0 0 0 0 0 0 0
0.235984 9.60023e-17 9.59497e-17 5.2602e-20 0.000547924 0.000309561 0 0 0 0 0 0 0 0 0 0
0.248097 9.53082e-17 9.52665e-17 4.17049e-20 0.00043758 0.000277719 0 0 0 0 0 0 0 0 0 0
0.260832 9.28378e-17 9.28046e-17 3.32464e-20 0.000358112 0.000249563 0 0 0 0 0 0 0 0 0 0
0.274221 8.97569e-17 8.97303e-17 2.66031e-20 0.00029639 0.000224508 0 0 0 0 0 0 0 0 0 0
0.288297 8.64659e-17 8.64445e-17 2.13757e-20 0.000247215 0.0002022 0 0 0 0 0 0 0 0 0 0
0.303095 8.3174e-17 8.31568e-17 1.72207e-20 0.000207044 0.000182237 0 0 0 0 0 0 0 0 0 0
0.318653 7.98608e-17 7.98469e-17 1.38974e-20 0.000174021 0.00016432 0 0 0 0 0 0 0 0 0 0
0.335009 7.65766e-17 7.65654e-17 1.12412e-20 0.000146797 0.000148251 0 0 0 0 0 0 0 0 0 0
0.352205 7.33725e-17 7.33634e-17 9.1072e-21 0.000124123 0.000133809 0 0 0 0 0 0 0 0 0 0
0.370284 7.02338e-17 7.02264e-17 7.38551e-21 0.000105156 0.000120802 0 0 0 0 0 0 0 0 0 0
0.389291 6.71879e-17 6.71819e-17 5.99737e-21 8.92628e-05 0.000109093 0 0 0 0 0 0 0 0 0 0
0.409273 6.42064e-17 6.42015e-17 4.8786e-21 7.59831e-05 9.85624e-05 0 0 0 0 0 0 0 0 0 0
0.430281 6.13082e-17 6.13042e-17 3.96954e-21 6.47473e-05 8.90535e-05 0 0 0 0 0 0 0 0 0 0
0.452368 5.85134e-17 5.85102e-17 3.23383e-21 5.52665e-05 8.04833e-05 0 0 0 0 0 0 0 0 0 0
0.475588 5.5822e-17 5.58193e-17 2.63546e-21 4.7212e-05 7.27436e-05 0 0 0 0 0 0 0 0 0 0
0.5 5.32528e-17 5.32506e-17 2.15015e-21 4.03763e-05 6.57669e-05 0 0 0 0 0 0 0 0 0 0
0.525665 5.07988e-17 5.07971e-17 1.75441e-21 3.45364e-05 5.94599e-05 0 0 0 0 0 0 0 0 0 0
0.552647 4.84602e-17 4.84588e-17 1.43112e-21 2.95319e-05 5.37536e-05 0 0 0 0 0 0 0 0 0 0
0.581015 4.62012e-17 4.62001e-17 1.16963e-21 2.5316e-05 4.86162e-05 0 0 0 0 0 0 0 0 0 0
0.610839 4.40537e-17 4.40527e-17 9.56045e-22 2.17018e-05 4.39718e-05 0 0 0 0 0 0 0 0 0 0
0.642193 4.20101e-17 4.20093e-17 7.81178e-22 1.8595e-05 3.97672e-05 0 0 0 0 0 0 0 0 0 0
0.675157 4.00678e-17 4.00672e-17 6.38424e-22 1.59336e-05 3.59653e-05 0 0 0 0 0 0 0 0 0 0
0.709813 3.82253e-17 3.82248e-17 5.22267e-22 1.36628e-05 3.25355e-05 0 0 0 0 0 0 0 0 0 0
0.746248 3.64751e-17 3.64747e-17 4.27205e-22 1.17122e-05 2.94317e-05 0 0 0 0 0 0 0 0 0 0
0.784553 3.48096e-17 3.48093e-17 3.49337e-22 1.00356e-05 2.66218e-05 0 0 0 0 0 0 0 0 0 0
0.824824 3.32085e-17 3.32082e-17 2.85773e-22 8.60542e-06 2.4082e-05 0 0 0 0 0 0 0 2.8026e-45 0 1.68156e-44
0.867162 3.16768e-17 3.16765e-17 2.3397e-22 7.38618e-06 2.17894e-05 0 0 0 0 0 1.4013e-45 0 4.90454e-44 0 3.60134e-43
0.911674 3.02149e-17 3.02147e-17 1.91515e-22 6.33842e-06 1.97136e-05 0 0 0 1.4013e-45 0 4.2039e-44 0 9.43074e-43 0 6.50343e-42
0.95847 2.88123e-17 2.88122e-17 1.56745e-22 5.44022e-06 1.78348e-05 0 4.2039e-45 0 4.34403e-44 0 7.83326e-43 0 1.56217e-41 0 1.01483e-40
1.00767 2.74806e-17 2.74804e-17 1.2832e-22 4.66949e-06 1.61362e-05 0 1.37327e-43 0 9.09443e-43 0 1.27392e-41 0 2.24461e-40 0 1.37917e-39
1.05939 2.62219e-17 2.62218e-17 1.05059e-22 4.00655e-06 1.45999e-05 0 3.98249e-42 0 1.77559e-41 0 1.83811e-40 0 2.8271e-39 0 1.64584e-38
1.11377 2.50241e-17 2.5024e-17 8.59911e-23 3.43633e-06 1.32087e-05 0 9.88742e-41 0 3.28457e-40 0 2.41196e-39 0 3.15773e-38 0 1.73925e-37
1.17094 2.38792e-17 2.38792e-17 7.03552e-23 2.94629e-06 1.19489e-05 0 2.09966e-39 0 5.72111e-39 0 2.96677e-38 0 3.1776e-37 0 1.64444e-36
1.23105 2.27897e-17 2.27897e-17 5.7591e-23 2.52706e-06 1.08109e-05 0 3.82943e-38 0 9.21552e-38 0 3.51549e-37 0 2.94499e-36 0 1.41068e-35
1.29424 2.18069e-17 2.18069e-17 4.71249e-23 2.16101e-06 9.7803e-06 0 6.04516e-37 0 1.35028e-36 0 4.06883e-36 0 2.58982e-35 0 1.12141e-34
1.36067 2.08844e-17 2.08843e-17 3.85758e-23 1.84711e-06 8.84854e-06 0 8.29422e-36 0 1.77312e-35 0 4.54899e-35 0 2.21601e-34 0 8.44434e-34
1.43051 2.0006e-17 2.0006e-17 3.15539e-23 1.57722e-06 8.00416e-06 0 9.9459e-35 0 2.07214e-34 0 4.8063e-34 0 1.87205e-33 0 6.17143e-33
1.50394 1.91699e-17 1.91699e-17 2.58286e-23 1.34735e-06 7.24173e-06 0 1.04878e-33 0 2.15199e-33 0 4.70018e-33 0 1.55482e-32 0 4.45303e-32
1.58114 1.83691e-17 1.83691e-17 2.1136e-23 1.15062e-06 6.55144e-06 0 9.78131e-33 0 1.98875e-32 0 4.19373e-32 0 1.24556e-31 0 3.17474e-31
1.6623 1.76015e-17 1.76015e-17 1.72813e-23 9.81812e-07 5.92566e-06 0 8.11512e-32 0 1.64079e-31 0 3.38988e-31 0 9.41785e-31 0 2.20511e-30
1.74762 1.68784e-17 1.68784e-17 1.41331e-23 8.37349e-07 5.36013e-06 0 6.02755e-31 0 1.21448e-30 0 2.47909e-30 0 6.61639e-30 0 1.46391e-29
1.83733 1.6218e-17 1.6218e-17 1.15558e-23 7.12531e-07 4.84832e-06 0 4.03484e-30 0 8.11179e-30 0 1.64398e-29 0 4.28359e-29 0 9.14285e-29
1.93164 1.56008e-17 1.56008e-17 9.44447e-24 6.05383e-07 4.38484e-06 0 2.44445e-29 0 4.90739e-29 0 9.90207e-29 0 2.54314e-28 0 5.30775e-28
2.03079 1.50179e-17 1.50179e-17 7.71771e-24 5.13901e-07 3.9655e-06 0 1.34635e-28 0 2.70032e-28 0 5.43382e-28 0 1.3833e-27 0 2.84704e-27
2.13503 1.44655e-17 1.44655e-17 6.3069e-24 4.35996e-07 3.58648e-06 0 6.77226e-28 0 1.35742e-27 0 2.72677e-27 0 6.90348e-27 0 1.4084e-26
2.24463 1.39509e-17 1.39509e-17 5.15068e-24 3.69202e-07 3.24313e-06 0 3.12687e-27 0 6.26464e-27 0 1.25701e-26 0 3.17125e-26 0 6.43334e-26
2.35984 1.34591e-17 1.34591e-17 4.20433e-24 3.12377e-07 2.93232e-06 0 1.32962e-26 0 2.66304e-26 0 5.33937e-26 0 1.34394e-25 0 2.71632e-25
2.48097 1.29943e-17 1.29943e-17 3.42854e-24 2.63849e-07 2.65064e-06 0 5.23001e-26 0 1.04726e-25 0 2.09865e-25 0 5.27423e-25 0 1.06336e-24
2.60832 1.25643e-17 1.25643e-17 2.79676e-24 2.22595e-07 2.39645e-06 0 1.91171e-25 0 3.82736e-25 0 7.66704e-25 0 1.92478e-24 0 3.87401e-24
2.74221 1.21561e-17 1.21561e-17 2.28026e-24 1.87581e-07 2.16614e-06 0 6.51149e-25 0 1.30347e-24 0 2.61045e-24 0 6.54848e-24 0 1.31642e-23
2.88297 1.17771e-17 1.17771e-17 1.85596e-24 1.57591e-07 1.95746e-06 0 2.07537e-24 0 4.15406e-24 0 8.31768e-24 0 2.0854e-23 0 4.18856e-23
3.03095 1.1419e-17 1.1419e-17 1.51039e-24 1.3227e-07 1.76871e-06 0 6.20646e-24 0 1.24218e-23 0 2.48686e-23 0 6.23244e-23 0 1.25099e-22
3.18653 1.11063e-17 1.11063e-17 1.22855e-24 1.10617e-07 1.5979e-06 0 1.751e-23 0 3.50428e-23 0 7.01478e-23 0 1.75746e-22 0 3.52586e-22
3.35009 1.08107e-17 1.08107e-17 9.97981e-25 9.23145e-08 1.44335e-06 0 4.66331e-23 0 9.33216e-23 0 1.86792e-22 0 4.67866e-22 0 9.38287e-22
3.52205 1.04897e-17 1.04897e-17 8.09254e-25 7.71473e-08 1.30326e-06 0 1.17105e-22 0 2.34337e-22 0 4.69013e-22 0 1.17452e-21 0 2.35474e-21
3.70284 1.01736e-17 1.01736e-17 6.55822e-25 6.4463e-08 1.17661e-06 0 2.78776e-22 0 5.57835e-22 0 1.11641e-21 0 2.7953e-21 0 5.60277e-21
3.89291 9.86807e-18 9.86807e-18 5.30419e-25 5.3751e-08 1.06216e-06 0 6.31081e-22 0 1.26276e-21 0 2.52705e-21 0 6.32645e-21 0 1.26779e-20
4.09273 9.5786e-18 9.5786e-18 4.27832e-25 4.46654e-08 9.57761e-07 0 1.36262e-21 0 2.72644e-21 0 5.45594e-21 0 1.36574e-20 0 2.73638e-20
4.30281 9.27551e-18 9.27551e-18 3.44112e-25 3.7099e-08 8.63528e-07 0 2.80397e-21 0 5.61024e-21 0 1.12263e-20 0 2.8099e-20 0 5.62907e-20
4.52368 8.99646e-18 8.99646e-18 2.76035e-25 3.06827e-08 7.78196e-07 0 5.53293e-21 0 1.10701e-20 0 2.21509e-20 0 5.5438e-20 0 1.11045e-19
4.75588 8.75436e-18 8.75436e-18 2.2051e-25 2.51886e-08 7.00885e-07 0 1.05085e-20 0 2.10245e-20 0 4.2068e-20 0 1.05277e-19 0 2.1085e-19
5 8.57263e-18 8.57263e-18 1.75061e-25 2.04209e-08 6.30477e-07 0 1.93062e-20 0 3.86255e-20 0 7.72835e-20 0 1.93392e-19 0 3.8729e-19
5.25665 8.47386e-18 8.47386e-18 1.38089e-25 1.62959e-08 5.66372e-07 0 3.44812e-20 0 6.89845e-20 0 1.38023e-19 0 3.45364e-19 0 6.91568e-19
5.52648 8.44651e-18 8.44651e-18 1.082e-25 1.28101e-08 5.0845e-07 0 5.99125e-20 0 1.19861e-19 0 2.39811e-19 0 6.00023e-19 0 1.20141e-18
5.81015 8.53263e-18 8.53263e-18 8.37681e-26 9.81738e-09 4.55113e-07 0 1.01959e-19 0 2.03975e-19 0 4.08092e-19 0 1.02102e-18 0 2.04421e-18
6.10839 8.69596e-18 8.69596e-18 6.40249e-26 7.3626e-09 4.0729e-07 0 1.69441e-19 0 3.38972e-19 0 6.78166e-19 0 1.69665e-18 0 3.39666e-18
6.42193 8.82507e-18 8.82507e-18 4.80479e-26 5.44447e-09 3.64163e-07 0 2.71839e-19 0 5.43814e-19 0 1.08796e-18 0 2.72176e-18 5.60519e-45 5.44858e-18
6.75157 8.84808e-18 8.84808e-18 3.4723e-26 3.92436e-09 3.23406e-07 0 4.18313e-19 0 8.36823e-19 0 1.67413e-18 0 4.18799e-18 3.09687e-43 8.38329e-18
7.09813 8.98993e-18 8.98993e-18 2.3254e-26 2.58667e-09 2.86507e-07 0 6.34233e-19 0 1.26874e-18 0 2.53817e-18 1.4013e-45 6.34925e-18 1.4652e-41 1.27089e-17
7.46248 1.10773e-17 1.10773e-17 1.3103e-26 1.18287e-09 2.49962e-07 0 1.13534e-18 0 2.27114e-18 0 4.54344e-18 7.42688e-44 1.1365e-17 6.87994e-40 2.27474e-17
7.84553 2.15294e-17 2.15294e-17 6.54882e-27 3.04181e-10 2.14742e-07 0 3.12491e-18 0 6.25104e-18 0 1.2505e-17 7.13821e-42 3.12792e-17 4.21406e-38 6.26034e-17
8.24824 4.47867e-17 4.47867e-17 8.00271e-27 1.78685e-10 1.82492e-07 0 8.98505e-18 0 1.79734e-17 2.8026e-45 3.59548e-17 5.96886e-40 8.99317e-17 2.30595e-36 1.79985e-16
8.67162 6.83579e-17 6.83579e-17 1.43947e-26 2.10579e-10 1.59337e-07 0 1.8522e-17 0 3.70503e-17 2.08793e-43 7.41161e-17 3.02044e-38 1.85377e-16 7.79648e-35 3.70989e-16
9.11674 1.00779e-16 1.00779e-16 2.80698e-26 2.78529e-10 1.36154e-07 0 3.6078e-17 1.4013e-45 7.21675e-17 1.51859e-41 1.44363e-16 1.22922e-36 3.61067e-16 2.16212e-33 7.22564e-16
9.5847 1.13384e-16 1.13384e-16 3.99259e-26 3.5213e-10 1.21756e-07 0 5.25194e-17 6.30584e-44 1.05054e-16 6.87996e-40 2.10148e-16 3.20734e-35 5.25585e-16 3.91695e-32 1.05176e-15
10.0767 1.01587e-16 1.01587e-16 3.83911e-26 3.77914e-10 1.15654e-07 0 5.96855e-17 2.98196e-42 1.19388e-16 2.04718e-38 2.38816e-16 5.6465e-34 5.97271e-16 4.87386e-31 1.19517e-15
10.5939 8.5217e-17 8.5217e-17 3.48082e-26 4.08466e-10 1.13707e-07 8.40779e-45 6.23194e-17 1.06465e-40 1.24655e-16 4.7486e-37 2.4935e-16 7.9502e-33 6.23601e-16 4.93309e-30 1.24782e-15
11.1377 6.69927e-17 6.69927e-17 2.75494e-26 4.11231e-10 1.16853e-07 3.81153e-43 5.98976e-17 2.93025e-39 1.1981e-16 8.67134e-36 2.39656e-16 9.02972e-32 5.99343e-16 4.09319e-29 1.19924e-15
11.7094 5.34922e-17 5.34922e-17 2.16495e-26 4.04722e-10 1.17508e-07 1.36837e-41 5.74882e-17 6.80223e-38 1.14989e-16 1.36256e-34 2.30011e-16 9.03215e-31 5.75212e-16 3.03727e-28 1.15092e-15
12.3105 4.17706e-17 4.17706e-17 1.65963e-26 3.9732e-10 1.15986e-07 3.94457e-40 5.30974e-17 1.2941e-36 1.06206e-16 1.78843e-33 2.1244e-16 7.71483e-30 5.31258e-16 1.95279e-27 1.06295e-15
12.9424 3.26007e-17 3.26007e-17 1.23673e-26 3.79357e-10 1.11016e-07 9.41307e-39 4.82753e-17 2.07988e-35 9.65599e-17 2.01933e-32 1.93143e-16 5.7889e-29 4.82995e-16 1.11837e-26 9.66361e-16
13.6067 2.60532e-17 2.60532e-17 8.85646e-27 3.39938e-10 1.01672e-07 1.92275e-37 4.42991e-17 2.91706e-34 8.86061e-17 2.02428e-31 1.77232e-16 3.93417e-28 4.43198e-16 5.87801e-26 8.86718e-16
14.3051 2.39291e-17 2.39291e-17 6.0766e-27 2.53942e-10 8.66757e-08 3.80631e-36 4.60877e-17 4.03847e-33 9.21831e-17 2.03619e-30 1.84386e-16 2.73426e-27 4.61079e-16 3.1993e-25 9.22474e-16
15.0394 2.66309e-17 2.66309e-17 4.52102e-27 1.69766e-10 7.51668e-08 7.76382e-35 5.73581e-17 5.8622e-32 1.14725e-16 2.18126e-29 2.29473e-16 2.06067e-26 5.73816e-16 1.91093e-24 1.148e-15
15.8114 3.07396e-17 3.07396e-17 3.74682e-27 1.21889e-10 6.32599e-08 1.40771e-33 7.31486e-17 7.69103e-31 1.46308e-16 2.1435e-28 2.92642e-16 1.4493e-25 7.31767e-16 1.07732e-23 1.46398e-15
16.623 3.53274e-17 3.53274e-17 3.42586e-27 9.69745e-11 5.24079e-08 2.1946e-32 9.18286e-17 8.81396e-30 1.83669e-16 1.86607e-27 3.6737e-16 9.17884e-25 9.18617e-16 5.52863e-23 1.83776e-15
17.4762 3.89572e-17 3.89572e-17 3.34737e-27 8.59243e-11 4.77541e-08 2.85531e-31 1.0944e-16 8.55738e-29 2.18892e-16 1.39491e-26 4.3782e-16 5.06966e-24 1.09476e-15 2.49983e-22 2.19013e-15
18.3733 4.02127e-17 4.02127e-17 3.30267e-27 8.21301e-11 4.0263e-08 3.04525e-30 1.20871e-16 6.90858e-28 2.41755e-16 8.78181e-26 4.83545e-16 2.39335e-23 1.20909e-15 9.7562e-22 2.41881e-15
19.3164 3.83432e-17 3.83432e-17 3.12244e-27 8.14342e-11 3.74481e-08 2.64429e-29 1.22164e-16 4.60317e-27 2.44341e-16 4.61868e-25 4.88716e-16 9.57267e-23 1.22201e-15 3.25603e-21 2.44462e-15
20.3079 3.42635e-17 3.42635e-17 2.75169e-27 8.03097e-11 3.72112e-08 1.90843e-28 1.14704e-16 2.58238e-26 2.29419e-16 2.06901e-24 4.58868e-16 3.30503e-22 1.14736e-15 9.46343e-21 2.29527e-15
21.3503 3.06044e-17 3.06044e-17 2.33436e-27 7.62753e-11 3.66251e-08 1.22812e-27 1.06774e-16 1.30776e-25 2.13557e-16 8.45902e-24 4.2714e-16 1.05476e-21 1.06802e-15 2.56388e-20 2.13654e-15
22.4463 2.73716e-17 2.73716e-17 1.96614e-27 7.18313e-11 3.45831e-08 7.09907e-27 9.87644e-17 6.01874e-25 1.97536e-16 3.17605e-23 3.95096e-16 3.12892e-21 9.87892e-16 6.50848e-20 1.97622e-15
23.5984 2.45385e-17 2.45385e-17 1.6356e-27 6.66545e-11 2.87115e-08 3.70941e-26 9.0923e-17 2.53199e-24 1.81852e-16 1.10091e-22 3.63724e-16 8.66817e-21 9.09446e-16 1.55475e-19 1.81928e-15
24.8097 2.20839e-17 2.20839e-17 1.36206e-27 6.16769e-11 3.07031e-08 1.76366e-25 8.34736e-17 9.79536e-24 1.66953e-16 3.54259e-22 3.33922e-16 2.25381e-20 8.34924e-16 3.51105e-19 1.67019e-15
26.0832 1.9836e-17 1.9836e-17 1.12516e-27 5.6723e-11 2.58319e-08 7.62197e-25 7.60141e-17 3.47932e-23 1.52033e-16 1.05612e-21 3.0408e-16 5.48595e-20 7.60304e-16 7.47391e-19 1.52091e-15
27.4221 1.77901e-17 1.77901e-17 9.29395e-28 5.22424e-11 2.49663e-08 3.00921e-24 6.87201e-17 1.13988e-22 1.37444e-16 2.92894e-21 2.749e-16 1.25455e-19 6.87341e-16 1.50454e-18 1.37495e-15
28.8297 1.60177e-17 1.60177e-17 7.67537e-28 4.79181e-11 2.31842e-08 1.09596e-23 6.20359e-17 3.47648e-22 1.24074e-16 7.62353e-21 2.48159e-16 2.71809e-19 6.20477e-16 2.88737e-18 1.24119e-15
30.3095 1.44155e-17 1.44155e-17 6.33527e-28 4.39477e-11 2.44035e-08 3.68141e-23 5.56972e-17 9.86407e-22 1.11396e-16 1.86037e-20 2.22802e-16 5.57091e-19 5.57072e-16 5.27302e-18 1.11435e-15
31.8653 1.30031e-17 1.30031e-17 5.20815e-28 4.0053e-11 1.72651e-08 1.14813e-22 4.9886e-17 2.62004e-21 9.97736e-17 4.28127e-20 1.99554e-16 1.08598e-18 4.98944e-16 9.21072e-18 9.98061e-16
33.5009 1.17085e-17 1.17085e-17 4.28856e-28 3.66276e-11 1.71073e-08 3.32339e-22 4.44069e-17 6.51001e-21 8.88148e-17 9.28133e-20 1.77635e-16 2.01047e-18 4.44138e-16 1.53617e-17 8.88423e-16
35.2206 1.06361e-17 1.06361e-17 3.52352e-28 3.31279e-11 2.12216e-08 9.05602e-22 3.9715e-17 1.53411e-20 7.94307e-17 1.92106e-19 1.58866e-16 3.58108e-18 3.97206e-16 2.47763e-17 7.94536e-16
37.0284 9.645e-18 9.645e-18 2.89588e-28 3.00247e-11 9.2602e-09 2.30637e-21 3.5319e-17 3.40289e-20 7.06383e-17 3.76651e-19 1.4128e-16 6.08671e-18 3.53234e-16 3.83171e-17 7.0657e-16
38.9291 8.72671e-18 8.72671e-18 2.38258e-28 2.73022e-11 1.93398e-08 5.50491e-21 3.12242e-17 7.12192e-20 6.24484e-17 7.00989e-19 1.24899e-16 9.88902e-18 3.12275e-16 5.69053e-17 6.24633e-16
40.9273 7.87678e-18 7.87678e-18 1.96269e-28 2.49174e-11 1.96928e-08 1.23493e-20 2.74415e-17 1.40995e-19 5.48828e-17 1.24117e-18 1.09767e-16 1.5387e-17 2.74439e-16 8.12918e-17 5.48943e-16
43.0282 7.10533e-18 7.10533e-18 1.61283e-28 2.26988e-11 1.74013e-08 2.61615e-20 2.40226e-17 2.65211e-19 4.80448e-17 2.09941e-18 9.60904e-17 2.30165e-17 2.40241e-16 1.12108e-16 4.8053e-16
45.2368 6.39437e-18 6.39437e-18 1.32487e-28 2.07193e-11 1.24467e-08 5.239e-20 2.09138e-17 4.74311e-19 4.18271e-17 3.39391e-18 8.36544e-17 3.31031e-17 2.09146e-16 1.49244e-16 4.18325e-16
47.5588 5.76446e-18 5.76446e-18 1.08705e-28 1.88579e-11 1.15546e-08 9.98431e-20 1.81836e-17 8.1174e-19 3.63664e-17 5.27627e-18 7.27325e-17 4.60468e-17 1.81837e-16 1.92884e-16 3.63693e-16
50 5.17929e-18 5.17929e-18 8.92523e-29 1.72325e-11 7.37833e-09 1.80615e-19 1.57114e-17 1.32562e-18 3.1422e-17 7.86394e-18 6.28431e-17 6.17414e-17 1.5711e-16 2.41158e-16 3.14227e-16
52.5665 4.65888e-18 4.65888e-18 7.31833e-29 1.57083e-11 1.49347e-08 3.12283e-19 1.35532e-17 2.07945e-18 2.71054e-17 1.13088e-17 5.42096e-17 8.02897e-17 1.35523e-16 2.93426e-16 2.71042e-16
55.2648 4.18778e-18 4.18778e-18 5.99678e-29 1.43197e-11 1.51429e-08 5.16259e-19 1.16518e-17 3.13376e-18 2.33027e-17 1.56901e-17 4.66038e-17 1.0123e-16 1.16505e-16 3.47275e-16 2.32998e-16
58.1015 3.76254e-18 3.76254e-18 4.91594e-29 1.30655e-11 -5.34601e-09 8.18009e-19 9.9867e-18 4.54692e-18 1.99724e-17 2.10437e-17 3.99431e-17 1.23959e-16 9.98512e-17 4.00414e-16 1.99682e-16
61.0839 3.3807e-18 3.3807e-18 4.0268e-29 1.19112e-11 5.22451e-09 1.24548e-18 8.5389e-18 6.36685e-18 1.70768e-17 2.73429e-17 3.41516e-17 1.47707e-16 8.53706e-17 4.5059e-16 1.70714e-16
64.2193 3.03559e-18 3.03559e-18 3.29702e-29 1.08612e-11 1.12627e-09 1.82448e-18 7.27873e-18 8.61253e-18 1.45565e-17 3.44469e-17 2.91108e-17 1.71375e-16 7.27667e-17 4.95102e-16 1.45501e-16
67.5157 2.72705e-18 2.72705e-18 2.69901e-29 9.89718e-12 1.45806e-08 2.5791e-18 6.19333e-18 1.12864e-17 1.23857e-17 4.21874e-17 2.4769e-17 1.94076e-16 6.19111e-17 5.3241e-16 1.23786e-16
70.9813 2.45001e-18 2.45001e-18 2.20984e-29 9.01972e-12 -2.14982e-08 3.52294e-18 5.25843e-18 1.43447e-17 1.05159e-17 5.02766e-17 2.10294e-17 2.1469e-16 5.25609e-17 5.60686e-16 1.05082e-16
