# 7.9433e-05 1 134 : grain size, compostion index, size index
# Heating and cooling timescale: 0.000460131 1.27045e+08
# Ratio of heating to cooling to determine stochastic cutoff: 100
# Equilibrium emission is recorded even for those grains in the stochastic regime.
# Emission spectrum was computed for: 
# Type: IRSF
# Scales: 0.25 0.5 1 1.5 2 2.5 3 3.5 4 4.5 5 5.5 6 6.5 7 7.5 8 8.5 9 9.5 10
# StochasticallyHeated: 0 0 0 0 0 0 0 0 0 0 0 0 0 0 0 0 0 0 0 0 0
# Temperature: -1
# Wavelength  CExt  CAbs  CSca  Albedo G EqEm1 StEm1 EqEm2 StEm2 EqEm3 StEm3 EqEm4 StEm4 EqEm5 StEm5 EqEm6 StEm6 EqEm7 StEm7 EqEm8 StEm8 EqEm9 StEm9 EqEm10 StEm10 EqEm11 StEm11 EqEm12 StEm12 EqEm13 StEm13 EqEm14 StEm14 EqEm15 StEm15 EqEm16 StEm16 EqEm17 StEm17 EqEm18 StEm18 EqEm19 StEm19 EqEm20 StEm20 EqEm21 StEm21
0.05 1.05423e-08 4.69075e-09 5.85151e-09 0.555053 0.214796 0 0 0 0 0 0 0 0 0 0 0 0 0 0 0 0 0 0 0 0 0 0 0 0 0 0 0 0 0 0 0 0 0 0 0 0 0 0 0 0 0 0
0.0525665 1.16523e-08 5.18466e-09 6.46765e-09 0.555053 0.237413 0 0 0 0 0 0 0 0 0 0 0 0 0 0 0 0 0 0 0 0 0 0 0 0 0 0 0 0 0 0 0 0 0 0 0 0 0 0 0 0 0 0
0.0552647 1.28792e-08 5.73058e-09 7.14866e-09 0.555053 0.262411 0 0 0 0 0 0 0 0 0 0 0 0 0 0 0 0 0 0 0 0 0 0 0 0 0 0 0 0 0 0 0 0 0 0 0 0 0 0 0 0 0 0
0.0581015 1.42354e-08 6.33398e-09 7.90138e-09 0.555053 0.290042 0 0 0 0 0 0 0 0 0 0 0 0 0 0 0 0 0 0 0 0 0 0 0 0 0 0 0 0 0 0 0 0 0 0 0 0 0 0 0 0 0 0
0.0610839 1.57343e-08 7.00092e-09 8.73335e-09 0.555053 0.320582 0 0 0 0 0 0 0 0 0 0 0 0 0 0 0 0 0 0 0 0 0 0 0 0 0 0 0 0 0 0 0 0 0 0 0 0 0 0 0 0 0 0
0.0642193 1.7391e-08 7.73808e-09 9.65293e-09 0.555053 0.354337 0 0 0 0 0 0 0 0 0 0 0 0 0 0 0 0 0 0 0 0 0 0 0 0 0 0 0 0 0 0 0 0 0 0 0 0 0 0 0 0 0 0
0.0675157 1.92222e-08 8.55287e-09 1.06693e-08 0.555053 0.391647 0 0 0 0 0 0 0 0 0 0 0 0 0 0 0 0 0 0 0 0 0 0 0 0 0 0 0 0 0 0 0 0 0 0 0 0 0 0 0 0 0 0
0.0709813 2.12462e-08 9.45344e-09 1.17928e-08 0.555053 0.432886 0 0 0 0 0 0 0 0 0 0 0 0 0 0 0 0 0 0 0 0 0 0 0 0 0 0 0 0 0 0 0 0 0 0 0 0 0 0 0 0 0 0
0.0746248 2.34833e-08 1.04488e-08 1.30345e-08 0.555053 0.478467 0 0 0 0 0 0 0 0 0 0 0 0 0 0 0 0 0 0 0 0 0 0 0 0 0 0 0 0 0 0 0 0 0 0 0 0 0 0 0 0 0 0
0.0784553 2.5956e-08 1.15491e-08 1.4407e-08 0.555053 0.528847 0 0 0 0 0 0 0 0 0 0 0 0 0 0 0 0 0 0 0 0 0 0 0 0 0 0 0 0 0 0 0 0 0 0 0 0 0 0 0 0 0 0
0.0824824 2.86891e-08 1.27651e-08 1.59239e-08 0.555053 0.584532 0 0 0 0 0 0 0 0 0 0 0 0 0 0 0 0 0 0 0 0 0 0 0 0 0 0 0 0 0 0 0 0 0 0 0 0 0 0 0 0 0 0
0.0867162 3.17099e-08 1.41092e-08 1.76007e-08 0.555053 0.64608 0 0 0 0 0 0 0 0 0 0 0 0 0 0 0 0 0 0 0 0 0 0 0 0 0 0 0 0 0 0 0 0 0 0 0 0 0 0 0 0 0 0
0.0911674 3.50488e-08 1.55949e-08 1.94539e-08 0.555053 0.71411 0 0 0 0 0 0 0 0 0 0 0 0 0 0 0 0 0 0 0 0 0 0 0 0 0 0 0 0 0 0 0 0 0 0 0 0 0 0 0 0 0 0
0.095847 3.87393e-08 1.72369e-08 2.15023e-08 0.555053 0.789302 0 0 0 0 0 0 0 0 0 0 0 0 0 0 0 0 0 0 0 0 0 0 0 0 0 0 0 0 0 0 0 0 0 0 0 0 0 0 0 0 0 0
0.100767 4.21871e-08 1.87739e-08 2.34132e-08 0.554986 0.859188 0 0 0 0 0 0 0 0 0 0 0 0 0 0 0 0 0 0 0 0 0 0 0 0 0 0 0 0 0 0 0 0 0 0 0 0 0 0 0 0 0 0
0.105939 4.23117e-08 1.88489e-08 2.34629e-08 0.554523 0.862663 0 0 0 0 0 0 0 0 0 0 0 0 0 0 0 0 0 0 0 0 0 0 0 0 0 0 0 0 0 0 0 0 0 0 0 0 0 0 0 0 0 0
0.111377 4.24375e-08 1.89353e-08 2.35023e-08 0.553808 0.867206 0 0 0 0 0 0 0 0 0 0 0 0 0 0 0 0 0 0 0 0 0 0 0 0 0 0 0 0 0 0 0 0 0 0 0 0 0 0 0 0 0 0
0.117094 4.25645e-08 1.9019e-08 2.35455e-08 0.553172 0.870011 0 0 0 0 0 0 0 0 0 0 0 0 0 0 0 0 0 0 0 0 0 0 0 0 0 0 0 0 0 0 0 0 0 0 0 0 0 0 0 0 0 0
0.123105 4.26919e-08 1.91255e-08 2.35664e-08 0.552011 0.871664 0 0 0 0 0 0 0 0 0 0 0 0 0 0 0 0 0 0 0 0 0 0 0 0 0 0 0 0 0 0 0 0 0 0 0 0 0 0 0 0 0 0
0.129424 4.28135e-08 1.92404e-08 2.35731e-08 0.550599 0.87231 0 0 0 0 0 0 0 0 0 0 0 0 0 0 0 0 0 0 0 0 0 0 0 0 0 0 0 0 0 0 0 0 0 0 0 0 0 0 0 0 0 0
0.136067 4.29446e-08 1.93311e-08 2.36135e-08 0.54986 0.871768 0 0 0 0 0 0 0 0 0 0 0 0 0 0 0 0 0 0 0 0 0 0 0 0 0 0 0 0 0 0 0 0 0 0 0 0 0 0 0 0 0 0
0.143051 4.30759e-08 1.94614e-08 2.36145e-08 0.548206 0.869241 0 0 0 0 0 0 0 0 0 0 0 0 0 0 0 0 0 0 0 0 0 0 0 0 0 0 0 0 0 0 0 0 0 0 0 0 0 0 0 0 0 0
0.150394 4.32189e-08 1.96531e-08 2.35658e-08 0.545266 0.869992 0 0 0 0 0 0 0 0 0 0 0 0 0 0 0 0 0 0 0 0 0 0 0 0 0 0 0 0 0 0 0 0 0 0 0 0 0 0 0 0 0 0
0.158114 4.33872e-08 1.98983e-08 2.34889e-08 0.54138 0.875725 0 0 0 0 0 0 0 0 0 0 0 0 0 0 0 0 0 0 0 0 0 0 0 0 0 0 0 0 0 0 0 0 0 0 0 0 0 0 0 0 0 0
0.16623 4.35835e-08 2.01615e-08 2.3422e-08 0.537405 0.882885 0 0 0 0 0 0 0 0 0 0 0 0 0 0 0 0 0 0 0 0 0 0 0 0 0 0 0 0 0 0 0 0 0 0 0 0 0 0 0 0 0 0
0.174762 4.37853e-08 2.04092e-08 2.33761e-08 0.533879 0.889368 0 0 0 0 0 0 0 0 0 0 0 0 0 0 0 0 0 0 0 0 0 0 0 0 0 0 0 0 0 0 0 0 0 0 0 0 0 0 0 0 0 0
0.183733 4.39872e-08 2.05255e-08 2.34616e-08 0.533374 0.895076 0 0 0 0 0 0 0 0 0 0 0 0 0 0 0 0 0 0 0 0 0 0 0 0 0 0 0 0 0 0 0 0 0 0 0 0 0 0 0 0 0 0
0.193164 4.45981e-08 2.02022e-08 2.4396e-08 0.547018 0.899193 0 0 0 0 0 0 0 0 0 0 0 0 0 0 0 0 0 0 0 0 0 0 0 0 0 0 0 0 0 0 0 0 0 0 0 0 0 0 0 0 0 0
0.203079 4.47083e-08 2.03117e-08 2.43966e-08 0.545684 0.897267 0 0 0 0 0 0 0 0 0 0 0 0 0 0 0 0 0 0 0 0 0 0 0 0 0 0 0 0 0 0 0 0 0 0 0 0 0 0 0 0 0 0
0.213503 4.45948e-08 2.05447e-08 2.40502e-08 0.539304 0.889792 0 0 0 0 0 0 0 0 0 0 0 0 0 0 0 0 0 0 0 0 0 0 0 0 0 0 0 0 0 0 0 0 0 0 0 0 0 0 0 0 0 0
0.224463 4.45176e-08 2.07151e-08 2.38025e-08 0.534677 0.882906 0 0 0 0 0 0 0 0 0 0 0 0 0 0 0 0 0 0 0 0 0 0 0 0 0 0 0 0 0 0 0 0 0 0 0 0 0 0 0 0 0 0
0.235984 4.44699e-08 2.08935e-08 2.35764e-08 0.530165 0.879665 0 0 0 0 0 0 0 0 0 0 0 0 0 0 0 0 0 0 0 0 0 0 0 0 0 0 0 0 0 0 0 0 0 0 0 0 0 0 0 0 0 0
0.248097 4.44749e-08 2.10621e-08 2.34128e-08 0.526427 0.879152 0 0 0 0 0 0 0 0 0 0 0 0 0 0 0 0 0 0 0 0 0 0 0 0 0 0 0 0 0 0 0 0 0 0 0 0 0 0 0 0 0 0
0.260832 4.45536e-08 2.12257e-08 2.33279e-08 0.523592 0.879947 0 0 0 0 0 0 0 0 0 0 0 0 0 0 0 0 0 0 0 0 0 0 0 0 0 0 0 0 0 0 0 0 0 0 0 0 0 0 0 0 0 0
0.274221 4.46806e-08 2.13795e-08 2.33012e-08 0.521505 0.872349 0 0 0 0 0 0 0 0 0 0 0 0 0 0 0 0 0 0 0 0 0 0 0 0 0 0 0 0 0 0 0 0 0 0 0 0 0 0 0 0 0 0
0.288297 4.48493e-08 2.15255e-08 2.33238e-08 0.520049 0.867907 0 0 0 0 0 0 0 0 0 0 0 0 0 0 0 0 0 0 0 0 0 0 0 0 0 0 0 0 0 0 0 0 0 0 0 0 0 0 0 0 0 0
0.303095 4.50369e-08 2.16656e-08 2.33713e-08 0.518937 0.872136 0 0 0 0 0 0 0 0 0 0 0 0 0 0 0 0 0 0 0 0 0 0 0 0 0 0 0 0 0 0 0 0 0 0 0 0 0 0 0 0 0 0
0.318653 4.52641e-08 2.17907e-08 2.34734e-08 0.518588 0.869568 0 0 0 0 0 0 0 0 0 0 0 0 0 0 0 0 0 0 0 0 0 0 0 0 0 0 0 0 0 0 0 0 0 0 0 0 0 0 0 0 0 0
0.335009 4.58137e-08 2.18612e-08 2.39525e-08 0.522825 0.85824 0 0 0 0 0 0 0 0 0 0 0 0 0 0 0 0 0 0 0 0 0 0 0 0 0 0 0 0 0 0 0 0 0 0 0 0 0 0 0 0 0 0
0.352205 4.70395e-08 2.1948e-08 2.50915e-08 0.533414 0.846514 0 0 0 0 0 0 0 0 0 0 0 0 0 0 0 0 0 0 0 0 0 0 0 0 0 0 0 0 0 0 0 0 0 0 0 0 0 0 0 0 0 0
0.370284 4.82784e-08 2.20276e-08 2.62508e-08 0.543738 0.843582 0 0 0 0 0 0 0 0 0 0 0 0 0 0 0 0 0 0 0 0 0 0 0 0 0 0 0 0 0 0 0 0 0 0 0 0 0 0 0 0 0 0
0.389291 4.88522e-08 2.20873e-08 2.67649e-08 0.547875 0.845619 0 0 0 0 0 0 0 0 0 0 0 0 0 0 0 0 0 0 0 0 0 0 0 0 0 0 0 0 0 0 0 0 0 0 0 0 0 0 0 0 0 0
0.409273 4.86347e-08 2.21665e-08 2.64682e-08 0.544224 0.84265 0 0 0 0 0 0 0 0 0 0 0 0 0 0 0 0 0 0 0 0 0 0 0 0 0 0 0 0 0 0 0 0 0 0 0 0 0 0 0 0 0 0
0.430281 4.80024e-08 2.22121e-08 2.57904e-08 0.537272 0.830406 0 0 0 0 0 0 0 0 0 0 0 0 0 0 0 0 0 0 0 0 0 0 0 0 0 0 0 0 0 0 0 0 0 0 0 0 0 0 0 0 0 0
0.452368 4.74757e-08 2.22485e-08 2.52271e-08 0.53137 0.80723 0 0 0 0 0 0 0 0 0 0 0 0 0 0 0 0 0 0 0 0 0 0 0 0 0 0 0 0 0 0 0 0 0 0 0 0 0 0 0 0 0 0
0.475588 4.74655e-08 2.22478e-08 2.52177e-08 0.531284 0.791825 0 0 0 0 0 0 0 0 0 0 0 0 0 0 0 0 0 0 0 0 0 0 0 0 0 0 0 0 0 0 0 0 0 0 0 0 0 0 0 0 0 0
0.5 4.81203e-08 2.22758e-08 2.58445e-08 0.53708 0.784644 0 0 0 0 0 0 0 0 0 0 0 0 0 0 0 0 0 0 0 0 0 0 0 0 0 0 0 0 0 0 0 0 0 0 0 0 0 0 0 0 0 0
0.525665 4.90534e-08 2.22808e-08 2.67726e-08 0.545785 0.794185 0 0 0 0 0 0 0 0 0 0 0 0 0 0 0 0 0 0 0 0 0 0 0 0 0 0 0 0 0 0 0 0 0 0 0 0 0 0 0 0 0 0
0.552648 4.99417e-08 2.2104e-08 2.78377e-08 0.557403 0.809048 0 0 0 0 0 0 0 0 0 0 0 0 0 0 0 0 0 0 0 0 0 0 0 0 0 0 0 0 0 0 0 0 0 0 0 0 0 0 0 0 0 0
0.581015 5.05862e-08 2.21113e-08 2.84748e-08 0.562898 0.828652 0 0 0 0 0 0 0 0 0 0 0 0 0 0 0 0 0 0 0 0 0 0 0 0 0 0 0 0 0 0 0 0 0 0 0 0 0 0 0 0 0 0
0.610839 5.06477e-08 2.19508e-08 2.86969e-08 0.566598 0.826299 0 0 0 0 0 0 0 0 0 0 0 0 0 0 0 0 0 0 0 0 0 0 0 0 0 0 0 0 0 0 0 0 0 0 0 0 0 0 0 0 0 0
0.642193 5.01788e-08 2.17309e-08 2.84478e-08 0.56693 0.831913 0 0 0 0 0 0 0 0 0 0 0 0 0 0 0 0 0 0 0 0 0 0 0 0 0 0 0 0 0 0 0 0 0 0 0 0 0 0 0 0 0 0
0.675157 4.95801e-08 2.15596e-08 2.80205e-08 0.565156 0.799924 0 0 0 0 0 0 0 0 0 0 0 0 0 0 0 0 0 0 0 0 0 0 0 0 0 0 0 0 0 0 0 0 0 0 0 0 0 0 0 0 0 0
0.709813 4.86548e-08 2.13312e-08 2.73237e-08 0.561581 0.781 0 0 0 0 0 0 0 0 0 0 0 0 0 0 0 0 0 0 0 0 0 0 0 0 0 0 0 0 0 0 0 0 0 0 0 0 0 0 0 0 0 0
0.746248 4.85587e-08 2.10262e-08 2.75325e-08 0.566993 0.722424 0 0 0 0 0 0 0 0 0 0 0 0 0 0 0 0 0 0 0 0 0 0 0 0 0 0 0 0 0 0 0 0 0 0 0 0 0 0 0 0 0 0
0.784553 4.84643e-08 2.06917e-08 2.77726e-08 0.573052 0.659798 0 0 0 0 0 0 0 0 0 0 0 0 0 0 0 0 0 0 0 0 0 0 0 0 0 0 0 0 0 0 0 0 0 0 0 0 0 0 0 0 0 0
0.824824 4.96421e-08 2.0318e-08 2.93241e-08 0.590711 0.609799 0 0 0 0 0 0 0 0 0 0 0 0 0 0 0 0 0 0 0 0 0 0 0 0 0 0 0 0 0 0 0 0 0 0 0 0 0 0 0 0 0 0
0.867162 5.1366e-08 2.01708e-08 3.11952e-08 0.607312 0.52839 0 0 0 0 0 0 0 0 0 0 0 0 0 0 0 0 0 0 0 0 0 0 0 0 0 0 0 0 0 0 0 0 0 0 0 0 0 0 0 0 0 0
0.911674 5.35089e-08 1.95129e-08 3.3996e-08 0.635334 0.51251 0 0 0 0 0 0 0 0 0 0 0 0 0 0 0 0 0 0 0 0 0 0 0 0 0 0 0 0 0 0 0 0 0 0 0 0 0 0 0 0 0 0
0.95847 5.70931e-08 1.91697e-08 3.79234e-08 0.664238 0.508987 0 0 0 0 0 0 0 0 0 0 0 0 0 0 0 0 0 0 0 0 0 0 0 0 0 0 0 0 0 0 0 0 0 0 0 0 0 0 0 0 0 0
1.00767 6.01792e-08 1.87822e-08 4.1397e-08 0.687895 0.492556 0 0 0 0 0 0 0 0 0 0 0 0 0 0 0 0 0 0 0 0 0 0 0 0 0 0 0 0 0 0 0 0 0 0 0 0 0 0 0 0 0 0
1.05939 6.3529e-08 1.84973e-08 4.50317e-08 0.708837 0.547824 0 0 0 0 0 0 0 0 0 0 0 0 0 0 0 0 0 0 0 0 0 0 0 0 0 0 0 0 0 0 0 0 0 0 0 0 0 0 0 0 0 0
1.11377 6.71571e-08 1.83821e-08 4.8775e-08 0.726283 0.574075 0 0 0 0 0 0 0 0 0 0 0 0 0 0 0 0 0 0 0 0 0 0 0 0 0 0 0 0 0 0 0 0 0 0 0 0 0 0 0 0 0 0
1.17094 6.97339e-08 1.81983e-08 5.15355e-08 0.739032 0.593764 0 0 0 0 0 0 0 0 0 0 0 0 0 0 0 0 0 0 0 0 0 0 0 0 0 0 0 0 0 0 0 0 0 0 0 0 0 0 0 0 0 0
1.23105 7.16554e-08 1.80228e-08 5.36326e-08 0.74848 0.633279 0 0 0 0 0 0 0 0 0 0 0 0 0 0 0 0 0 0 0 0 0 0 0 0 0 0 0 0 0 0 0 0 0 0 0 0 0 0 0 0 0 0
1.29424 7.29232e-08 1.77189e-08 5.52043e-08 0.757019 0.651128 0 0 0 0 0 0 0 0 0 0 0 0 0 0 0 0 0 0 0 0 0 0 0 0 0 0 0 0 0 0 0 0 0 0 0 0 0 0 0 0 0 0
1.36067 7.35678e-08 1.74116e-08 5.61561e-08 0.763325 0.649524 0 0 0 0 0 0 0 0 0 0 0 0 0 0 0 0 0 0 0 0 0 0 0 0 0 0 0 0 0 0 0 0 0 0 0 0 0 0 0 0 0 0
1.43051 7.38955e-08 1.72963e-08 5.65992e-08 0.765936 0.675652 0 0 0 0 0 0 0 0 0 0 0 0 0 0 0 0 0 0 0 0 0 0 0 0 0 0 0 0 0 0 0 0 0 0 0 0 0 0 0 0 0 0
1.50394 7.34753e-08 1.72653e-08 5.621e-08 0.765019 0.69254 0 0 0 0 0 0 0 0 0 0 0 0 0 0 0 0 0 0 0 0 0 0 0 0 0 0 0 0 0 0 0 0 0 0 0 0 0 0 0 0 0 0
1.58114 7.17953e-08 1.68651e-08 5.49302e-08 0.765094 0.689653 0 0 0 0 0 0 0 0 0 0 0 0 0 0 0 0 0 0 0 0 0 0 0 0 0 0 0 0 0 0 0 0 0 0 0 0 0 0 0 0 0 0
1.6623 6.93772e-08 1.61761e-08 5.32011e-08 0.766839 0.675147 0 0 0 0 0 0 0 0 0 0 0 0 0 0 0 0 0 0 0 0 0 0 0 0 0 0 0 0 0 0 0 0 0 0 0 0 0 0 0 0 0 0
1.74763 6.7117e-08 1.56757e-08 5.14413e-08 0.766443 0.668649 0 0 0 0 0 0 0 0 0 0 0 0 0 0 0 0 0 0 0 0 0 0 0 0 0 0 0 0 0 0 0 0 0 0 0 0 0 0 0 0 0 0
1.83733 6.49726e-08 1.55857e-08 4.93869e-08 0.760119 0.679313 0 0 0 0 0 0 0 0 0 0 0 0 0 0 0 0 0 0 0 0 0 0 0 0 0 0 0 0 0 0 0 0 0 0 0 0 0 0 0 0 0 0
1.93164 6.22201e-08 1.56762e-08 4.6544e-08 0.748053 0.689878 0 0 0 0 0 0 0 0 0 0 0 0 0 0 0 0 0 0 0 0 0 0 0 0 0 0 0 0 0 0 0 0 0 0 0 0 0 0 0 0 0 0
2.03079 5.85519e-08 1.56024e-08 4.29495e-08 0.733529 0.687919 0 0 0 0 0 0 0 0 0 0 0 0 0 0 0 0 0 0 0 0 0 0 0 0 0 0 0 0 0 0 0 0 0 0 0 0 0 0 0 0 0 0
2.13503 5.44616e-08 1.52666e-08 3.91949e-08 0.719681 0.670063 0 0 0 0 0 0 0 0 0 0 0 0 0 0 0 0 0 0 0 0 0 0 0 0 0 0 0 0 0 0 0 0 0 0 0 0 0 0 0 0 0 0
2.24463 5.06812e-08 1.48467e-08 3.58345e-08 0.707058 0.639027 0 0 0 0 0 0 0 0 0 0 0 0 0 0 0 0 0 0 0 0 0 0 0 0 0 0 0 0 0 0 0 0 0 0 0 0 0 0 0 0 0 0
2.35984 4.7473e-08 1.45485e-08 3.29245e-08 0.693541 0.607381 0 0 0 0 0 0 0 0 0 0 0 0 0 0 0 0 0 0 0 0 0 0 0 0 0 0 0 0 0 0 0 0 0 0 0 0 0 0 0 0 0 0
2.48097 4.4683e-08 1.44495e-08 3.02335e-08 0.676622 0.586832 0 0 0 0 0 0 0 0 0 0 0 0 0 0 0 0 0 0 0 0 0 0 0 0 0 0 0 0 0 0 0 0 0 0 0 0 0 0 0 0 0 0
2.60832 4.20395e-08 1.44817e-08 2.75578e-08 0.655521 0.580082 0 0 0 0 0 0 0 0 0 0 0 0 0 0 0 0 0 0 0 0 0 0 0 0 0 0 0 0 0 0 0 0 0 0 0 0 0 0 0 0 0 0
2.74221 3.93555e-08 1.45402e-08 2.48153e-08 0.630542 0.583845 0 0 0 0 0 0 0 0 0 0 0 0 0 0 0 0 0 0 0 0 0 0 0 0 0 0 0 0 0 0 0 0 0 0 0 0 0 0 0 0 0 0
2.88297 3.66501e-08 1.45431e-08 2.2107e-08 0.603192 0.591193 0 0 0 0 0 0 0 0 0 0 0 0 0 0 0 0 0 0 0 0 0 0 0 0 0 0 0 0 0 0 0 0 0 0 0 0 0 0 0 0 0 0
3.03095 3.407e-08 1.447e-08 1.96e-08 0.575285 0.592424 0 0 0 0 0 0 0 0 0 0 0 0 0 0 0 0 0 0 0 0 0 0 0 0 0 0 0 0 0 0 0 0 0 0 0 0 0 0 0 0 0 0
3.18653 3.16341e-08 1.42218e-08 1.74124e-08 0.55043 0.579269 0 0 0 0 0 0 0 0 0 0 0 0 0 0 0 0 0 0 0 0 0 0 0 0 0 0 0 0 0 0 0 0 0 0 0 0 0 0 0 0 0 0
3.35009 2.91581e-08 1.40233e-08 1.51348e-08 0.51906 0.548502 0 0 0 0 0 0 0 0 0 0 0 0 0 0 0 0 0 0 0 0 0 0 0 0 0 0 0 0 0 0 0 0 0 0 0 0 0 0 0 0 0 0
3.52205 2.82249e-08 1.39516e-08 1.42733e-08 0.505698 0.503483 0 0 0 0 0 0 0 0 0 0 0 0 0 0 0 0 0 0 0 0 0 0 0 0 0 0 0 0 0 0 0 0 0 0 0 0 0 0 0 0 0 0
3.70284 2.54732e-08 1.28318e-08 1.26414e-08 0.496263 0.451756 0 0 0 0 0 0 0 0 0 0 0 0 0 0 0 0 0 0 0 0 0 0 0 0 0 0 0 0 0 0 0 0 0 0 0 0 0 0 0 0 0 0
3.89291 2.33762e-08 1.22685e-08 1.11077e-08 0.47517 0.400044 0 0 0 0 0 0 0 0 0 0 0 0 0 0 0 0 0 0 0 0 0 0 0 0 0 0 0 0 0 0 0 0 0 0 0 0 0 0 0 0 0 0
4.09273 2.15141e-08 1.17985e-08 9.71561e-09 0.451593 0.35224 0 0 0 0 0 0 0 0 0 0 0 0 0 0 0 0 0 0 0 0 0 0 0 0 0 0 0 0 0 0 0 0 0 0 0 0 0 0 0 0 0 0
4.30281 1.98575e-08 1.1412e-08 8.44555e-09 0.425307 0.3099 0 0 0 0 0 0 0 0 0 0 0 0 0 0 0 0 0 0 0 0 0 0 0 0 0 0 0 0 0 0 0 0 0 0 0 0 0 0 0 0 0 0
4.52368 1.84007e-08 1.11052e-08 7.29549e-09 0.396479 0.273201 0 0 0 0 0 0 0 0 0 0 0 0 0 0 0 0 0 0 0 0 0 0 0 0 0 0 0 0 0 0 0 0 0 0 0 0 0 0 0 0 0 0
4.75588 1.71251e-08 1.08568e-08 6.26835e-09 0.366033 0.241479 0 0 0 0 0 0 0 0 0 0 0 0 0 0 0 0 0 0 0 0 0 0 0 0 0 0 0 0 0 0 0 0 0 0 0 0 0 0 0 0 0 0
5 1.60008e-08 1.06364e-08 5.36435e-09 0.335256 0.213964 0 0 0 0 0 0 0 0 0 0 0 0 0 0 0 0 0 0 0 0 0 0 0 0 0 0 0 0 0 0 0 0 0 0 0 0 0 0 0 0 0 0
5.25665 1.49854e-08 1.04147e-08 4.57071e-09 0.305011 0.190013 0 0 0 0 0 0 0 0 0 0 0 0 0 0 0 0 0 0 0 0 0 0 0 0 0 0 0 0 0 0 0 0 0 0 0 0 0 0 0 0 0 0
5.52648 1.40618e-08 1.01869e-08 3.87493e-09 0.275564 0.16912 0 0 0 0 0 0 0 0 0 0 0 0 0 0 0 0 0 0 0 0 0 0 0 0 0 0 0 0 0 0 0 0 0 0 0 0 0 0 0 0 0 0
5.81015 1.32123e-08 9.94556e-09 3.26669e-09 0.247247 0.150645 0 0 0 0 0 0 0 0 0 0 0 0 0 0 0 0 0 0 0 0 0 0 0 0 0 0 0 0 0 0 0 0 0 0 0 0 0 0 0 0 0 0
6.10839 1.24358e-08 9.69896e-09 2.73681e-09 0.220076 0.134252 0 0 0 0 0 0 0 0 0 0 0 0 0 0 0 0 0 0 0 0 0 0 0 0 0 0 0 0 0 0 0 0 0 0 0 0 0 0 0 0 0 0
6.42193 1.17197e-08 9.44368e-09 2.27606e-09 0.194207 0.119563 0 0 0 0 0 0 0 0 0 0 0 0 0 0 0 0 0 0 0 0 0 0 0 0 0 0 0 0 0 0 0 0 1.4013e-45 0 2.8026e-45 0 7.00649e-45 0 1.82169e-44 0 4.62428e-44 0
6.75157 1.10777e-08 9.20752e-09 1.87015e-09 0.168822 0.106227 0 0 0 0 0 0 0 0 0 0 0 0 0 0 0 0 0 0 0 0 0 0 0 0 1.4013e-45 0 2.8026e-45 0 1.26117e-44 0 4.34403e-44 0 1.35926e-43 0 3.93765e-43 0 1.0832e-42 0 2.68769e-42 0 6.38151e-42 0
7.09813 1.04458e-08 8.91179e-09 1.53397e-09 0.146851 0.0938719 0 0 0 0 0 0 0 0 0 0 0 0 0 0 0 0 0 0 1.4013e-45 0 4.2039e-45 0 2.8026e-44 0 1.26117e-43 0 5.19882e-43 0 1.8343e-42 0 5.92329e-42 0 1.75947e-41 0 4.83126e-41 0 1.26522e-40 0 3.00186e-40 0 6.83359e-40 0
7.46248 9.84222e-09 8.62121e-09 1.22101e-09 0.124058 0.0821767 0 0 0 0 0 0 0 0 0 0 0 0 0 0 1.4013e-45 0 1.4013e-44 0 1.17709e-43 0 7.3428e-43 0 3.80453e-42 0 1.61416e-41 0 6.20789e-41 0 2.0581e-40 0 6.27454e-40 0 1.76744e-39 0 4.61964e-39 0 1.15424e-38 0 2.62543e-38 0 5.74138e-38 0
7.84553 9.21898e-09 8.29612e-09 9.22865e-10 0.100105 0.0714807 0 0 0 0 0 0 0 0 0 0 0 0 1.26117e-44 0 1.98984e-43 0 2.01086e-42 0 1.48201e-41 0 8.44885e-41 0 4.0402e-40 0 1.59753e-39 0 5.75268e-39 0 1.79878e-38 0 5.19345e-38 0 1.39078e-37 0 3.46857e-37 0 8.28745e-37 0 1.81093e-36 0 3.81176e-36 0
8.24824 9.56233e-09 8.89438e-09 6.67956e-10 0.0698528 0.0625236 0 0 0 0 0 0 0 0 1.4013e-45 0 8.54792e-44 0 2.04029e-42 0 2.67746e-41 0 2.42093e-40 0 1.61799e-39 0 8.47223e-39 0 3.75338e-38 0 1.38777e-37 0 4.69432e-37 0 1.38838e-36 0 3.8063e-36 0 9.71448e-36 0 2.31704e-35 0 5.3056e-35 0 1.11594e-34 0 2.26508e-34 0
8.67162 1.10237e-08 1.04528e-08 5.70984e-10 0.0517959 0.0549762 0 0 0 0 0 0 1.4013e-45 0 2.88667e-43 0 1.29718e-41 0 2.6658e-40 0 3.08557e-39 0 2.50556e-38 0 1.52623e-37 0 7.37115e-37 0 3.03668e-36 0 1.05334e-35 0 3.35724e-35 0 9.41725e-35 0 2.45773e-34 0 5.99217e-34 0 1.36983e-33 0 3.01231e-33 0 6.10997e-33 0 1.19804e-32 0
9.11674 1.45822e-08 1.39128e-08 6.69392e-10 0.0459048 0.0473311 0 0 0 0 0 0 3.47522e-43 0 4.67908e-41 0 1.74649e-39 0 3.09663e-38 0 3.18033e-37 0 2.33149e-36 0 1.30027e-35 0 5.81513e-35 0 2.23565e-34 0 7.2979e-34 0 2.19803e-33 0 5.86282e-33 0 1.46008e-32 0 3.40822e-32 0 7.48303e-32 0 1.58345e-31 0 3.10275e-31 0 5.88711e-31 0
9.5847 1.81195e-08 1.71693e-08 9.50152e-10 0.0524382 0.0417684 0 0 0 0 4.90454e-44 0 5.1806e-41 0 5.49585e-39 0 1.71904e-37 0 2.64876e-36 0 2.42793e-35 0 1.61494e-34 0 8.28162e-34 0 3.44253e-33 0 1.23927e-32 0 3.81836e-32 0 1.08977e-31 0 2.77079e-31 0 6.59973e-31 0 1.4781e-30 0 3.12304e-30 0 6.37102e-30 0 1.20806e-29 0 2.22159e-29 0
10.0767 1.84643e-08 1.73668e-08 1.09745e-09 0.0594365 0.0387465 0 0 0 0 6.61553e-42 0 4.953e-39 0 4.18433e-37 0 1.1063e-35 0 1.49155e-34 0 1.22702e-33 0 7.44038e-33 0 3.52282e-32 0 1.36598e-31 0 4.61926e-31 0 1.34717e-30 0 3.65293e-30 0 8.87409e-30 0 2.02602e-29 0 4.36238e-29 0 8.8866e-29 0 1.75086e-28 0 3.21783e-28 0 5.74407e-28 0
10.5939 1.63289e-08 1.53176e-08 1.0113e-09 0.061933 0.0372209 0 0 4.2039e-45 0 6.02705e-40 0 3.26666e-37 0 2.22223e-35 0 5.00722e-34 0 5.94569e-33 0 4.41299e-32 0 2.45052e-31 0 1.07543e-30 0 3.90302e-30 0 1.24364e-29 0 3.44229e-29 0 8.89031e-29 0 2.06813e-28 0 4.53517e-28 0 9.40614e-28 0 1.8507e-27 0 3.52754e-27 0 6.29331e-27 0 1.09207e-26 0
11.1377 1.39271e-08 1.30579e-08 8.69163e-10 0.0624081 0.0376344 0 0 5.1848e-43 0 4.18065e-38 0 1.66632e-35 0 9.22495e-34 0 1.78535e-32 0 1.87872e-31 0 1.26441e-30 0 6.45748e-30 0 2.6365e-29 0 8.98489e-29 0 2.70542e-28 0 7.12524e-28 0 1.75691e-27 0 3.92201e-27 0 8.27703e-27 0 1.65662e-26 0 3.15354e-26 0 5.82447e-26 0 1.01016e-25 0 1.70637e-25 0
11.7094 1.12366e-08 1.05501e-08 6.86516e-10 0.0610964 0.0377814 0 0 4.71705e-41 0 2.19028e-36 0 6.51696e-34 0 2.9658e-32 0 4.96678e-31 0 4.65917e-30 0 2.85699e-29 0 1.34743e-28 0 5.1362e-28 0 1.64865e-27 0 4.70411e-27 0 1.1817e-26 0 2.78819e-26 0 5.98486e-26 0 1.21782e-25 0 2.35624e-25 0 4.34654e-25 0 7.79098e-25 0 1.31538e-24 0 2.16579e-24 0
12.3105 8.91514e-09 8.40365e-09 5.11483e-10 0.0573724 0.0377524 3.22299e-44 0 3.31772e-39 0 9.11625e-35 0 2.05397e-32 0 7.75774e-31 0 1.13217e-29 0 9.52087e-29 0 5.34346e-28 0 2.33633e-27 0 8.34248e-27 0 2.52961e-26 0 6.85757e-26 0 1.64691e-25 0 3.72633e-25 0 7.70578e-25 0 1.51454e-24 0 2.83742e-24 0 5.08001e-24 0 8.8499e-24 0 1.45643e-23 0 2.34037e-23 0
12.9424 7.83573e-09 7.46733e-09 3.68399e-10 0.0470152 0.0363437 3.47522e-42 0 2.06624e-37 0 3.4469e-33 0 5.9612e-31 0 1.8857e-29 0 2.4144e-28 0 1.82988e-27 0 9.44046e-27 0 3.8408e-26 0 1.28883e-25 0 3.70196e-25 0 9.55878e-25 0 2.1995e-24 0 4.78214e-24 0 9.54448e-24 0 1.81505e-23 0 3.29776e-23 0 5.73866e-23 0 9.73003e-23 0 1.5628e-22 0 2.4538e-22 0
13.6067 7.4104e-09 7.12581e-09 2.84591e-10 0.0384043 0.0331918 3.19158e-40 0 1.10936e-35 0 1.15126e-31 0 1.54815e-29 0 4.13723e-28 0 4.67715e-27 0 3.21107e-26 0 1.52908e-25 0 5.80902e-25 0 1.83741e-24 0 5.01268e-24 0 1.23574e-23 0 2.7301e-23 0 5.71488e-23 0 1.10277e-22 0 2.03232e-22 0 3.58642e-22 0 6.07443e-22 0 1.00372e-21 0 1.57527e-21 0 2.41949e-21 0
