# 0.000257326 1 85 : grain size, compostion index, size index
# Heating and cooling timescale: 4.74301e-05 4.54387e+08
# Ratio of heating to cooling to determine stochastic cutoff: 100
# Equilibrium emission is recorded even for those grains in the stochastic regime.
# Emission spectrum was computed for: 
# Type: IRSF
# Scales: 0.25 0.5 1 1.5 2 2.5 3 3.5 4 4.5 5 5.5 6 6.5 7 7.5 8 8.5 9 9.5 10
# StochasticallyHeated: 0 0 0 0 0 0 0 0 0 0 0 0 0 0 0 0 0 0 0 0 0
# Temperature: -1
# Wavelength  CExt  CAbs  CSca  Albedo G EqEm1 StEm1 EqEm2 StEm2 EqEm3 StEm3 EqEm4 StEm4 EqEm5 StEm5 EqEm6 StEm6 EqEm7 StEm7 EqEm8 StEm8 EqEm9 StEm9 EqEm10 StEm10 EqEm11 StEm11 EqEm12 StEm12 EqEm13 StEm13 EqEm14 StEm14 EqEm15 StEm15 EqEm16 StEm16 EqEm17 StEm17 EqEm18 StEm18 EqEm19 StEm19 EqEm20 StEm20 EqEm21 StEm21
0.05 4.2335e-07 1.48463e-07 2.74887e-07 0.649314 0.856472 0 0 0 0 0 0 0 0 0 0 0 0 0 0 0 0 0 0 0 0 0 0 0 0 0 0 0 0 0 0 0 0 0 0 0 0 0 0 0 0 0 0
0.0525665 4.23792e-07 1.46257e-07 2.77534e-07 0.654884 0.844255 0 0 0 0 0 0 0 0 0 0 0 0 0 0 0 0 0 0 0 0 0 0 0 0 0 0 0 0 0 0 0 0 0 0 0 0 0 0 0 0 0 0
0.0552647 4.24252e-07 1.44658e-07 2.79594e-07 0.659028 0.834124 0 0 0 0 0 0 0 0 0 0 0 0 0 0 0 0 0 0 0 0 0 0 0 0 0 0 0 0 0 0 0 0 0 0 0 0 0 0 0 0 0 0
0.0581015 4.24694e-07 1.44051e-07 2.80643e-07 0.660812 0.827928 0 0 0 0 0 0 0 0 0 0 0 0 0 0 0 0 0 0 0 0 0 0 0 0 0 0 0 0 0 0 0 0 0 0 0 0 0 0 0 0 0 0
0.0610839 4.25137e-07 1.42179e-07 2.82958e-07 0.66557 0.819407 0 0 0 0 0 0 0 0 0 0 0 0 0 0 0 0 0 0 0 0 0 0 0 0 0 0 0 0 0 0 0 0 0 0 0 0 0 0 0 0 0 0
0.0642193 4.25707e-07 1.37287e-07 2.8842e-07 0.677509 0.801603 0 0 0 0 0 0 0 0 0 0 0 0 0 0 0 0 0 0 0 0 0 0 0 0 0 0 0 0 0 0 0 0 0 0 0 0 0 0 0 0 0 0
0.0675157 4.26448e-07 1.32569e-07 2.93879e-07 0.689132 0.782161 0 0 0 0 0 0 0 0 0 0 0 0 0 0 0 0 0 0 0 0 0 0 0 0 0 0 0 0 0 0 0 0 0 0 0 0 0 0 0 0 0 0
0.0709813 4.27248e-07 1.32531e-07 2.94716e-07 0.689802 0.775287 0 0 0 0 0 0 0 0 0 0 0 0 0 0 0 0 0 0 0 0 0 0 0 0 0 0 0 0 0 0 0 0 0 0 0 0 0 0 0 0 0 0
0.0746248 4.28008e-07 1.35036e-07 2.92973e-07 0.684502 0.776689 0 0 0 0 0 0 0 0 0 0 0 0 0 0 0 0 0 0 0 0 0 0 0 0 0 0 0 0 0 0 0 0 0 0 0 0 0 0 0 0 0 0
0.0784553 4.28712e-07 1.38322e-07 2.9039e-07 0.677355 0.781549 0 0 0 0 0 0 0 0 0 0 0 0 0 0 0 0 0 0 0 0 0 0 0 0 0 0 0 0 0 0 0 0 0 0 0 0 0 0 0 0 0 0
0.0824824 4.29396e-07 1.42032e-07 2.87364e-07 0.669227 0.787336 0 0 0 0 0 0 0 0 0 0 0 0 0 0 0 0 0 0 0 0 0 0 0 0 0 0 0 0 0 0 0 0 0 0 0 0 0 0 0 0 0 0
0.0867162 4.3008e-07 1.43264e-07 2.86816e-07 0.666889 0.786281 0 0 0 0 0 0 0 0 0 0 0 0 0 0 0 0 0 0 0 0 0 0 0 0 0 0 0 0 0 0 0 0 0 0 0 0 0 0 0 0 0 0
0.0911674 4.30856e-07 1.43173e-07 2.87683e-07 0.667701 0.781294 0 0 0 0 0 0 0 0 0 0 0 0 0 0 0 0 0 0 0 0 0 0 0 0 0 0 0 0 0 0 0 0 0 0 0 0 0 0 0 0 0 0
0.095847 4.31616e-07 1.44418e-07 2.87199e-07 0.665403 0.779564 0 0 0 0 0 0 0 0 0 0 0 0 0 0 0 0 0 0 0 0 0 0 0 0 0 0 0 0 0 0 0 0 0 0 0 0 0 0 0 0 0 0
0.100767 4.32039e-07 1.49914e-07 2.82125e-07 0.653009 0.790605 0 0 0 0 0 0 0 0 0 0 0 0 0 0 0 0 0 0 0 0 0 0 0 0 0 0 0 0 0 0 0 0 0 0 0 0 0 0 0 0 0 0
0.105939 4.32279e-07 1.55249e-07 2.7703e-07 0.640859 0.804775 0 0 0 0 0 0 0 0 0 0 0 0 0 0 0 0 0 0 0 0 0 0 0 0 0 0 0 0 0 0 0 0 0 0 0 0 0 0 0 0 0 0
0.111377 4.31975e-07 1.6441e-07 2.67565e-07 0.619399 0.831785 0 0 0 0 0 0 0 0 0 0 0 0 0 0 0 0 0 0 0 0 0 0 0 0 0 0 0 0 0 0 0 0 0 0 0 0 0 0 0 0 0 0
0.117094 4.31827e-07 1.73689e-07 2.58138e-07 0.59778 0.863271 0 0 0 0 0 0 0 0 0 0 0 0 0 0 0 0 0 0 0 0 0 0 0 0 0 0 0 0 0 0 0 0 0 0 0 0 0 0 0 0 0 0
0.123105 4.32028e-07 1.79856e-07 2.52171e-07 0.583693 0.885338 0 0 0 0 0 0 0 0 0 0 0 0 0 0 0 0 0 0 0 0 0 0 0 0 0 0 0 0 0 0 0 0 0 0 0 0 0 0 0 0 0 0
0.129424 4.32352e-07 1.85225e-07 2.47128e-07 0.571589 0.904808 0 0 0 0 0 0 0 0 0 0 0 0 0 0 0 0 0 0 0 0 0 0 0 0 0 0 0 0 0 0 0 0 0 0 0 0 0 0 0 0 0 0
0.136067 4.32671e-07 1.8963e-07 2.43041e-07 0.561722 0.920587 0 0 0 0 0 0 0 0 0 0 0 0 0 0 0 0 0 0 0 0 0 0 0 0 0 0 0 0 0 0 0 0 0 0 0 0 0 0 0 0 0 0
0.143051 4.328e-07 1.93078e-07 2.39722e-07 0.553886 0.932881 0 0 0 0 0 0 0 0 0 0 0 0 0 0 0 0 0 0 0 0 0 0 0 0 0 0 0 0 0 0 0 0 0 0 0 0 0 0 0 0 0 0
0.150394 4.32558e-07 1.94897e-07 2.37661e-07 0.549432 0.940781 0 0 0 0 0 0 0 0 0 0 0 0 0 0 0 0 0 0 0 0 0 0 0 0 0 0 0 0 0 0 0 0 0 0 0 0 0 0 0 0 0 0
0.158114 4.32238e-07 1.93927e-07 2.38311e-07 0.551342 0.941579 0 0 0 0 0 0 0 0 0 0 0 0 0 0 0 0 0 0 0 0 0 0 0 0 0 0 0 0 0 0 0 0 0 0 0 0 0 0 0 0 0 0
0.16623 4.32497e-07 1.89014e-07 2.43483e-07 0.562971 0.931046 0 0 0 0 0 0 0 0 0 0 0 0 0 0 0 0 0 0 0 0 0 0 0 0 0 0 0 0 0 0 0 0 0 0 0 0 0 0 0 0 0 0
0.174762 4.33684e-07 1.80102e-07 2.53581e-07 0.584715 0.905459 0 0 0 0 0 0 0 0 0 0 0 0 0 0 0 0 0 0 0 0 0 0 0 0 0 0 0 0 0 0 0 0 0 0 0 0 0 0 0 0 0 0
0.183733 4.35267e-07 1.69275e-07 2.65992e-07 0.6111 0.871084 0 0 0 0 0 0 0 0 0 0 0 0 0 0 0 0 0 0 0 0 0 0 0 0 0 0 0 0 0 0 0 0 0 0 0 0 0 0 0 0 0 0
0.193164 4.37077e-07 1.58288e-07 2.7879e-07 0.63785 0.835827 0 0 0 0 0 0 0 0 0 0 0 0 0 0 0 0 0 0 0 0 0 0 0 0 0 0 0 0 0 0 0 0 0 0 0 0 0 0 0 0 0 0
0.203079 4.39064e-07 1.49005e-07 2.90059e-07 0.660631 0.806822 0 0 0 0 0 0 0 0 0 0 0 0 0 0 0 0 0 0 0 0 0 0 0 0 0 0 0 0 0 0 0 0 0 0 0 0 0 0 0 0 0 0
0.213503 4.41291e-07 1.41301e-07 2.9999e-07 0.679801 0.783401 0 0 0 0 0 0 0 0 0 0 0 0 0 0 0 0 0 0 0 0 0 0 0 0 0 0 0 0 0 0 0 0 0 0 0 0 0 0 0 0 0 0
0.224463 4.4401e-07 1.36926e-07 3.07084e-07 0.691615 0.767457 0 0 0 0 0 0 0 0 0 0 0 0 0 0 0 0 0 0 0 0 0 0 0 0 0 0 0 0 0 0 0 0 0 0 0 0 0 0 0 0 0 0
0.235984 4.47027e-07 1.35437e-07 3.1159e-07 0.697027 0.756902 0 0 0 0 0 0 0 0 0 0 0 0 0 0 0 0 0 0 0 0 0 0 0 0 0 0 0 0 0 0 0 0 0 0 0 0 0 0 0 0 0 0
0.248097 4.49607e-07 1.37934e-07 3.11673e-07 0.693212 0.753451 0 0 0 0 0 0 0 0 0 0 0 0 0 0 0 0 0 0 0 0 0 0 0 0 0 0 0 0 0 0 0 0 0 0 0 0 0 0 0 0 0 0
0.260832 4.50733e-07 1.42217e-07 3.08516e-07 0.684476 0.755077 0 0 0 0 0 0 0 0 0 0 0 0 0 0 0 0 0 0 0 0 0 0 0 0 0 0 0 0 0 0 0 0 0 0 0 0 0 0 0 0 0 0
0.274221 4.50812e-07 1.46524e-07 3.04288e-07 0.674978 0.758358 0 0 0 0 0 0 0 0 0 0 0 0 0 0 0 0 0 0 0 0 0 0 0 0 0 0 0 0 0 0 0 0 0 0 0 0 0 0 0 0 0 0
0.288297 4.50465e-07 1.51675e-07 2.9879e-07 0.663293 0.766726 0 0 0 0 0 0 0 0 0 0 0 0 0 0 0 0 0 0 0 0 0 0 0 0 0 0 0 0 0 0 0 0 0 0 0 0 0 0 0 0 0 0
0.303095 4.50565e-07 1.55358e-07 2.95207e-07 0.655193 0.773212 0 0 0 0 0 0 0 0 0 0 0 0 0 0 0 0 0 0 0 0 0 0 0 0 0 0 0 0 0 0 0 0 0 0 0 0 0 0 0 0 0 0
0.318653 4.50847e-07 1.58459e-07 2.92388e-07 0.648531 0.778954 0 0 0 0 0 0 0 0 0 0 0 0 0 0 0 0 0 0 0 0 0 0 0 0 0 0 0 0 0 0 0 0 0 0 0 0 0 0 0 0 0 0
0.335009 4.51354e-07 1.61066e-07 2.90288e-07 0.64315 0.783927 0 0 0 0 0 0 0 0 0 0 0 0 0 0 0 0 0 0 0 0 0 0 0 0 0 0 0 0 0 0 0 0 0 0 0 0 0 0 0 0 0 0
0.352205 4.52077e-07 1.63074e-07 2.89003e-07 0.639278 0.787417 0 0 0 0 0 0 0 0 0 0 0 0 0 0 0 0 0 0 0 0 0 0 0 0 0 0 0 0 0 0 0 0 0 0 0 0 0 0 0 0 0 0
0.370284 4.52933e-07 1.64608e-07 2.88325e-07 0.636573 0.789513 0 0 0 0 0 0 0 0 0 0 0 0 0 0 0 0 0 0 0 0 0 0 0 0 0 0 0 0 0 0 0 0 0 0 0 0 0 0 0 0 0 0
0.389291 4.53871e-07 1.65712e-07 2.88159e-07 0.634891 0.790197 0 0 0 0 0 0 0 0 0 0 0 0 0 0 0 0 0 0 0 0 0 0 0 0 0 0 0 0 0 0 0 0 0 0 0 0 0 0 0 0 0 0
0.409273 4.54845e-07 1.667e-07 2.88145e-07 0.633502 0.790518 0 0 0 0 0 0 0 0 0 0 0 0 0 0 0 0 0 0 0 0 0 0 0 0 0 0 0 0 0 0 0 0 0 0 0 0 0 0 0 0 0 0
0.430281 4.55841e-07 1.67637e-07 2.88204e-07 0.632247 0.790666 0 0 0 0 0 0 0 0 0 0 0 0 0 0 0 0 0 0 0 0 0 0 0 0 0 0 0 0 0 0 0 0 0 0 0 0 0 0 0 0 0 0
0.452368 4.56909e-07 1.68617e-07 2.88292e-07 0.630962 0.790993 0 0 0 0 0 0 0 0 0 0 0 0 0 0 0 0 0 0 0 0 0 0 0 0 0 0 0 0 0 0 0 0 0 0 0 0 0 0 0 0 0 0
0.475588 4.58028e-07 1.69589e-07 2.88438e-07 0.62974 0.791256 0 0 0 0 0 0 0 0 0 0 0 0 0 0 0 0 0 0 0 0 0 0 0 0 0 0 0 0 0 0 0 0 0 0 0 0 0 0 0 0 0 0
0.5 4.59226e-07 1.70503e-07 2.88722e-07 0.628716 0.791261 0 0 0 0 0 0 0 0 0 0 0 0 0 0 0 0 0 0 0 0 0 0 0 0 0 0 0 0 0 0 0 0 0 0 0 0 0 0 0 0 0 0
0.525665 4.60499e-07 1.71391e-07 2.89107e-07 0.627814 0.791102 0 0 0 0 0 0 0 0 0 0 0 0 0 0 0 0 0 0 0 0 0 0 0 0 0 0 0 0 0 0 0 0 0 0 0 0 0 0 0 0 0 0
0.552648 4.61808e-07 1.72266e-07 2.89542e-07 0.626975 0.790806 0 0 0 0 0 0 0 0 0 0 0 0 0 0 0 0 0 0 0 0 0 0 0 0 0 0 0 0 0 0 0 0 0 0 0 0 0 0 0 0 0 0
0.581015 4.63219e-07 1.72922e-07 2.90296e-07 0.626694 0.789739 0 0 0 0 0 0 0 0 0 0 0 0 0 0 0 0 0 0 0 0 0 0 0 0 0 0 0 0 0 0 0 0 0 0 0 0 0 0 0 0 0 0
0.610839 4.64665e-07 1.73586e-07 2.91079e-07 0.626427 0.788612 0 0 0 0 0 0 0 0 0 0 0 0 0 0 0 0 0 0 0 0 0 0 0 0 0 0 0 0 0 0 0 0 0 0 0 0 0 0 0 0 0 0
0.642193 4.66147e-07 1.74257e-07 2.9189e-07 0.626176 0.787418 0 0 0 0 0 0 0 0 0 0 0 0 0 0 0 0 0 0 0 0 0 0 0 0 0 0 0 0 0 0 0 0 0 0 0 0 0 0 0 0 0 0
0.675157 4.67678e-07 1.74845e-07 2.92833e-07 0.626142 0.785898 0 0 0 0 0 0 0 0 0 0 0 0 0 0 0 0 0 0 0 0 0 0 0 0 0 0 0 0 0 0 0 0 0 0 0 0 0 0 0 0 0 0
0.709813 4.69229e-07 1.75353e-07 2.93876e-07 0.626296 0.784053 0 0 0 0 0 0 0 0 0 0 0 0 0 0 0 0 0 0 0 0 0 0 0 0 0 0 0 0 0 0 0 0 0 0 0 0 0 0 0 0 0 0
0.746248 4.70866e-07 1.75822e-07 2.95044e-07 0.626598 0.782059 0 0 0 0 0 0 0 0 0 0 0 0 0 0 0 0 0 0 0 0 0 0 0 0 0 0 0 0 0 0 0 0 0 0 0 0 0 0 0 0 0 0
0.784553 4.72367e-07 1.76283e-07 2.96084e-07 0.626809 0.779893 0 0 0 0 0 0 0 0 0 0 0 0 0 0 0 0 0 0 0 0 0 0 0 0 0 0 0 0 0 0 0 0 0 0 0 0 0 0 0 0 0 0
0.824824 4.74228e-07 1.76717e-07 2.9751e-07 0.627358 0.777762 0 0 0 0 0 0 0 0 0 0 0 0 0 0 0 0 0 0 0 0 0 0 0 0 0 0 0 0 0 0 0 0 0 0 0 0 0 0 0 0 0 0
0.867162 4.75617e-07 1.77111e-07 2.98506e-07 0.627618 0.775265 0 0 0 0 0 0 0 0 0 0 0 0 0 0 0 0 0 0 0 0 0 0 0 0 0 0 0 0 0 0 0 0 0 0 0 0 0 0 0 0 0 0
0.911674 4.77277e-07 1.77449e-07 2.99828e-07 0.628206 0.772689 0 0 0 0 0 0 0 0 0 0 0 0 0 0 0 0 0 0 0 0 0 0 0 0 0 0 0 0 0 0 0 0 0 0 0 0 0 0 0 0 0 0
0.95847 4.79913e-07 1.77686e-07 3.02227e-07 0.629754 0.770289 0 0 0 0 0 0 0 0 0 0 0 0 0 0 0 0 0 0 0 0 0 0 0 0 0 0 0 0 0 0 0 0 0 0 0 0 0 0 0 0 0 0
1.00767 4.7945e-07 1.77729e-07 3.01721e-07 0.629307 0.765997 0 0 0 0 0 0 0 0 0 0 0 0 0 0 0 0 0 0 0 0 0 0 0 0 0 0 0 0 0 0 0 0 0 0 0 0 0 0 0 0 0 0
1.05939 4.82971e-07 1.77768e-07 3.05203e-07 0.631928 0.763752 0 0 0 0 0 0 0 0 0 0 0 0 0 0 0 0 0 0 0 0 0 0 0 0 0 0 0 0 0 0 0 0 0 0 0 0 0 0 0 0 0 0
1.11377 4.86456e-07 1.77392e-07 3.09064e-07 0.635337 0.760688 0 0 0 0 0 0 0 0 0 0 0 0 0 0 0 0 0 0 0 0 0 0 0 0 0 0 0 0 0 0 0 0 0 0 0 0 0 0 0 0 0 0
1.17094 4.83123e-07 1.76854e-07 3.06269e-07 0.633936 0.752855 0 0 0 0 0 0 0 0 0 0 0 0 0 0 0 0 0 0 0 0 0 0 0 0 0 0 0 0 0 0 0 0 0 0 0 0 0 0 0 0 0 0
1.23105 4.85657e-07 1.75761e-07 3.09896e-07 0.638096 0.747816 0 0 0 0 0 0 0 0 0 0 0 0 0 0 0 0 0 0 0 0 0 0 0 0 0 0 0 0 0 0 0 0 0 0 0 0 0 0 0 0 0 0
1.29424 4.94605e-07 1.74375e-07 3.2023e-07 0.647446 0.747092 0 0 0 0 0 0 0 0 0 0 0 0 0 0 0 0 0 0 0 0 0 0 0 0 0 0 0 0 0 0 0 0 0 0 0 0 0 0 0 0 0 0
1.36067 4.9397e-07 1.72921e-07 3.21049e-07 0.649936 0.741515 0 0 0 0 0 0 0 0 0 0 0 0 0 0 0 0 0 0 0 0 0 0 0 0 0 0 0 0 0 0 0 0 0 0 0 0 0 0 0 0 0 0
1.43051 4.86838e-07 1.71642e-07 3.15196e-07 0.647435 0.730139 0 0 0 0 0 0 0 0 0 0 0 0 0 0 0 0 0 0 0 0 0 0 0 0 0 0 0 0 0 0 0 0 0 0 0 0 0 0 0 0 0 0
1.50394 4.90609e-07 1.70261e-07 3.20348e-07 0.65296 0.721556 0 0 0 0 0 0 0 0 0 0 0 0 0 0 0 0 0 0 0 0 0 0 0 0 0 0 0 0 0 0 0 0 0 0 0 0 0 0 0 0 0 0
1.58114 5.05268e-07 1.68478e-07 3.3679e-07 0.666558 0.720007 0 0 0 0 0 0 0 0 0 0 0 0 0 0 0 0 0 0 0 0 0 0 0 0 0 0 0 0 0 0 0 0 0 0 0 0 0 0 0 0 0 0
1.6623 5.13177e-07 1.66252e-07 3.46926e-07 0.676035 0.718662 0 0 0 0 0 0 0 0 0 0 0 0 0 0 0 0 0 0 0 0 0 0 0 0 0 0 0 0 0 0 0 0 0 0 0 0 0 0 0 0 0 0
1.74763 5.03145e-07 1.62597e-07 3.40548e-07 0.676839 0.706007 0 0 0 0 0 0 0 0 0 0 0 0 0 0 0 0 0 0 0 0 0 0 0 0 0 0 0 0 0 0 0 0 0 0 0 0 0 0 0 0 0 0
1.83733 4.88188e-07 1.60097e-07 3.28091e-07 0.672059 0.681947 0 0 0 0 0 0 0 0 0 0 0 0 0 0 0 0 0 0 0 0 0 0 0 0 0 0 0 0 0 0 0 0 0 0 0 0 0 0 0 0 0 0
1.93164 4.91935e-07 1.63544e-07 3.28391e-07 0.66755 0.678847 0 0 0 0 0 0 0 0 0 0 0 0 0 0 0 0 0 0 0 0 0 0 0 0 0 0 0 0 0 0 0 0 0 0 0 0 0 0 0 0 0 0
2.03079 5.11424e-07 1.60697e-07 3.50726e-07 0.685784 0.684647 0 0 0 0 0 0 0 0 0 0 0 0 0 0 0 0 0 0 0 0 0 0 0 0 0 0 0 0 0 0 0 0 0 0 0 0 0 0 0 0 0 0
2.13503 5.26574e-07 1.55375e-07 3.71199e-07 0.704932 0.695936 0 0 0 0 0 0 0 0 0 0 0 0 0 0 0 0 0 0 0 0 0 0 0 0 0 0 0 0 0 0 0 0 0 0 0 0 0 0 0 0 0 0
2.24463 5.33321e-07 1.56081e-07 3.7724e-07 0.707341 0.677764 0 0 0 0 0 0 0 0 0 0 0 0 0 0 0 0 0 0 0 0 0 0 0 0 0 0 0 0 0 0 0 0 0 0 0 0 0 0 0 0 0 0
2.35984 5.24814e-07 1.5537e-07 3.69444e-07 0.703952 0.66288 0 0 0 0 0 0 0 0 0 0 0 0 0 0 0 0 0 0 0 0 0 0 0 0 0 0 0 0 0 0 0 0 0 0 0 0 0 0 0 0 0 0
2.48097 5.12065e-07 1.49404e-07 3.62661e-07 0.708232 0.638594 0 0 0 0 0 0 0 0 0 0 0 0 0 0 0 0 0 0 0 0 0 0 0 0 0 0 0 0 0 0 0 0 0 0 0 0 0 0 0 0 0 0
2.60832 4.88296e-07 1.49458e-07 3.38839e-07 0.69392 0.599746 0 0 0 0 0 0 0 0 0 0 0 0 0 0 0 0 0 0 0 0 0 0 0 0 0 0 0 0 0 0 0 0 0 0 0 0 0 0 0 0 0 0
2.74221 5.05591e-07 1.46818e-07 3.58774e-07 0.709612 0.596138 0 0 0 0 0 0 0 0 0 0 0 0 0 0 0 0 0 0 0 0 0 0 0 0 0 0 0 0 0 0 0 0 0 0 0 0 0 0 0 0 0 0
2.88297 4.96544e-07 1.44589e-07 3.51955e-07 0.70881 0.60224 0 0 0 0 0 0 0 0 0 0 0 0 0 0 0 0 0 0 0 0 0 0 0 0 0 0 0 0 0 0 0 0 0 0 0 0 0 0 0 0 0 0
3.03095 5.43778e-07 1.4367e-07 4.00108e-07 0.735793 0.624538 0 0 0 0 0 0 0 0 0 0 0 0 0 0 0 0 0 0 0 0 0 0 0 0 0 0 0 0 0 0 0 0 0 0 0 0 0 0 0 0 0 0
3.18653 5.42677e-07 1.43146e-07 3.99531e-07 0.736222 0.625365 0 0 0 0 0 0 0 0 0 0 0 0 0 0 0 0 0 0 0 0 0 0 0 0 0 0 0 0 0 0 0 0 0 0 0 0 0 0 0 0 0 0
3.35009 5.75937e-07 1.39807e-07 4.36131e-07 0.757254 0.654413 0 0 0 0 0 0 0 0 0 0 0 0 0 0 0 0 0 0 0 0 0 0 0 0 0 0 0 0 0 0 0 0 0 0 0 0 0 0 0 0 0 0
3.52205 5.8933e-07 1.5506e-07 4.3427e-07 0.736887 0.617865 0 0 0 0 0 0 0 0 0 0 0 0 0 0 0 0 0 0 0 0 0 0 0 0 0 0 0 0 0 0 0 0 0 0 0 0 0 0 0 0 0 0
3.70284 5.53804e-07 1.32779e-07 4.21025e-07 0.760241 0.635521 0 0 0 0 0 0 0 0 0 0 0 0 0 0 0 0 0 0 0 0 0 0 0 0 0 0 0 0 0 0 0 0 0 0 0 0 0 0 0 0 0 0
3.89291 5.67092e-07 1.47878e-07 4.19214e-07 0.739235 0.619355 0 0 0 0 0 0 0 0 0 0 0 0 0 0 0 0 0 0 0 0 0 0 0 0 0 0 0 0 0 0 0 0 0 0 0 0 0 0 0 0 0 0
4.09273 5.21222e-07 1.38156e-07 3.83066e-07 0.734938 0.562983 0 0 0 0 0 0 0 0 0 0 0 0 0 0 0 0 0 0 0 0 0 0 0 0 0 0 0 0 0 0 0 0 0 0 0 0 0 0 0 0 0 0
4.30281 5.04291e-07 1.34567e-07 3.69724e-07 0.733156 0.549774 0 0 0 0 0 0 0 0 0 0 0 0 0 0 0 0 0 0 0 0 0 0 0 0 0 0 0 0 0 0 0 0 0 0 0 0 0 0 0 0 0 0
4.52368 5.09143e-07 1.42345e-07 3.66798e-07 0.720422 0.498916 0 0 0 0 0 0 0 0 0 0 0 0 0 0 0 0 0 0 0 0 0 0 0 0 0 0 0 0 0 0 0 0 0 0 0 0 0 0 0 0 0 0
4.75588 4.97577e-07 1.37875e-07 3.59702e-07 0.722907 0.438252 0 0 0 0 0 0 0 0 0 0 0 0 0 0 0 0 0 0 0 0 0 0 0 0 0 0 0 0 0 0 0 0 0 0 0 0 0 0 0 0 0 0
5 4.81478e-07 1.31209e-07 3.50268e-07 0.727487 0.426253 0 0 0 0 0 0 0 0 0 0 0 0 0 0 0 0 0 0 0 0 0 0 0 0 0 0 0 0 0 0 0 0 0 0 0 0 0 0 0 0 0 0
5.25665 5.36466e-07 1.45961e-07 3.90506e-07 0.727922 0.389424 0 0 0 0 0 0 0 0 0 0 0 0 0 0 0 0 0 0 0 0 0 0 0 0 0 0 0 0 0 0 0 0 0 0 0 0 0 0 0 0 0 0
5.52648 5.3821e-07 1.31685e-07 4.06525e-07 0.755327 0.422169 0 0 0 0 0 0 0 0 0 0 0 0 0 0 0 0 0 0 0 0 0 0 0 0 0 0 0 0 0 0 0 0 0 0 0 0 0 0 0 0 0 0
5.81015 5.58246e-07 1.30094e-07 4.28151e-07 0.766959 0.455009 0 0 0 0 0 0 0 0 0 0 0 0 0 0 0 0 0 0 0 0 0 0 0 0 0 0 0 0 0 0 0 0 0 0 0 0 0 0 0 0 0 0
6.10839 6.01153e-07 1.34378e-07 4.66775e-07 0.776466 0.467775 0 0 0 0 0 0 0 0 0 0 0 0 0 0 0 0 0 0 0 0 0 0 0 0 0 0 0 0 0 0 0 0 0 0 0 0 0 0 0 0 0 0
6.42193 6.419e-07 1.39417e-07 5.02482e-07 0.782805 0.426932 0 0 0 0 0 0 0 0 0 0 0 0 0 0 0 0 0 0 0 0 0 0 0 0 0 0 0 0 0 0 0 0 0 0 0 0 0 0 0 0 0 0
6.75157 6.16577e-07 1.21631e-07 4.94947e-07 0.802732 0.423364 0 0 0 0 0 0 0 0 0 0 0 0 0 0 0 0 0 0 0 0 0 0 0 0 0 0 0 0 0 0 0 0 0 0 0 0 0 0 0 0 0 0
7.09813 6.46784e-07 1.1938e-07 5.27404e-07 0.815426 0.436101 0 0 0 0 0 0 0 0 0 0 0 0 0 0 0 0 0 0 0 0 0 0 0 0 0 0 0 0 0 0 0 0 0 0 0 0 0 0 0 0 0 0
7.46248 6.93583e-07 1.23364e-07 5.7022e-07 0.822136 0.450759 0 0 0 0 0 0 0 0 0 0 0 0 0 0 0 0 0 0 0 0 0 0 0 0 0 0 0 0 0 0 0 0 0 0 0 0 0 0 0 0 0 0
7.84553 7.49049e-07 1.32463e-07 6.16586e-07 0.823158 0.455241 0 0 0 0 0 0 0 0 0 0 0 0 0 0 0 0 0 0 0 0 0 0 0 0 0 0 0 0 0 0 0 0 0 0 0 0 0 0 0 0 0 0
8.24824 7.29997e-07 1.33623e-07 5.96374e-07 0.816954 0.436667 0 0 0 0 0 0 0 0 0 0 0 0 0 0 0 0 0 0 0 0 0 0 0 0 0 0 0 0 0 0 0 0 0 0 0 0 0 0 0 0 0 0
8.67162 6.6099e-07 1.22134e-07 5.38856e-07 0.815225 0.407266 0 0 0 0 0 0 0 0 0 0 0 0 0 0 0 0 0 0 0 0 0 0 0 0 0 0 0 0 0 0 0 0 0 0 0 0 0 0 0 0 0 0
9.11674 6.3311e-07 1.15322e-07 5.17788e-07 0.817848 0.379366 0 0 0 0 0 0 0 0 0 0 0 0 0 0 0 0 0 0 0 0 0 0 0 0 0 0 0 0 0 0 0 0 0 0 0 0 0 0 0 0 0 0
9.5847 6.2939e-07 1.1308e-07 5.16309e-07 0.820333 0.35231 0 0 0 0 0 0 0 0 0 0 0 0 0 0 0 0 0 0 0 0 0 0 0 0 0 0 0 0 0 0 0 0 0 0 0 0 1.4013e-45 0 2.8026e-45 0 8.40779e-45 0
10.0767 6.36716e-07 1.14325e-07 5.22391e-07 0.820446 0.327709 0 0 0 0 0 0 0 0 0 0 0 0 0 0 0 0 0 0 0 0 0 0 0 0 0 0 0 0 2.8026e-45 0 8.40779e-45 0 2.66247e-44 0 7.9874e-44 0 2.21405e-43 0 5.70328e-43 0 1.38588e-42 0
10.5939 6.40302e-07 1.18232e-07 5.2207e-07 0.81535 0.307968 0 0 0 0 0 0 0 0 0 0 0 0 0 0 0 0 0 0 0 0 1.4013e-45 0 5.60519e-45 0 2.52234e-44 0 1.09301e-43 0 4.11982e-43 0 1.34805e-42 0 4.1016e-42 0 1.16756e-41 0 3.05413e-41 0 7.52637e-41 0 1.75207e-40 0
11.1377 6.14416e-07 1.21167e-07 4.93249e-07 0.802794 0.290859 0 0 0 0 0 0 0 0 0 0 0 0 0 0 0 0 2.8026e-45 0 2.24208e-44 0 1.54143e-43 0 8.53391e-43 0 3.82274e-42 0 1.53288e-41 0 5.42583e-41 0 1.67259e-40 0 4.82145e-40 0 1.30423e-39 0 3.25512e-39 0 7.67603e-39 0 1.7147e-38 0
11.7094 6.04935e-07 1.23118e-07 4.81817e-07 0.796478 0.261222 0 0 0 0 0 0 0 0 0 0 0 0 1.4013e-45 0 3.50325e-44 0 4.07778e-43 0 3.33089e-42 0 2.07925e-41 0 1.06273e-40 0 4.42183e-40 0 1.65693e-39 0 5.51392e-39 0 1.60883e-38 0 4.40403e-38 0 1.13482e-37 0 2.7086e-37 0 6.12526e-37 0 1.31563e-36 0
12.3105 5.45005e-07 1.17457e-07 4.27548e-07 0.784484 0.22723 0 0 0 0 0 0 0 0 0 0 9.80909e-45 0 2.90069e-43 0 4.73078e-42 0 4.87946e-41 0 3.60017e-40 0 2.05536e-39 0 9.70102e-39 0 3.76499e-38 0 1.32269e-37 0 4.15067e-37 0 1.14938e-36 0 2.99537e-36 0 7.36982e-36 0 1.68589e-35 0 3.66358e-35 0 7.5806e-35 0
12.9424 5.15367e-07 1.14214e-07 4.01154e-07 0.778384 0.182899 0 0 0 0 0 0 0 0 2.10195e-44 0 1.4027e-42 0 3.55509e-41 0 5.0506e-40 0 4.64776e-39 0 3.11044e-38 0 1.63098e-37 0 7.13629e-37 0 2.59217e-36 0 8.56475e-36 0 2.54172e-35 0 6.6969e-35 0 1.66553e-34 0 3.92164e-34 0 8.61575e-34 0 1.80265e-33 0 3.59992e-33 0
13.6067 4.95756e-07 1.12567e-07 3.83189e-07 0.772938 0.138993 0 0 0 0 0 0 1.26117e-44 0 2.9119e-42 0 1.5882e-40 0 3.43864e-39 0 4.29155e-38 0 3.54367e-37 0 2.16134e-36 0 1.04524e-35 0 4.25541e-35 0 1.45138e-34 0 4.52367e-34 0 1.27303e-33 0 3.19921e-33 0 7.6103e-33 0 1.71854e-32 0 3.63325e-32 0 7.33265e-32 0 1.41571e-31 0
14.3051 4.79462e-07 1.12013e-07 3.67449e-07 0.766378 0.0995589 0 0 0 0 0 0 1.79506e-42 0 3.17149e-40 0 1.42316e-38 0 2.65174e-37 0 2.92575e-36 0 2.17928e-35 0 1.21686e-34 0 5.44896e-34 0 2.07144e-33 0 6.65422e-33 0 1.96201e-32 0 5.24939e-32 0 1.26117e-31 0 2.87579e-31 0 6.24084e-31 0 1.27205e-30 0 2.48074e-30 0 4.63816e-30 0
15.0394 4.62656e-07 1.119e-07 3.50756e-07 0.758135 0.0655168 0 0 0 0 9.80909e-44 0 1.98507e-40 0 2.72423e-38 0 1.01526e-36 0 1.63996e-35 0 1.60928e-34 0 1.08675e-33 0 5.57943e-33 0 2.32206e-32 0 8.27019e-32 0 2.50955e-31 0 7.01893e-31 0 1.78983e-30 0 4.11994e-30 0 9.02394e-30 0 1.88562e-29 0 3.71207e-29 0 7.00695e-29 0 1.27065e-28 0
15.8114 4.42832e-07 1.11731e-07 3.31101e-07 0.74769 0.0363275 0 0 0 0 1.23749e-41 0 1.72243e-38 0 1.85887e-36 0 5.80583e-35 0 8.1871e-34 0 7.18625e-33 0 4.42079e-32 0 2.09544e-31 0 8.13434e-31 0 2.7229e-30 0 7.82662e-30 0 2.08181e-29 0 5.07146e-29 0 1.12081e-28 0 2.36273e-28 0 4.76261e-28 0 9.0708e-28 0 1.65992e-27 0 2.9239e-27 0
16.623 4.18843e-07 1.1099e-07 3.07853e-07 0.735008 0.0110332 0 0 1.4013e-45 0 1.20833e-39 0 1.18113e-36 0 1.01424e-34 0 2.67783e-33 0 3.31847e-32 0 2.6197e-31 0 1.47478e-30 0 6.47899e-30 0 2.35394e-29 0 7.42824e-29 0 2.02787e-28 0 5.14238e-28 0 1.19943e-27 0 2.55013e-27 0 5.18358e-27 0 1.00971e-26 0 1.86353e-26 0 3.31104e-26 0 5.67329e-26 0
17.4762 3.90738e-07 1.09608e-07 2.81131e-07 0.719486 -0.0111395 0 0 2.66247e-43 0 9.2615e-38 0 6.4685e-35 0 4.4692e-33 0 1.00568e-31 0 1.10216e-30 0 7.86586e-30 0 4.06987e-29 0 1.66333e-28 0 5.67427e-28 0 1.69291e-27 0 4.40041e-27 0 1.06632e-26 0 2.38638e-26 0 4.89025e-26 0 9.60192e-26 0 1.81045e-25 0 3.24289e-25 0 5.60239e-25 0 9.35029e-25 0
