# 2.3714e-06 0 73 : grain size, compostion index, size index
# Heating and cooling timescale: 3.97476 4813.32
# Ratio of heating to cooling to determine stochastic cutoff: 100
# Equilibrium emission is recorded even for those grains in the stochastic regime.
# Emission spectrum was computed for: 
# Type: IRSF
# Scales: 0.25 0.5 1 1.5 2 2.5 3 3.5 4 4.5 5 5.5 6 6.5 7 7.5 8 8.5 9 9.5 10
# StochasticallyHeated: 1 1 0 0 0 0 0 0 0 0 0 0 0 0 0 0 0 0 0 0 0
# Temperature: -1
# Wavelength  CExt  CAbs  CSca  Albedo G EqEm1 StEm1 EqEm2 StEm2 EqEm3 StEm3 EqEm4 StEm4 EqEm5 StEm5 EqEm6 StEm6 EqEm7 StEm7 EqEm8 StEm8 EqEm9 StEm9 EqEm10 StEm10 EqEm11 StEm11 EqEm12 StEm12 EqEm13 StEm13 EqEm14 StEm14 EqEm15 StEm15 EqEm16 StEm16 EqEm17 StEm17 EqEm18 StEm18 EqEm19 StEm19 EqEm20 StEm20 EqEm21 StEm21
0.05 1.31925e-11 7.30322e-12 5.88925e-12 0.44641 0.00576547 0 0 0 0 0 0 0 0 0 0 0 0 0 0 0 0 0 0 0 0 0 0 0 0 0 0 0 0 0 0 0 0 0 0 0 0 0 0 0 0 0 0
0.0525665 1.45816e-11 8.07221e-12 6.50936e-12 0.44641 0.00637255 0 0 0 0 0 0 0 0 0 0 0 0 0 0 0 0 0 0 0 0 0 0 0 0 0 0 0 0 0 0 0 0 0 0 0 0 0 0 0 0 0 0
0.0552647 1.61169e-11 8.92217e-12 7.19476e-12 0.44641 0.00704355 0 0 0 0 0 0 0 0 0 0 0 0 0 0 0 0 0 0 0 0 0 0 0 0 0 0 0 0 0 0 0 0 0 0 0 0 0 0 0 0 0 0
0.0581015 1.7814e-11 9.86163e-12 7.95233e-12 0.44641 0.0077852 0 0 0 0 0 0 0 0 0 0 0 0 0 0 0 0 0 0 0 0 0 0 0 0 0 0 0 0 0 0 0 0 0 0 0 0 0 0 0 0 0 0
0.0610839 1.96897e-11 1.09e-11 8.78968e-12 0.44641 0.00860494 0 0 0 0 0 0 0 0 0 0 0 0 0 0 0 0 0 0 0 0 0 0 0 0 0 0 0 0 0 0 0 0 0 0 0 0 0 0 0 0 0 0
0.0642193 2.17629e-11 1.20477e-11 9.71519e-12 0.44641 0.009511 0 0 0 0 0 0 0 0 0 0 0 0 0 0 0 0 0 0 0 0 0 0 0 0 0 0 0 0 0 0 0 0 0 0 0 0 0 0 0 0 0 0
0.0675157 2.40545e-11 1.33163e-11 1.07381e-11 0.44641 0.0105125 0 0 0 0 0 0 0 0 0 0 0 0 0 0 0 0 0 0 0 0 0 0 0 0 0 0 0 0 0 0 0 0 0 0 0 0 0 0 0 0 0 0
0.0709813 2.65873e-11 1.47184e-11 1.18688e-11 0.44641 0.0116194 0 0 0 0 0 0 0 0 0 0 0 0 0 0 0 0 0 0 0 0 0 0 0 0 0 0 0 0 0 0 0 0 0 0 0 0 0 0 0 0 0 0
0.0746248 2.93868e-11 1.62682e-11 1.31186e-11 0.44641 0.0128428 0 0 0 0 0 0 0 0 0 0 0 0 0 0 0 0 0 0 0 0 0 0 0 0 0 0 0 0 0 0 0 0 0 0 0 0 0 0 0 0 0 0
0.0784553 3.24811e-11 1.79812e-11 1.44999e-11 0.44641 0.0141951 0 0 0 0 0 0 0 0 0 0 0 0 0 0 0 0 0 0 0 0 0 0 0 0 0 0 0 0 0 0 0 0 0 0 0 0 0 0 0 0 0 0
0.0824824 3.59012e-11 1.98745e-11 1.60266e-11 0.44641 0.0156898 0 0 0 0 0 0 0 0 0 0 0 0 0 0 0 0 0 0 0 0 0 0 0 0 0 0 0 0 0 0 0 0 0 0 0 0 0 0 0 0 0 0
0.0867162 3.96814e-11 2.19672e-11 1.77142e-11 0.44641 0.0173419 0 0 0 0 0 0 0 0 0 0 0 0 0 0 0 0 0 0 0 0 0 0 0 0 0 0 0 0 0 0 0 0 0 0 0 0 0 0 0 0 0 0
0.0911674 4.38597e-11 2.42803e-11 1.95794e-11 0.44641 0.0191679 0 0 0 0 0 0 0 0 0 0 0 0 0 0 0 0 0 0 0 0 0 0 0 0 0 0 0 0 0 0 0 0 0 0 0 0 0 0 0 0 0 0
0.095847 4.84779e-11 2.68369e-11 2.1641e-11 0.44641 0.0211862 0 0 0 0 0 0 0 0 0 0 0 0 0 0 0 0 0 0 0 0 0 0 0 0 0 0 0 0 0 0 0 0 0 0 0 0 0 0 0 0 0 0
0.100767 5.27209e-11 2.92025e-11 2.35184e-11 0.446092 0.0235692 0 0 0 0 0 0 0 0 0 0 0 0 0 0 0 0 0 0 0 0 0 0 0 0 0 0 0 0 0 0 0 0 0 0 0 0 0 0 0 0 0 0
0.105939 5.20584e-11 2.9185e-11 2.28734e-11 0.43938 0.0256046 0 0 0 0 0 0 0 0 0 0 0 0 0 0 0 0 0 0 0 0 0 0 0 0 0 0 0 0 0 0 0 0 0 0 0 0 0 0 0 0 0 0
0.111377 5.30622e-11 2.92691e-11 2.3793e-11 0.448399 0.0289403 0 0 0 0 0 0 0 0 0 0 0 0 0 0 0 0 0 0 0 0 0 0 0 0 0 0 0 0 0 0 0 0 0 0 0 0 0 0 0 0 0 0
0.117094 5.40449e-11 2.82807e-11 2.57642e-11 0.476718 0.0274507 0 0 0 0 0 0 0 0 0 0 0 0 0 0 0 0 0 0 0 0 0 0 0 0 0 0 0 0 0 0 0 0 0 0 0 0 0 0 0 0 0 0
0.123105 4.36515e-11 2.26376e-11 2.10139e-11 0.481401 0.0236555 0 0 0 0 0 0 0 0 0 0 0 0 0 0 0 0 0 0 0 0 0 0 0 0 0 0 0 0 0 0 0 0 0 0 0 0 0 0 0 0 0 0
0.129424 3.10566e-11 1.66642e-11 1.43923e-11 0.463423 0.0199126 0 0 0 0 0 0 0 0 0 0 0 0 0 0 0 0 0 0 0 0 0 0 0 0 0 0 0 0 0 0 0 0 0 0 0 0 0 0 0 0 0 0
0.136067 2.30188e-11 1.3499e-11 9.51975e-12 0.413564 0.0168557 0 0 0 0 0 0 0 0 0 0 0 0 0 0 0 0 0 0 0 0 0 0 0 0 0 0 0 0 0 0 0 0 0 0 0 0 0 0 0 0 0 0
0.143051 1.83094e-11 1.21177e-11 6.19165e-12 0.338169 0.0143876 0 0 0 0 0 0 0 0 0 0 0 0 0 0 0 0 0 0 0 0 0 0 0 0 0 0 0 0 0 0 0 0 0 0 0 0 0 0 0 0 0 0
0.150394 1.57672e-11 1.17884e-11 3.9788e-12 0.252347 0.0122986 0 0 0 0 0 0 0 0 0 0 0 0 0 0 0 0 0 0 0 0 0 0 0 0 0 0 0 0 0 0 0 0 0 0 0 0 0 0 0 0 0 0
0.158114 1.48621e-11 1.22602e-11 2.60187e-12 0.175068 0.01055 0 0 0 0 0 0 0 0 0 0 0 0 0 0 0 0 0 0 0 0 0 0 0 0 0 0 0 0 0 0 0 0 0 0 0 0 0 0 0 0 0 0
0.16623 1.53365e-11 1.34497e-11 1.88682e-12 0.123028 0.00908216 0 0 0 0 0 0 0 0 0 0 0 0 0 0 0 0 0 0 0 0 0 0 0 0 0 0 0 0 0 0 0 0 0 0 0 0 0 0 0 0 0 0
0.174762 1.68491e-11 1.519e-11 1.65917e-12 0.0984721 0.00782097 0 0 0 0 0 0 0 0 0 0 0 0 0 0 0 0 0 0 0 0 0 0 0 0 0 0 0 0 0 0 0 0 0 0 0 0 0 0 0 0 0 0
0.183733 1.94761e-11 1.76512e-11 1.82492e-12 0.0937008 0.00667218 0 0 0 0 0 0 0 0 0 0 0 0 0 0 0 0 0 0 0 0 0 0 0 0 0 0 0 0 0 0 0 0 0 0 0 0 0 0 0 0 0 0
0.193164 2.40763e-11 2.15318e-11 2.54442e-12 0.105682 0.00556038 0 0 0 0 0 0 0 0 0 0 0 0 0 0 0 0 0 0 0 0 0 0 0 0 0 0 0 0 0 0 0 0 0 0 0 0 0 0 0 0 0 0
0.203079 3.11026e-11 2.71243e-11 3.97835e-12 0.127911 0.00446034 0 0 0 0 0 0 0 0 0 0 0 0 0 0 0 0 0 0 0 0 0 0 0 0 0 0 0 0 0 0 0 0 0 0 0 0 0 0 0 0 0 0
0.213503 3.96065e-11 3.35524e-11 6.05412e-12 0.152857 0.00342932 0 0 0 0 0 0 0 0 0 0 0 0 0 0 0 0 0 0 0 0 0 0 0 0 0 0 0 0 0 0 0 0 0 0 0 0 0 0 0 0 0 0
0.224463 4.57496e-11 3.77408e-11 8.00878e-12 0.175057 0.00254317 0 0 0 0 0 0 0 0 0 0 0 0 0 0 0 0 0 0 0 0 0 0 0 0 0 0 0 0 0 0 0 0 0 0 0 0 0 0 0 0 0 0
0.235984 4.50923e-11 3.65077e-11 8.58462e-12 0.190379 0.00182186 0 0 0 0 0 0 0 0 0 0 0 0 0 0 0 0 0 0 0 0 0 0 0 0 0 0 0 0 0 0 0 0 0 0 0 0 0 0 0 0 0 0
0.248097 3.83922e-11 3.08105e-11 7.58161e-12 0.197478 0.00138916 0 0 0 0 0 0 0 0 0 0 0 0 0 0 0 0 0 0 0 0 0 0 0 0 0 0 0 0 0 0 0 0 0 0 0 0 0 0 0 0 0 0
0.260832 2.99917e-11 2.41134e-11 5.8783e-12 0.195998 0.00141961 0 0 0 0 0 0 0 0 0 0 0 0 0 0 0 0 0 0 0 0 0 0 0 0 0 0 0 0 0 0 0 0 0 0 0 0 0 0 0 0 0 0
0.274221 2.29452e-11 1.86798e-11 4.26538e-12 0.185894 0.00187131 0 0 0 0 0 0 0 0 0 0 0 0 0 0 0 0 0 0 0 0 0 0 0 0 0 0 0 0 0 0 0 0 0 0 0 0 0 0 0 0 0 0
0.288297 1.77205e-11 1.46966e-11 3.02391e-12 0.170645 0.00251556 0 0 0 0 0 0 0 0 0 0 0 0 0 0 0 0 0 0 0 0 0 0 0 0 0 0 0 0 0 0 0 0 0 0 0 0 0 0 0 0 0 0
0.303095 1.38951e-11 1.17444e-11 2.15067e-12 0.154779 0.0028362 0 0 0 0 0 0 0 0 0 0 0 0 0 0 0 0 0 0 0 0 0 0 0 0 0 0 0 0 0 0 0 0 0 0 0 0 0 0 0 0 0 0
0.318653 1.12978e-11 9.73811e-12 1.55965e-12 0.138049 0.00297223 0 0 0 0 0 0 0 0 0 0 0 0 0 0 0 0 0 0 0 0 0 0 0 0 0 0 0 0 0 0 0 0 0 0 0 0 0 0 0 0 0 0
0.335009 9.68853e-12 8.52513e-12 1.1634e-12 0.12008 0.00293231 0 0 0 0 0 0 0 0 0 0 0 0 0 0 0 0 0 0 0 0 0 0 0 0 0 0 0 0 0 0 0 0 0 0 0 0 0 0 0 0 0 0
0.352205 8.69868e-12 7.8047e-12 8.93981e-13 0.102772 0.00278811 0 0 0 0 0 0 0 0 0 0 0 0 0 0 0 0 0 0 0 0 0 0 0 0 0 0 0 0 0 0 0 0 0 0 0 0 0 0 0 0 0 0
0.370284 8.03538e-12 7.32984e-12 7.05538e-13 0.087804 0.00261033 0 0 0 0 0 0 0 0 0 0 0 0 0 0 0 0 0 0 0 0 0 0 0 0 0 0 0 0 0 0 0 0 0 0 0 0 0 0 0 0 0 0
0.389291 7.51261e-12 6.94423e-12 5.68381e-13 0.075657 0.00243645 0 0 0 0 0 0 0 0 0 0 0 0 0 0 0 0 0 0 0 0 0 0 0 0 0 0 0 0 0 0 0 0 0 0 0 0 0 0 0 0 0 0
0.409273 7.02885e-12 6.56517e-12 4.63688e-13 0.0659692 0.00226652 0 0 0 0 0 0 0 0 0 0 0 0 0 0 0 0 0 0 0 0 0 0 0 0 0 0 0 0 0 0 0 0 0 0 0 0 0 0 0 0 0 0
0.430281 6.54725e-12 6.16673e-12 3.80518e-13 0.0581188 0.00210471 0 0 0 0 0 0 0 0 0 0 0 0 0 0 0 0 0 0 0 0 0 0 0 0 0 0 0 0 0 0 0 0 0 0 0 0 0 0 0 0 0 0
0.452368 6.06773e-12 5.75506e-12 3.12671e-13 0.0515301 0.00193723 0 0 0 0 0 0 0 0 0 0 0 0 0 0 0 0 0 0 0 0 0 0 0 0 0 0 0 0 0 0 0 0 0 0 0 0 0 0 0 0 0 0
0.475588 5.60626e-12 5.34954e-12 2.56721e-13 0.0457918 0.00177642 0 0 0 0 0 0 0 0 0 0 0 0 0 0 0 0 0 0 0 0 0 0 0 0 0 0 0 0 0 0 0 0 0 0 0 0 0 0 0 0 0 0
0.5 5.17818e-12 4.96763e-12 2.10544e-13 0.0406599 0.00162159 0 0 0 0 0 0 0 0 0 0 0 0 0 0 0 0 0 0 0 0 0 0 0 0 0 0 0 0 0 0 0 0 0 0 0 0 0 0 0 0 0 0
0.525665 4.79312e-12 4.62055e-12 1.7257e-13 0.0360037 0.0014751 0 0 0 0 0 0 0 0 0 0 0 0 0 0 0 0 0 0 0 0 0 0 0 0 0 0 0 0 0 0 0 0 0 0 0 0 0 0 0 0 0 0
0.552648 4.45353e-12 4.31204e-12 1.41492e-13 0.0317707 0.00134175 0 0 0 0 0 0 0 0 0 0 0 0 0 0 0 0 0 0 0 0 0 0 0 0 0 0 0 0 0 0 0 0 0 0 0 0 0 0 0 0 0 0
0.581015 4.15726e-12 4.04111e-12 1.16144e-13 0.0279377 0.00121775 0 0 0 0 0 0 0 0 0 0 0 0 0 0 0 0 0 0 0 0 0 0 0 0 0 0 0 0 0 0 0 0 0 0 0 0 0 0 0 0 0 0
0.610839 3.8982e-12 3.80269e-12 9.55103e-14 0.0245011 0.00110516 0 0 0 0 0 0 0 0 0 0 0 0 0 0 0 0 0 0 0 0 0 0 0 0 0 0 0 0 0 0 0 0 0 0 0 0 0 0 0 0 0 0
0.642193 3.67026e-12 3.59154e-12 7.87202e-14 0.0214482 0.00100302 0 0 0 0 0 0 0 0 0 0 0 0 0 0 0 0 0 0 0 0 0 0 0 0 0 0 0 0 0 0 0 0 0 0 0 0 0 0 0 0 0 0
0.675157 3.46638e-12 3.40134e-12 6.50378e-14 0.0187625 0.000910957 0 0 0 0 0 0 0 0 0 0 0 0 0 0 0 0 0 0 0 0 0 0 0 0 0 0 0 0 0 0 0 0 0 0 0 0 0 0 0 0 0 0
0.709813 3.28054e-12 3.22668e-12 5.38621e-14 0.0164187 0.00082817 0 0 0 0 0 0 0 0 0 0 0 0 0 0 0 0 0 0 0 0 0 0 0 0 0 0 0 0 0 0 0 0 0 0 0 0 0 0 0 0 0 0
0.746248 3.10779e-12 3.06309e-12 4.47023e-14 0.014384 0.000754183 0 0 0 0 0 0 0 0 0 0 0 0 0 0 0 0 0 0 0 0 0 0 0 0 0 0 0 0 0 0 0 0 0 0 0 0 0 0 0 0 0 0
0.784553 2.94389e-12 2.90672e-12 3.71678e-14 0.0126254 0.000686995 0 0 0 0 0 0 0 0 0 0 0 0 0 0 0 0 0 0 0 0 0 0 0 0 0 0 0 0 0 0 0 0 0 0 0 0 0 0 0 0 0 0
0.824824 2.78614e-12 2.75519e-12 3.09484e-14 0.011108 0.000626788 0 0 0 0 0 0 0 0 0 0 0 0 0 0 0 0 0 0 0 0 0 0 0 0 0 0 0 0 0 0 0 0 0 0 0 0 0 0 0 0 0 0
0.867162 2.63255e-12 2.60676e-12 2.57945e-14 0.00979829 0.000572518 0 0 0 0 0 0 0 0 0 0 0 0 0 0 0 0 0 0 0 0 0 0 0 0 0 0 0 0 0 0 0 0 0 0 0 0 0 0 0 0 0 0
0.911674 2.48231e-12 2.4608e-12 2.1512e-14 0.00866611 0.000523427 0 0 0 0 0 0 0 0 0 0 0 0 0 0 0 0 0 0 0 0 0 0 0 0 0 0 0 0 0 0 0 0 0 0 0 0 0 0 0 0 0 0
0.95847 2.33531e-12 2.31737e-12 1.79412e-14 0.0076826 0.00047944 0 0 0 0 0 0 0 0 0 0 0 0 0 0 0 0 0 0 0 0 0 0 0 0 0 0 0 0 0 0 0 0 0 0 0 0 0 0 0 0 0 0
1.00767 2.19334e-12 2.17837e-12 1.49637e-14 0.00682235 0.0004395 0 0 0 0 0 0 0 0 0 0 0 0 0 0 0 0 0 0 0 0 0 0 0 0 0 0 0 0 0 0 0 0 0 0 0 0 0 0 0 0 0 0
1.05939 2.05885e-12 2.04637e-12 1.24734e-14 0.00605842 0.000403275 0 0 0 0 0 0 0 0 0 0 0 0 0 0 0 0 0 0 0 0 0 0 0 0 0 0 0 0 0 0 0 0 0 0 0 0 0 0 0 0 0 0
1.11377 1.91237e-12 1.90198e-12 1.03877e-14 0.00543183 0.000370298 0 0 0 0 0 0 0 0 0 0 0 0 0 0 0 0 0 0 0 0 0 0 0 0 0 0 0 0 0 0 0 0 0 0 0 0 0 0 0 0 0 0
1.17094 1.77822e-12 1.76957e-12 8.647e-15 0.00486273 0.000339515 0 0 0 0 0 0 0 0 0 0 0 0 0 0 0 0 0 0 0 0 0 0 0 0 0 0 0 0 0 0 0 0 0 0 0 0 0 0 0 0 0 0
1.23105 1.65078e-12 1.64359e-12 7.18901e-15 0.00435492 0.000311294 0 0 0 0 0 0 0 0 0 0 0 0 0 0 0 0 0 0 0 0 0 0 0 0 0 0 0 0 0 0 0 0 0 0 0 0 0 0 0 0 0 0
1.29424 1.52771e-12 1.52174e-12 5.97178e-15 0.00390897 0.000285362 0 0 0 0 0 0 0 0 0 0 0 0 0 0 0 0 0 0 0 0 0 0 0 0 0 0 0 0 0 0 0 0 0 0 0 0 0 0 0 0 0 0
1.36067 1.40952e-12 1.40456e-12 4.95552e-15 0.00351576 0.000261742 0 0 0 0 0 0 0 0 0 0 0 0 0 0 0 0 0 0 0 0 0 0 0 0 0 0 0 0 0 0 0 0 0 0 0 0 0 0 0 0 0 0
1.43051 1.29828e-12 1.29418e-12 4.10676e-15 0.00316323 0.000240209 0 0 0 0 0 0 0 0 0 0 0 0 0 0 0 0 0 0 0 0 0 0 0 0 0 0 0 0 0 0 0 0 0 0 0 0 0 0 0 0 0 0
1.50394 1.19395e-12 1.19055e-12 3.40043e-15 0.00284805 0.000220279 0 0 0 0 0 0 0 0 0 0 0 0 0 0 0 0 0 0 0 0 0 0 0 0 0 0 0 0 0 0 0 0 0 0 0 0 0 0 0 0 0 0
1.58114 1.09629e-12 1.09347e-12 2.8131e-15 0.00256602 0.000201732 0 0 0 0 0 0 0 0 0 0 0 0 0 0 0 0 0 0 0 0 0 0 0 0 0 0 0 0 0 0 0 0 0 0 0 0 0 0 0 0 0 0
1.6623 1.0051e-12 1.00278e-12 2.32481e-15 0.002313 0.000184534 0 0 0 0 0 0 0 0 0 0 0 0 0 0 0 0 0 0 0 0 0 0 0 0 0 0 0 0 0 0 0 0 0 0 0 0 0 0 0 0 0 0
1.74763 9.20336e-13 9.18417e-13 1.91974e-15 0.00208591 0.000169005 0 0 0 0 0 0 0 0 0 0 0 0 0 0 0 0 0 0 0 0 0 0 0 0 0 0 0 0 0 0 0 0 0 0 0 0 0 0 0 0 0 0
1.83733 8.41725e-13 8.40141e-13 1.58395e-15 0.00188179 0.000154804 0 0 0 0 0 0 0 0 0 0 0 0 0 0 0 0 0 0 0 0 0 0 0 0 0 0 0 0 0 0 0 0 0 0 0 0 0 0 0 0 0 0
1.93164 7.69058e-13 7.67753e-13 1.30583e-15 0.00169797 0.000141793 0 0 0 0 0 0 0 0 0 0 0 0 0 0 0 0 0 0 0 0 0 0 0 0 0 0 0 0 0 0 0 0 0 0 0 0 0 0 0 0 0 0
2.03079 7.0213e-13 7.01054e-13 1.07575e-15 0.00153212 0.000129725 0 0 0 0 0 0 0 0 0 0 0 0 0 0 0 0 0 0 0 0 0 0 0 0 0 0 0 0 0 0 0 0 0 0 0 0 0 0 0 0 0 0
2.13503 6.40585e-13 6.397e-13 8.85766e-16 0.00138274 0.000118657 0 0 0 0 0 0 0 0 0 0 0 0 0 0 0 0 0 0 0 0 0 0 0 0 0 0 0 0 0 0 0 0 0 0 0 0 0 0 0 0 0 0
2.24463 5.84054e-13 5.83325e-13 7.28854e-16 0.00124792 0.000108569 0 0 0 0 0 0 0 0 0 0 0 0 0 0 0 0 0 0 0 0 0 0 0 0 0 0 0 0 0 0 0 0 0 0 0 0 0 0 0 0 0 0
2.35984 5.32262e-13 5.31662e-13 5.9945e-16 0.00112623 9.92926e-05 0 0 0 0 0 0 0 0 0 0 0 0 0 0 0 0 0 0 0 0 0 0 0 0 0 0 0 0 0 0 0 0 0 0 0 0 0 0 0 0 0 0
2.48097 4.84878e-13 4.84386e-13 4.92786e-16 0.00101631 9.07218e-05 0 0 0 0 0 0 0 0 0 0 0 0 0 0 0 0 0 0 0 0 0 0 0 0 0 0 0 0 0 0 0 0 0 0 0 0 0 0 0 0 0 0
2.60832 4.41585e-13 4.4118e-13 4.04919e-16 0.000916967 8.27967e-05 0 0 0 0 0 0 0 0 0 0 0 0 0 0 0 0 0 0 0 0 0 0 0 0 0 0 0 0 0 0 0 0 0 0 0 0 0 0 0 0 0 0
2.74221 4.02101e-13 4.01768e-13 3.32643e-16 0.000827263 7.55862e-05 0 0 0 0 0 0 0 0 0 0 0 0 0 0 0 0 0 0 0 0 0 0 0 0 0 0 0 0 0 0 0 0 0 0 0 0 0 0 0 0 0 0
2.88297 3.6608e-13 3.65807e-13 2.73107e-16 0.000746029 6.90729e-05 0 0 0 0 0 0 0 0 0 0 0 0 0 0 0 0 0 0 0 0 0 0 0 0 0 0 0 0 0 0 0 0 0 0 0 0 0 0 0 0 0 0
3.03095 3.33314e-13 3.3309e-13 2.24211e-16 0.000672672 6.31538e-05 0 0 0 0 0 0 0 0 0 0 0 0 0 0 0 0 0 0 0 0 0 0 0 0 0 0 0 0 0 0 0 0 0 0 0 0 0 0 0 0 0 0
3.18653 3.03491e-13 3.03307e-13 1.83986e-16 0.000606231 5.76567e-05 0 0 0 0 0 0 0 0 0 0 0 0 0 0 0 0 0 0 0 0 0 0 0 0 0 0 0 0 0 0 0 0 0 0 0 0 0 0 0 0 0 0
3.35009 2.76413e-13 2.76262e-13 1.50938e-16 0.000546061 5.2603e-05 0 0 0 0 0 0 0 0 0 0 0 0 0 0 0 0 0 0 0 0 0 0 0 0 0 0 0 0 0 0 0 0 0 0 0 0 0 0 0 0 0 0
3.52205 2.51731e-13 2.51607e-13 1.2381e-16 0.000491837 4.80102e-05 0 0 0 0 0 0 0 0 0 0 0 0 0 0 0 0 0 0 0 0 0 0 0 0 0 0 0 0 0 0 0 0 0 0 0 0 0 0 0 0 0 0
3.70284 2.29359e-13 2.29257e-13 1.0153e-16 0.00044267 4.38066e-05 0 0 0 0 0 0 0 0 0 0 0 0 0 0 0 0 0 0 0 0 0 0 0 0 0 0 0 0 0 0 0 0 0 0 0 0 0 0 0 0 0 0
3.89291 2.0905e-13 2.08966e-13 8.32452e-17 0.000398208 3.9926e-05 0 0 0 0 0 0 0 0 0 0 0 0 0 0 0 0 0 0 0 0 0 0 0 0 0 0 0 0 0 0 0 0 0 0 0 0 0 0 0 0 0 0
4.09273 1.90624e-13 1.90556e-13 6.82458e-17 0.000358013 3.62643e-05 0 0 0 0 0 0 0 0 0 0 0 0 0 0 0 0 0 0 0 0 0 0 0 0 0 0 0 0 0 0 0 0 0 0 0 0 0 0 0 0 0 0
4.30281 1.73929e-13 1.73873e-13 5.59393e-17 0.000321621 3.29535e-05 0 0 0 0 0 0 0 0 0 0 0 0 0 0 0 0 0 0 0 0 0 0 0 0 0 0 0 0 0 0 0 0 0 0 0 0 1.4013e-45 0 2.8026e-45 0 8.40779e-45 0
4.52368 1.58794e-13 1.58749e-13 4.58526e-17 0.000288754 2.99416e-05 0 0 0 0 0 0 0 0 0 0 0 0 0 0 0 0 0 0 0 0 0 0 0 0 0 0 0 0 1.4013e-45 0 4.2039e-45 0 1.4013e-44 0 4.2039e-44 0 1.20512e-43 0 3.15292e-43 0 7.86128e-43 0
4.75588 1.45081e-13 1.45043e-13 3.75805e-17 0.000259032 2.71796e-05 0 0 0 0 0 0 0 0 0 0 0 0 0 0 0 0 0 0 0 0 0 0 1.4013e-45 0 7.00649e-45 0 3.08286e-44 0 1.16308e-43 0 4.03574e-43 0 1.22754e-42 0 3.52146e-42 0 9.55966e-42 0 2.38683e-41 0 5.6768e-41 0
5 1.32659e-13 1.32629e-13 3.07954e-17 0.000232139 2.45398e-05 0 0 0 0 0 0 0 0 0 0 0 0 0 0 0 0 0 0 4.2039e-45 0 2.52234e-44 0 1.38729e-43 0 6.48801e-43 0 2.60501e-42 0 9.08041e-42 0 2.96473e-41 0 8.54063e-41 0 2.32765e-40 0 6.01884e-40 0 1.43724e-39 0 3.27662e-39 0
5.25665 1.21489e-13 1.21464e-13 2.52359e-17 0.000207721 2.21678e-05 0 0 0 0 0 0 0 0 0 0 0 0 0 0 4.2039e-45 0 4.48416e-44 0 3.48923e-43 0 2.09634e-42 0 1.06106e-41 0 4.59276e-41 0 1.72134e-40 0 5.6462e-40 0 1.73997e-39 0 4.76019e-39 0 1.23536e-38 0 3.04959e-38 0 6.97912e-38 0 1.52836e-37 0
5.52648 1.11276e-13 1.11255e-13 2.0677e-17 0.000185818 2.00489e-05 0 0 0 0 0 0 0 0 0 0 1.4013e-45 0 2.38221e-44 0 3.64338e-43 0 3.54248e-42 0 2.50622e-41 0 1.37792e-40 0 6.44177e-40 0 2.59564e-39 0 9.12061e-39 0 2.82309e-38 0 8.23469e-38 0 2.14481e-37 0 5.31295e-37 0 1.25494e-36 0 2.75821e-36 0 5.81341e-36 0
5.81015 1.02124e-13 1.02107e-13 1.69428e-17 0.000165905 1.8115e-05 0 0 0 0 0 0 0 0 1.4013e-45 0 8.96831e-44 0 1.96882e-42 0 2.56634e-41 0 2.23653e-40 0 1.43789e-39 0 7.27446e-39 0 3.15412e-38 0 1.18732e-37 0 3.92374e-37 0 1.14933e-36 0 3.18175e-36 0 7.90877e-36 0 1.87423e-35 0 4.24507e-35 0 8.97824e-35 0 1.82467e-34 0
6.10839 9.43151e-14 9.43012e-14 1.38857e-17 0.000147227 1.63023e-05 0 0 0 0 0 0 1.4013e-45 0 1.56945e-43 0 6.67158e-42 0 1.266e-40 0 1.45588e-39 0 1.1415e-38 0 6.70147e-38 0 3.13234e-37 0 1.26428e-36 0 4.46092e-36 0 1.39063e-35 0 3.86514e-35 0 1.01812e-34 0 2.42066e-34 0 5.49985e-34 0 1.19696e-33 0 2.44063e-33 0 4.79135e-33 0
6.42193 8.60507e-14 8.60393e-14 1.13476e-17 0.000131871 1.48144e-05 0 0 0 2.10195e-44 0 0 9.3887e-44 0 1.11207e-41 0 3.92961e-40 0 6.45852e-39 0 6.59225e-38 0 4.67432e-37 0 2.517e-36 0 1.09115e-35 0 4.11407e-35 0 1.36495e-34 0 4.02527e-34 0 1.06433e-33 0 2.67405e-33 0 6.09454e-33 0 1.33032e-32 0 2.78737e-32 0 5.48923e-32 0 1.04271e-31 0
6.75157 7.95331e-14 7.95238e-14 9.30799e-18 0.000117033 1.32279e-05 0 2.8026e-45 0 9.29061e-43 7.00649e-45 0 6.78369e-42 0 6.36463e-40 0 1.88971e-38 0 2.70906e-37 0 2.46866e-36 0 1.59079e-35 0 7.89001e-35 0 3.18404e-34 0 1.12519e-33 0 3.5208e-33 0 9.84887e-33 0 2.48341e-32 0 5.96498e-32 0 1.30591e-31 0 2.74395e-31 0 5.54537e-31 0 1.05652e-30 0 1.94502e-30 0
7.09813 7.33998e-14 7.33921e-14 7.6254e-18 0.000103889 1.18448e-05 0 1.06499e-43 0 3.48895e-41 6.08164e-43 0 3.90821e-40 0 2.93744e-38 0 7.39081e-37 0 9.30368e-36 0 7.61103e-35 0 4.47804e-34 0 2.05399e-33 0 7.74313e-33 0 2.57274e-32 0 7.61419e-32 0 2.02562e-31 0 4.88212e-31 0 1.12354e-30 0 2.36743e-30 0 4.7973e-30 0 9.3677e-30 0 1.72946e-29 0 3.09043e-29 0
7.46248 6.8461e-14 6.84547e-14 6.24603e-18 9.1235e-05 1.05694e-05 0 4.00491e-42 0 1.12597e-39 3.91607e-41 0 1.83699e-38 0 1.11816e-36 0 2.40347e-35 0 2.67361e-34 0 1.97388e-33 0 1.06509e-32 0 4.53524e-32 0 1.60244e-31 0 5.02109e-31 0 1.40935e-30 0 3.57443e-30 0 8.25286e-30 0 1.82352e-29 0 3.70507e-29 0 7.25338e-29 0 1.37084e-28 0 2.4562e-28 0 4.26641e-28 0
7.84553 6.36376e-14 6.36325e-14 5.11624e-18 8.03965e-05 9.34187e-06 0 1.2844e-40 3.78351e-44 3.10059e-38 2.02068e-39 0 7.02001e-37 0 3.49635e-35 0 6.46991e-34 0 6.39843e-33 0 4.28456e-32 0 2.12927e-31 0 8.44741e-31 0 2.80633e-30 0 8.31647e-30 0 2.21961e-29 0 5.37934e-29 0 1.1923e-28 0 2.53443e-28 0 4.97432e-28 0 9.42397e-28 0 1.72656e-27 0 3.00673e-27 0 5.08375e-27 0
8.24824 5.81505e-14 5.81463e-14 4.19046e-18 7.20624e-05 8.19911e-06 0 3.4757e-39 2.62323e-42 7.22978e-37 8.32229e-38 0 2.17284e-35 0 8.94206e-34 0 1.43498e-32 0 1.26892e-31 0 7.74366e-31 0 3.55856e-30 0 1.31991e-29 0 4.13526e-29 0 1.16217e-28 0 2.95658e-28 0 6.86233e-28 0 1.46302e-27 0 2.99749e-27 0 5.69262e-27 0 1.04535e-26 0 1.85941e-26 0 3.15154e-26 0 5.19371e-26 0
8.67162 5.39829e-14 5.39794e-14 3.43218e-18 6.35791e-05 7.20916e-06 2.8026e-45 8.25188e-38 1.4931e-40 1.48386e-35 2.85623e-36 0 5.68306e-34 0 1.9506e-32 0 2.73354e-31 0 2.17318e-30 0 1.21411e-29 0 5.17901e-29 0 1.80187e-28 0 5.33909e-28 0 1.42666e-27 0 3.46772e-27 0 7.72453e-27 0 1.58708e-26 0 3.13976e-26 0 5.77897e-26 0 1.03018e-25 0 1.78162e-25 0 2.9429e-25 0 4.733e-25 0
9.11674 4.98202e-14 4.98174e-14 2.81107e-18 5.64243e-05 6.32492e-06 1.86373e-43 1.69156e-36 6.82774e-39 2.63791e-34 8.07111e-35 0 1.24018e-32 0 3.58178e-31 0 4.41242e-30 0 3.1702e-29 0 1.62843e-28 0 6.47142e-28 0 2.11856e-27 0 5.9532e-27 0 1.51623e-26 0 3.52902e-26 0 7.55962e-26 0 1.49954e-25 0 2.86939e-25 0 5.12634e-25 0 8.88411e-25 0 1.49588e-24 0 2.41111e-24 0 3.78881e-24 0
9.5847 4.63463e-14 4.6344e-14 2.30225e-18 4.96748e-05 5.52644e-06 1.17008e-41 3.0524e-35 2.56959e-37 4.14076e-33 1.92166e-33 0 2.30926e-31 0 5.65944e-30 0 6.16743e-29 0 4.0244e-28 0 1.90846e-27 0 7.0902e-27 0 2.19055e-26 0 5.85269e-26 0 1.42412e-25 0 3.1807e-25 0 6.5647e-25 0 1.25936e-24 0 2.33465e-24 0 4.05448e-24 0 6.8404e-24 0 1.12284e-23 0 1.76813e-23 0 2.7178e-23 0
10.0767 4.325e-14 4.32481e-14 1.88562e-18 4.35982e-05 4.78203e-06 5.93454e-40 4.85064e-34 7.99917e-36 5.74117e-32 3.8701e-32 0 3.68107e-30 0 7.71691e-29 0 7.48389e-28 0 4.45608e-27 0 1.95854e-26 0 6.8246e-26 0 1.9955e-25 0 5.0818e-25 0 1.184e-24 0 2.54267e-24 0 5.06546e-24 0 9.41325e-24 0 1.69325e-23 0 2.86241e-23 0 4.70748e-23 0 7.54251e-23 0 1.16168e-22 0 1.74853e-22 0
