# 6.3096e-06 1 90 : grain size, compostion index, size index
# Heating and cooling timescale: 0.96122 341120
# Ratio of heating to cooling to determine stochastic cutoff: 100
# Equilibrium emission is recorded even for those grains in the stochastic regime.
# Emission spectrum was computed for: 
# Type: IRSF
# Scales: 0.25 0.5 1 1.5 2 2.5 3 3.5 4 4.5 5 5.5 6 6.5 7 7.5 8 8.5 9 9.5 10
# StochasticallyHeated: 0 0 0 0 0 0 0 0 0 0 0 0 0 0 0 0 0 0 0 0 0
# Temperature: -1
# Wavelength  CExt  CAbs  CSca  Albedo G EqEm1 StEm1 EqEm2 StEm2 EqEm3 StEm3 EqEm4 StEm4 EqEm5 StEm5 EqEm6 StEm6 EqEm7 StEm7 EqEm8 StEm8 EqEm9 StEm9 EqEm10 StEm10 EqEm11 StEm11 EqEm12 StEm12 EqEm13 StEm13 EqEm14 StEm14 EqEm15 StEm15 EqEm16 StEm16 EqEm17 StEm17 EqEm18 StEm18 EqEm19 StEm19 EqEm20 StEm20 EqEm21 StEm21
0.05 8.08225e-11 4.34074e-11 3.7415e-11 0.462929 0.196124 0 0 0 0 0 0 0 0 0 0 0 0 0 0 0 0 0 0 0 0 0 0 0 0 0 0 0 0 0 0 0 0 0 0 0 0 0 0 0 0 0 0
0.0525665 8.93327e-11 4.7978e-11 4.13547e-11 0.462929 0.216775 0 0 0 0 0 0 0 0 0 0 0 0 0 0 0 0 0 0 0 0 0 0 0 0 0 0 0 0 0 0 0 0 0 0 0 0 0 0 0 0 0 0
0.0552647 9.8739e-11 5.30299e-11 4.57091e-11 0.462929 0.2396 0 0 0 0 0 0 0 0 0 0 0 0 0 0 0 0 0 0 0 0 0 0 0 0 0 0 0 0 0 0 0 0 0 0 0 0 0 0 0 0 0 0
0.0581015 1.09136e-10 5.86137e-11 5.0522e-11 0.462929 0.264829 0 0 0 0 0 0 0 0 0 0 0 0 0 0 0 0 0 0 0 0 0 0 0 0 0 0 0 0 0 0 0 0 0 0 0 0 0 0 0 0 0 0
0.0610839 1.20627e-10 6.47854e-11 5.58418e-11 0.462929 0.292714 0 0 0 0 0 0 0 0 0 0 0 0 0 0 0 0 0 0 0 0 0 0 0 0 0 0 0 0 0 0 0 0 0 0 0 0 0 0 0 0 0 0
0.0642193 1.33329e-10 7.1607e-11 6.17216e-11 0.462929 0.323535 0 0 0 0 0 0 0 0 0 0 0 0 0 0 0 0 0 0 0 0 0 0 0 0 0 0 0 0 0 0 0 0 0 0 0 0 0 0 0 0 0 0
0.0675157 1.47368e-10 7.91469e-11 6.82206e-11 0.462928 0.357602 0 0 0 0 0 0 0 0 0 0 0 0 0 0 0 0 0 0 0 0 0 0 0 0 0 0 0 0 0 0 0 0 0 0 0 0 0 0 0 0 0 0
0.0709813 1.62885e-10 8.74807e-11 7.54039e-11 0.462928 0.395256 0 0 0 0 0 0 0 0 0 0 0 0 0 0 0 0 0 0 0 0 0 0 0 0 0 0 0 0 0 0 0 0 0 0 0 0 0 0 0 0 0 0
0.0746248 1.80036e-10 9.66919e-11 8.33436e-11 0.462929 0.436875 0 0 0 0 0 0 0 0 0 0 0 0 0 0 0 0 0 0 0 0 0 0 0 0 0 0 0 0 0 0 0 0 0 0 0 0 0 0 0 0 0 0
0.0784553 1.98992e-10 1.06873e-10 9.21192e-11 0.462929 0.482875 0 0 0 0 0 0 0 0 0 0 0 0 0 0 0 0 0 0 0 0 0 0 0 0 0 0 0 0 0 0 0 0 0 0 0 0 0 0 0 0 0 0
0.0824824 2.19945e-10 1.18126e-10 1.01819e-10 0.462929 0.53372 0 0 0 0 0 0 0 0 0 0 0 0 0 0 0 0 0 0 0 0 0 0 0 0 0 0 0 0 0 0 0 0 0 0 0 0 0 0 0 0 0 0
0.0867162 2.43105e-10 1.30565e-10 1.1254e-10 0.462928 0.589918 0 0 0 0 0 0 0 0 0 0 0 0 0 0 0 0 0 0 0 0 0 0 0 0 0 0 0 0 0 0 0 0 0 0 0 0 0 0 0 0 0 0
0.0911674 2.68702e-10 1.44312e-10 1.2439e-10 0.462929 0.652034 0 0 0 0 0 0 0 0 0 0 0 0 0 0 0 0 0 0 0 0 0 0 0 0 0 0 0 0 0 0 0 0 0 0 0 0 0 0 0 0 0 0
0.095847 2.96995e-10 1.59508e-10 1.37488e-10 0.462929 0.72069 0 0 0 0 0 0 0 0 0 0 0 0 0 0 0 0 0 0 0 0 0 0 0 0 0 0 0 0 0 0 0 0 0 0 0 0 0 0 0 0 0 0
0.100767 3.24045e-10 1.74101e-10 1.49944e-10 0.462726 0.78355 0 0 0 0 0 0 0 0 0 0 0 0 0 0 0 0 0 0 0 0 0 0 0 0 0 0 0 0 0 0 0 0 0 0 0 0 0 0 0 0 0 0
0.105939 3.29256e-10 1.77176e-10 1.5208e-10 0.46189 0.780102 0 0 0 0 0 0 0 0 0 0 0 0 0 0 0 0 0 0 0 0 0 0 0 0 0 0 0 0 0 0 0 0 0 0 0 0 0 0 0 0 0 0
0.111377 3.34743e-10 1.80225e-10 1.54517e-10 0.4616 0.776981 0 0 0 0 0 0 0 0 0 0 0 0 0 0 0 0 0 0 0 0 0 0 0 0 0 0 0 0 0 0 0 0 0 0 0 0 0 0 0 0 0 0
0.117094 3.40754e-10 1.83235e-10 1.5752e-10 0.462267 0.771452 0 0 0 0 0 0 0 0 0 0 0 0 0 0 0 0 0 0 0 0 0 0 0 0 0 0 0 0 0 0 0 0 0 0 0 0 0 0 0 0 0 0
0.123105 3.47705e-10 1.86402e-10 1.61303e-10 0.463908 0.764243 0 0 0 0 0 0 0 0 0 0 0 0 0 0 0 0 0 0 0 0 0 0 0 0 0 0 0 0 0 0 0 0 0 0 0 0 0 0 0 0 0 0
0.129424 3.5562e-10 1.89626e-10 1.65993e-10 0.466773 0.75568 0 0 0 0 0 0 0 0 0 0 0 0 0 0 0 0 0 0 0 0 0 0 0 0 0 0 0 0 0 0 0 0 0 0 0 0 0 0 0 0 0 0
0.136067 3.65598e-10 1.92861e-10 1.72737e-10 0.472477 0.74514 0 0 0 0 0 0 0 0 0 0 0 0 0 0 0 0 0 0 0 0 0 0 0 0 0 0 0 0 0 0 0 0 0 0 0 0 0 0 0 0 0 0
0.143051 3.80388e-10 1.95523e-10 1.84865e-10 0.485992 0.73001 0 0 0 0 0 0 0 0 0 0 0 0 0 0 0 0 0 0 0 0 0 0 0 0 0 0 0 0 0 0 0 0 0 0 0 0 0 0 0 0 0 0
0.150394 4.04518e-10 1.93786e-10 2.10733e-10 0.520947 0.706138 0 0 0 0 0 0 0 0 0 0 0 0 0 0 0 0 0 0 0 0 0 0 0 0 0 0 0 0 0 0 0 0 0 0 0 0 0 0 0 0 0 0
0.158114 4.41373e-10 1.78469e-10 2.62905e-10 0.595652 0.662887 0 0 0 0 0 0 0 0 0 0 0 0 0 0 0 0 0 0 0 0 0 0 0 0 0 0 0 0 0 0 0 0 0 0 0 0 0 0 0 0 0 0
0.16623 4.79098e-10 1.50499e-10 3.286e-10 0.685871 0.619887 0 0 0 0 0 0 0 0 0 0 0 0 0 0 0 0 0 0 0 0 0 0 0 0 0 0 0 0 0 0 0 0 0 0 0 0 0 0 0 0 0 0
0.174762 4.83212e-10 1.26497e-10 3.56714e-10 0.738216 0.621094 0 0 0 0 0 0 0 0 0 0 0 0 0 0 0 0 0 0 0 0 0 0 0 0 0 0 0 0 0 0 0 0 0 0 0 0 0 0 0 0 0 0
0.183733 4.41006e-10 9.42158e-11 3.46791e-10 0.786362 0.625263 0 0 0 0 0 0 0 0 0 0 0 0 0 0 0 0 0 0 0 0 0 0 0 0 0 0 0 0 0 0 0 0 0 0 0 0 0 0 0 0 0 0
0.193164 3.86715e-10 6.71006e-11 3.19615e-10 0.826486 0.592109 0 0 0 0 0 0 0 0 0 0 0 0 0 0 0 0 0 0 0 0 0 0 0 0 0 0 0 0 0 0 0 0 0 0 0 0 0 0 0 0 0 0
0.203079 3.46395e-10 5.89525e-11 2.87442e-10 0.829811 0.545201 0 0 0 0 0 0 0 0 0 0 0 0 0 0 0 0 0 0 0 0 0 0 0 0 0 0 0 0 0 0 0 0 0 0 0 0 0 0 0 0 0 0
0.213503 3.1249e-10 5.61615e-11 2.56329e-10 0.820278 0.522968 0 0 0 0 0 0 0 0 0 0 0 0 0 0 0 0 0 0 0 0 0 0 0 0 0 0 0 0 0 0 0 0 0 0 0 0 0 0 0 0 0 0
0.224463 2.78159e-10 5.32034e-11 2.24955e-10 0.80873 0.531308 0 0 0 0 0 0 0 0 0 0 0 0 0 0 0 0 0 0 0 0 0 0 0 0 0 0 0 0 0 0 0 0 0 0 0 0 0 0 0 0 0 0
0.235984 2.41191e-10 4.96643e-11 1.91526e-10 0.794087 0.553482 0 0 0 0 0 0 0 0 0 0 0 0 0 0 0 0 0 0 0 0 0 0 0 0 0 0 0 0 0 0 0 0 0 0 0 0 0 0 0 0 0 0
0.248097 2.05838e-10 4.5385e-11 1.60453e-10 0.779511 0.569371 0 0 0 0 0 0 0 0 0 0 0 0 0 0 0 0 0 0 0 0 0 0 0 0 0 0 0 0 0 0 0 0 0 0 0 0 0 0 0 0 0 0
0.260832 1.75667e-10 4.112e-11 1.34547e-10 0.765921 0.566188 0 0 0 0 0 0 0 0 0 0 0 0 0 0 0 0 0 0 0 0 0 0 0 0 0 0 0 0 0 0 0 0 0 0 0 0 0 0 0 0 0 0
0.274221 1.50845e-10 3.7168e-11 1.13677e-10 0.753602 0.540225 0 0 0 0 0 0 0 0 0 0 0 0 0 0 0 0 0 0 0 0 0 0 0 0 0 0 0 0 0 0 0 0 0 0 0 0 0 0 0 0 0 0
0.288297 1.30619e-10 3.37424e-11 9.68766e-11 0.741673 0.496201 0 0 0 0 0 0 0 0 0 0 0 0 0 0 0 0 0 0 0 0 0 0 0 0 0 0 0 0 0 0 0 0 0 0 0 0 0 0 0 0 0 0
0.303095 1.13763e-10 3.08419e-11 8.29215e-11 0.728895 0.443993 0 0 0 0 0 0 0 0 0 0 0 0 0 0 0 0 0 0 0 0 0 0 0 0 0 0 0 0 0 0 0 0 0 0 0 0 0 0 0 0 0 0
0.318653 9.94131e-11 2.83725e-11 7.10406e-11 0.7146 0.391812 0 0 0 0 0 0 0 0 0 0 0 0 0 0 0 0 0 0 0 0 0 0 0 0 0 0 0 0 0 0 0 0 0 0 0 0 0 0 0 0 0 0
0.335009 8.69316e-11 2.62298e-11 6.07018e-11 0.698271 0.344223 0 0 0 0 0 0 0 0 0 0 0 0 0 0 0 0 0 0 0 0 0 0 0 0 0 0 0 0 0 0 0 0 0 0 0 0 0 0 0 0 0 0
0.352205 7.5953e-11 2.43274e-11 5.16256e-11 0.679704 0.302718 0 0 0 0 0 0 0 0 0 0 0 0 0 0 0 0 0 0 0 0 0 0 0 0 0 0 0 0 0 0 0 0 0 0 0 0 0 0 0 0 0 0
0.370284 6.63022e-11 2.26054e-11 4.36968e-11 0.659056 0.267132 0 0 0 0 0 0 0 0 0 0 0 0 0 0 0 0 0 0 0 0 0 0 0 0 0 0 0 0 0 0 0 0 0 0 0 0 0 0 0 0 0 0
0.389291 5.779e-11 2.1024e-11 3.67659e-11 0.6362 0.236703 0 0 0 0 0 0 0 0 0 0 0 0 0 0 0 0 0 0 0 0 0 0 0 0 0 0 0 0 0 0 0 0 0 0 0 0 0 0 0 0 0 0
0.409273 5.03566e-11 1.95627e-11 3.0794e-11 0.611517 0.210566 0 0 0 0 0 0 0 0 0 0 0 0 0 0 0 0 0 0 0 0 0 0 0 0 0 0 0 0 0 0 0 0 0 0 0 0 0 0 0 0 0 0
0.430281 4.38795e-11 1.82068e-11 2.56727e-11 0.585072 0.187966 0 0 0 0 0 0 0 0 0 0 0 0 0 0 0 0 0 0 0 0 0 0 0 0 0 0 0 0 0 0 0 0 0 0 0 0 0 0 0 0 0 0
0.452368 3.8271e-11 1.69487e-11 2.13223e-11 0.55714 0.168351 0 0 0 0 0 0 0 0 0 0 0 0 0 0 0 0 0 0 0 0 0 0 0 0 0 0 0 0 0 0 0 0 0 0 0 0 0 0 0 0 0 0
0.475588 3.3434e-11 1.57802e-11 1.76537e-11 0.528018 0.151135 0 0 0 0 0 0 0 0 0 0 0 0 0 0 0 0 0 0 0 0 0 0 0 0 0 0 0 0 0 0 0 0 0 0 0 0 0 0 0 0 0 0
0.5 2.92798e-11 1.46999e-11 1.45799e-11 0.497951 0.135938 0 0 0 0 0 0 0 0 0 0 0 0 0 0 0 0 0 0 0 0 0 0 0 0 0 0 0 0 0 0 0 0 0 0 0 0 0 0 0 0 0 0
0.525665 2.57213e-11 1.37e-11 1.20212e-11 0.467366 0.122462 0 0 0 0 0 0 0 0 0 0 0 0 0 0 0 0 0 0 0 0 0 0 0 0 0 0 0 0 0 0 0 0 0 0 0 0 0 0 0 0 0 0
0.552648 2.26727e-11 1.27755e-11 9.89728e-12 0.436527 0.110469 0 0 0 0 0 0 0 0 0 0 0 0 0 0 0 0 0 0 0 0 0 0 0 0 0 0 0 0 0 0 0 0 0 0 0 0 0 0 0 0 0 0
0.581015 2.00576e-11 1.19243e-11 8.13333e-12 0.405498 0.0997676 0 0 0 0 0 0 0 0 0 0 0 0 0 0 0 0 0 0 0 0 0 0 0 0 0 0 0 0 0 0 0 0 0 0 0 0 0 0 0 0 0 0
0.610839 1.78157e-11 1.11389e-11 6.67682e-12 0.374771 0.0901586 0 0 0 0 0 0 0 0 0 0 0 0 0 0 0 0 0 0 0 0 0 0 0 0 0 0 0 0 0 0 0 0 0 0 0 0 0 0 0 0 0 0
0.642193 1.58901e-11 1.04106e-11 5.47942e-12 0.344833 0.0815123 0 0 0 0 0 0 0 0 0 0 0 0 0 0 0 0 0 0 0 0 0 0 0 0 0 0 0 0 0 0 0 0 0 0 0 0 0 0 0 0 0 0
0.675157 1.42341e-11 9.74075e-12 4.49335e-12 0.315675 0.0737444 0 0 0 0 0 0 0 0 0 0 0 0 0 0 0 0 0 0 0 0 0 0 0 0 0 0 0 0 0 0 0 0 0 0 0 0 0 0 0 0 0 0
0.709813 1.28077e-11 9.12579e-12 3.68193e-12 0.287478 0.066738 0 0 0 0 0 0 0 0 0 0 0 0 0 0 0 0 0 0 0 0 0 0 0 0 0 0 0 0 0 0 0 0 0 0 0 0 0 0 0 0 0 0
0.746248 1.15756e-11 8.55912e-12 3.01653e-12 0.260593 0.0604063 0 0 0 0 0 0 0 0 0 0 0 0 0 0 0 0 0 0 0 0 0 0 0 0 0 0 0 0 0 0 0 0 0 0 0 0 0 0 0 0 0 0
0.784553 1.05052e-11 8.03536e-12 2.46981e-12 0.235104 0.0546791 0 0 0 0 0 0 0 0 0 0 0 0 0 0 0 0 0 0 0 0 0 0 0 0 0 0 0 0 0 0 0 0 0 0 0 0 0 0 0 0 0 0
0.824824 9.57322e-12 7.55131e-12 2.0219e-12 0.211204 0.0495113 0 0 0 0 0 0 0 0 0 0 0 0 0 0 0 0 0 0 0 0 0 0 0 0 0 0 0 0 0 0 0 0 0 0 0 0 0 0 0 0 0 0
0.867162 8.75624e-12 7.10133e-12 1.65491e-12 0.188998 0.0448366 0 0 0 0 0 0 0 0 0 0 0 0 0 0 0 0 0 0 0 0 0 0 0 0 0 0 0 0 0 0 0 0 0 0 0 0 0 0 0 0 0 0
0.911674 8.04264e-12 6.68891e-12 1.35373e-12 0.168319 0.040602 0 0 0 0 0 0 0 0 0 0 0 0 0 0 0 0 0 0 0 0 0 0 0 0 0 0 0 0 0 0 0 0 0 0 0 0 0 0 0 0 0 0
0.95847 7.4157e-12 6.3094e-12 1.1063e-12 0.149183 0.0367663 0 0 0 0 0 0 0 0 0 0 0 0 0 0 0 0 0 0 0 0 0 0 0 0 0 0 0 0 0 0 0 0 0 0 0 0 0 0 0 0 0 0
1.00767 6.85816e-12 5.95637e-12 9.01789e-13 0.131491 0.0332955 0 0 0 0 0 0 0 0 0 0 0 0 0 0 0 0 0 0 0 0 0 0 0 0 0 0 0 0 0 0 0 0 0 0 0 0 0 0 0 0 0 0
1.05939 6.48872e-12 5.75352e-12 7.35201e-13 0.113304 0.0301529 0 0 0 0 0 0 0 0 0 0 0 0 0 0 0 0 0 0 0 0 0 0 0 0 0 0 0 0 0 0 0 0 0 0 0 0 0 0 0 0 0 0
1.11377 6.18311e-12 5.58279e-12 6.00327e-13 0.0970913 0.027304 0 0 0 0 0 0 0 0 0 0 0 0 0 0 0 0 0 0 0 0 0 0 0 0 0 0 0 0 0 0 0 0 0 0 0 0 0 0 0 0 0 0
1.17094 5.93296e-12 5.44172e-12 4.91244e-13 0.082799 0.0247213 0 0 0 0 0 0 0 0 0 0 0 0 0 0 0 0 0 0 0 0 0 0 0 0 0 0 0 0 0 0 0 0 0 0 0 0 0 0 0 0 0 0
1.23105 5.71887e-12 5.31701e-12 4.01859e-13 0.070269 0.0223823 0 0 0 0 0 0 0 0 0 0 0 0 0 0 0 0 0 0 0 0 0 0 0 0 0 0 0 0 0 0 0 0 0 0 0 0 0 0 0 0 0 0
1.29424 5.51722e-12 5.18829e-12 3.2893e-13 0.0596187 0.0202644 0 0 0 0 0 0 0 0 0 0 0 0 0 0 0 0 0 0 0 0 0 0 0 0 0 0 0 0 0 0 0 0 0 0 0 0 0 0 0 0 0 0
1.36067 5.32222e-12 5.0518e-12 2.70423e-13 0.0508102 0.0183475 0 0 0 0 0 0 0 0 0 0 0 0 0 0 0 0 0 0 0 0 0 0 0 0 0 0 0 0 0 0 0 0 0 0 0 0 0 0 0 0 0 0
1.43051 5.12952e-12 4.90965e-12 2.19866e-13 0.042863 0.0166075 0 0 0 0 0 0 0 0 0 0 0 0 0 0 0 0 0 0 0 0 0 0 0 0 0 0 0 0 0 0 0 0 0 0 0 0 0 0 0 0 0 0
1.50394 4.9473e-12 4.7677e-12 1.79603e-13 0.0363032 0.0150325 0 0 0 0 0 0 0 0 0 0 0 0 0 0 0 0 0 0 0 0 0 0 0 0 0 0 0 0 0 0 0 0 0 0 0 0 0 0 0 0 0 0
1.58114 4.77974e-12 4.63285e-12 1.46886e-13 0.030731 0.013608 0 0 0 0 0 0 0 0 0 0 0 0 0 0 0 0 0 0 0 0 0 0 0 0 0 0 0 0 0 0 0 0 0 0 0 0 0 0 0 0 0 0
1.6623 4.63071e-12 4.5106e-12 1.20118e-13 0.0259395 0.0123158 0 0 0 0 0 0 0 0 0 0 0 0 0 0 0 0 0 0 0 0 0 0 0 0 0 0 0 0 0 0 0 0 0 0 0 0 0 0 0 0 0 0
1.74763 4.50499e-12 4.40677e-12 9.8223e-14 0.0218031 0.0111449 0 0 0 0 0 0 0 0 0 0 0 0 0 0 0 0 0 0 0 0 0 0 0 0 0 0 0 0 0 0 0 0 0 0 0 0 0 0 0 0 0 0
1.83733 4.40751e-12 4.32722e-12 8.02896e-14 0.0182166 0.0100837 0 0 0 0 0 0 0 0 0 0 0 0 0 0 0 0 0 0 0 0 0 0 0 0 0 0 0 0 0 0 0 0 0 0 0 0 0 0 0 0 0 0
1.93164 4.34027e-12 4.27466e-12 6.56064e-14 0.0151157 0.00912437 0 0 0 0 0 0 0 0 0 0 0 0 0 0 0 0 0 0 0 0 0 0 0 0 0 0 0 0 0 0 0 0 0 0 0 0 0 0 0 0 0 0
2.03079 4.30235e-12 4.24871e-12 5.36409e-14 0.0124678 0.00825584 0 0 0 0 0 0 0 0 0 0 0 0 0 0 0 0 0 0 0 0 0 0 0 0 0 0 0 0 0 0 0 0 0 0 0 0 0 0 0 0 0 0
2.13503 4.28676e-12 4.24286e-12 4.3901e-14 0.0102411 0.00746833 0 0 0 0 0 0 0 0 0 0 0 0 0 0 0 0 0 0 0 0 0 0 0 0 0 0 0 0 0 0 0 0 0 0 0 0 0 0 0 0 0 0
2.24463 4.27897e-12 4.243e-12 3.59639e-14 0.0084048 0.00675464 0 0 0 0 0 0 0 0 0 0 0 0 0 0 0 0 0 0 0 0 0 0 0 0 0 0 0 0 0 0 0 0 0 0 0 0 0 0 0 0 0 0
2.35984 4.27459e-12 4.24511e-12 2.94788e-14 0.0068963 0.00610962 0 0 0 0 0 0 0 0 0 0 0 0 0 0 0 0 0 0 0 0 0 0 0 0 0 0 0 0 0 0 0 0 0 0 0 0 0 0 0 0 0 0
2.48097 4.27862e-12 4.25445e-12 2.41729e-14 0.00564969 0.00552488 0 0 0 0 0 0 0 0 0 0 0 0 0 0 0 0 0 0 0 0 0 0 0 0 0 0 0 0 0 0 0 0 0 0 0 0 0 0 0 0 0 0
2.60832 4.29169e-12 4.27186e-12 1.98347e-14 0.00462166 0.00499538 0 0 0 0 0 0 0 0 0 0 0 0 0 0 0 0 0 0 0 0 0 0 0 0 0 0 0 0 0 0 0 0 0 0 0 0 0 0 0 0 0 0
2.74221 4.31887e-12 4.30258e-12 1.62879e-14 0.00377134 0.0045161 0 0 0 0 0 0 0 0 0 0 0 0 0 0 0 0 0 0 0 0 0 0 0 0 0 0 0 0 0 0 0 0 0 0 0 0 0 0 0 0 0 0
2.88297 4.36078e-12 4.34738e-12 1.33976e-14 0.00307229 0.0040819 0 0 0 0 0 0 0 0 0 0 0 0 0 0 0 0 0 0 0 0 0 0 0 0 0 0 0 0 0 0 0 0 0 0 0 0 0 0 0 0 0 0
3.03095 4.4161e-12 4.40504e-12 1.10639e-14 0.00250536 0.00368913 0 0 0 0 0 0 0 0 0 0 0 0 0 0 0 0 0 0 0 0 0 0 0 0 0 0 0 0 0 0 0 0 0 0 0 0 0 0 0 0 0 0
3.18653 4.43113e-12 4.42198e-12 9.15797e-15 0.00206673 0.00333343 0 0 0 0 0 0 0 0 0 0 0 0 0 0 0 0 0 0 0 0 0 0 0 0 0 0 0 0 0 0 0 0 0 0 0 0 0 0 0 0 0 0
3.35009 4.53709e-12 4.52961e-12 7.48634e-15 0.00165003 0.00301116 0 0 0 0 0 0 0 0 0 0 0 0 0 0 0 0 0 0 0 0 0 0 0 0 0 0 0 0 0 0 0 0 0 0 0 0 0 0 0 0 0 0
3.52205 4.51754e-12 4.51103e-12 6.51443e-15 0.00144203 0.00271936 0 0 0 0 0 0 0 0 0 0 0 0 0 0 0 0 0 0 0 0 0 0 0 0 0 0 0 0 0 0 0 0 0 0 0 0 0 0 0 0 0 0
3.70284 4.21294e-12 4.20764e-12 5.2989e-15 0.00125777 0.00245539 0 0 0 0 0 0 0 0 0 0 0 0 0 0 0 0 0 0 0 0 0 0 0 0 0 0 0 0 0 0 0 0 0 0 0 0 0 0 0 0 0 0
3.89291 4.12359e-12 4.11925e-12 4.3414e-15 0.00105282 0.00221612 0 0 0 0 0 0 0 0 0 0 0 0 0 0 0 0 0 0 0 0 0 0 0 0 0 0 0 0 0 0 0 0 0 0 0 0 0 0 0 0 0 0
4.09273 4.053e-12 4.04944e-12 3.55957e-15 0.000878254 0.00199909 0 0 0 0 0 0 0 0 0 0 0 0 0 0 0 0 0 0 0 0 0 0 0 0 0 0 0 0 0 0 0 0 0 0 0 0 0 0 0 0 0 0
4.30281 4.00154e-12 3.99862e-12 2.91972e-15 0.000729649 0.00180239 0 0 0 0 0 0 0 0 0 0 0 0 0 0 0 0 0 0 0 0 0 0 0 0 0 0 0 0 0 0 0 0 0 0 0 0 0 0 0 0 0 0
4.52368 3.97064e-12 3.96824e-12 2.3974e-15 0.000603781 0.00162436 0 0 0 0 0 0 0 0 0 0 0 0 0 0 0 0 0 0 0 0 0 0 0 0 0 0 0 0 0 0 0 0 0 0 0 0 0 0 0 0 0 0
4.75588 3.95471e-12 3.95274e-12 1.97192e-15 0.000498626 0.00146283 0 0 0 0 0 0 0 0 0 0 0 0 0 0 0 0 0 0 0 0 0 0 0 0 0 0 0 0 0 0 0 0 0 0 0 0 0 0 0 0 0 0
5 3.94298e-12 3.94136e-12 1.62524e-15 0.000412185 0.00131593 0 0 0 0 0 0 0 0 0 0 0 0 0 0 0 0 0 0 0 0 0 0 0 0 0 0 0 0 0 0 0 0 0 0 0 0 0 0 0 0 0 0
5.25665 3.92562e-12 3.92427e-12 1.34094e-15 0.000341588 0.00118242 0 0 0 0 0 0 0 0 0 0 0 0 0 0 0 0 0 0 0 0 0 0 0 0 0 0 0 0 0 0 0 0 0 0 0 0 0 0 0 0 0 0
5.52648 3.90329e-12 3.90219e-12 1.10635e-15 0.00028344 0.00106157 0 0 0 0 0 0 0 0 0 0 0 0 0 0 0 0 0 0 0 0 0 0 0 0 0 0 0 0 0 0 0 0 0 0 0 0 0 0 0 0 0 0
5.81015 3.87317e-12 3.87226e-12 9.11811e-16 0.000235417 0.000951402 0 0 0 0 0 0 0 0 0 0 0 0 0 0 0 0 0 0 0 0 0 0 0 0 0 0 0 0 0 0 0 0 0 0 0 0 0 0 1.4013e-45 0 2.8026e-45 0
6.10839 3.83944e-12 3.83869e-12 7.49904e-16 0.000195316 0.000851259 0 0 0 0 0 0 0 0 0 0 0 0 0 0 0 0 0 0 0 0 0 0 0 0 0 0 0 0 1.4013e-45 0 2.8026e-45 0 9.80909e-45 0 2.8026e-44 0 7.00649e-44 0 1.66755e-43 0 3.81153e-43 0
6.42193 3.80122e-12 3.8006e-12 6.14506e-16 0.00016166 0.000759889 0 0 0 0 0 0 0 0 0 0 0 0 0 0 0 0 0 0 0 0 0 0 2.8026e-45 0 9.80909e-45 0 3.50325e-44 0 1.20512e-43 0 3.65739e-43 0 1.03836e-42 0 2.74795e-42 0 6.67158e-42 0 1.52419e-41 0 3.35835e-41 0
6.75157 3.77337e-12 3.77287e-12 4.99605e-16 0.000132403 0.00067568 0 0 0 0 0 0 0 0 0 0 0 0 0 0 0 0 1.4013e-45 0 8.40779e-45 0 5.1848e-44 0 2.39622e-43 0 9.92119e-43 0 3.49063e-42 0 1.10871e-41 0 3.1986e-41 0 8.61785e-41 0 2.17636e-40 0 5.05897e-40 0 1.11002e-39 0 2.35322e-39 0
7.09813 3.71172e-12 3.71132e-12 4.05943e-16 0.000109368 0.000596381 0 0 0 0 0 0 0 0 0 0 0 0 1.4013e-45 0 1.54143e-44 0 1.38729e-43 0 9.16449e-43 0 4.84569e-42 0 2.09536e-41 0 8.07596e-41 0 2.67295e-40 0 8.02465e-40 0 2.19838e-39 0 5.64333e-39 0 1.36214e-38 0 3.03856e-38 0 6.41616e-38 0 1.31122e-37 0
7.46248 3.6615e-12 3.66118e-12 3.21708e-16 8.78625e-05 0.000519192 0 0 0 0 0 0 0 0 0 0 5.60519e-45 0 1.28919e-43 0 1.50499e-42 0 1.23426e-41 0 7.41749e-41 0 3.61518e-40 0 1.45531e-39 0 5.25158e-39 0 1.63948e-38 0 4.66476e-38 0 1.21657e-37 0 2.98249e-37 0 6.89574e-37 0 1.47916e-36 0 3.01144e-36 0 5.94317e-36 0
7.84553 3.60935e-12 3.60911e-12 2.43481e-16 6.74583e-05 0.000445563 0 0 0 0 0 0 0 0 1.68156e-44 0 6.38992e-43 0 1.13729e-41 0 1.17283e-40 0 8.67842e-40 0 4.77803e-39 0 2.15544e-38 0 8.10644e-38 0 2.7476e-37 0 8.11391e-37 0 2.19372e-36 0 5.45964e-36 0 1.28113e-35 0 2.84329e-35 0 5.8759e-35 0 1.15547e-34 0 2.2059e-34 0
8.24824 4.02193e-12 4.02175e-12 1.79112e-16 4.45339e-05 0.000383002 0 0 0 0 0 0 1.82169e-44 0 1.86653e-42 0 5.7889e-41 0 8.95887e-40 0 8.2439e-39 0 5.53226e-38 0 2.80247e-37 0 1.17458e-36 0 4.14085e-36 0 1.3223e-35 0 3.70378e-35 0 9.53911e-35 0 2.27068e-34 0 5.11091e-34 0 1.091e-33 0 2.17613e-33 0 4.14027e-33 0 7.65856e-33 0
8.67162 4.88391e-12 4.88376e-12 1.55297e-16 3.17976e-05 0.000333328 0 0 0 0 2.8026e-45 0 2.07813e-42 0 1.73802e-40 0 4.55807e-39 0 6.17097e-38 0 5.09533e-37 0 3.11584e-36 0 1.45818e-35 0 5.6986e-35 0 1.88911e-34 0 5.70006e-34 0 1.51829e-33 0 3.73385e-33 0 8.51953e-33 0 1.84313e-32 0 3.79141e-32 0 7.31176e-32 0 1.34812e-31 0 2.41993e-31 0
9.11674 6.70286e-12 6.70267e-12 1.84725e-16 2.75592e-05 0.00028438 0 0 0 0 3.95166e-43 0 2.16971e-40 0 1.46181e-38 0 3.2685e-37 0 3.89649e-36 0 2.90221e-35 0 1.62457e-34 0 7.05097e-34 0 2.57813e-33 0 8.06085e-33 0 2.30455e-32 0 5.85178e-32 0 1.37724e-31 0 3.0184e-31 0 6.2886e-31 0 1.24884e-30 0 2.33239e-30 0 4.17382e-30 0 7.28123e-30 0
9.5847 8.17186e-12 8.1716e-12 2.56265e-16 3.13594e-05 0.000254457 0 0 0 0 3.98824e-41 0 1.60883e-38 0 8.82516e-37 0 1.69549e-35 0 1.79089e-34 0 1.20934e-33 0 6.2235e-33 0 2.51432e-32 0 8.6295e-32 0 2.55206e-31 0 6.93141e-31 0 1.68176e-30 0 3.7961e-30 0 8.00695e-30 0 1.60946e-29 0 3.09089e-29 0 5.5993e-29 0 9.73928e-29 0 1.65348e-28 0
10.0767 7.91198e-12 7.91169e-12 2.8201e-16 3.56434e-05 0.000241588 0 0 5.46506e-44 0 2.5445e-39 0 7.65782e-37 0 3.45464e-35 0 5.74521e-34 0 5.40873e-33 0 3.32717e-32 0 1.58061e-31 0 5.96492e-31 0 1.92762e-30 0 5.40673e-30 0 1.39855e-29 0 3.24958e-29 0 7.04916e-29 0 1.43365e-28 0 2.78516e-28 0 5.18106e-28 0 9.11735e-28 0 1.54357e-27 0 2.55372e-27 0
10.5939 6.73709e-12 6.73684e-12 2.50363e-16 3.71618e-05 0.000237557 0 0 4.19969e-42 0 1.14956e-37 0 2.61833e-35 0 9.80739e-34 0 1.42183e-32 0 1.19975e-31 0 6.75385e-31 0 2.97344e-30 0 1.05167e-29 0 3.20939e-29 0 8.55987e-29 0 2.11378e-28 0 4.71337e-28 0 9.84514e-28 0 1.93408e-27 0 3.63748e-27 0 6.56458e-27 0 1.12376e-26 0 1.85424e-26 0 2.99323e-26 0
11.1377 5.62874e-12 5.62853e-12 2.10418e-16 3.73828e-05 0.000243289 4.2039e-45 0 2.49479e-40 0 4.14666e-36 0 7.24584e-34 0 2.274e-32 0 2.89325e-31 0 2.19992e-30 0 1.13822e-29 0 4.66129e-29 0 1.55003e-28 0 4.47947e-28 0 1.13886e-27 0 2.69088e-27 0 5.76982e-27 0 1.16261e-26 0 2.20988e-26 0 4.02997e-26 0 7.06625e-26 0 1.1783e-25 0 1.89728e-25 0 2.99192e-25 0
11.7094 4.51994e-12 4.51978e-12 1.64528e-16 3.64005e-05 0.000244759 3.39114e-43 0 1.14264e-38 0 1.18169e-34 0 1.60476e-32 0 4.25636e-31 0 4.78302e-30 0 3.29389e-29 0 1.57281e-28 0 6.0126e-28 0 1.88546e-27 0 5.17371e-27 0 1.25678e-26 0 2.84743e-26 0 5.88229e-26 0 1.14541e-25 0 2.10998e-25 0 3.73656e-25 0 6.37458e-25 0 1.03676e-24 0 1.63099e-24 0 2.51542e-24 0
12.3105 3.63043e-12 3.63031e-12 1.22597e-16 3.37692e-05 0.00024347 2.09943e-41 0 4.24462e-37 0 2.79528e-33 0 2.98673e-31 0 6.75018e-30 0 6.74034e-29 0 4.22449e-28 0 1.86892e-27 0 6.69179e-27 0 1.98456e-26 0 5.18376e-26 0 1.20582e-25 0 2.62503e-25 0 5.23412e-25 0 9.86572e-25 0 1.76397e-24 0 3.03785e-24 0 5.04917e-24 0 8.01923e-24 0 1.23395e-23 0 1.86326e-23 0
