# 2.9854e-06 1 77 : grain size, compostion index, size index
# Heating and cooling timescale: 8.62571 70419.5
# Ratio of heating to cooling to determine stochastic cutoff: 100
# Equilibrium emission is recorded even for those grains in the stochastic regime.
# Emission spectrum was computed for: 
# Type: IRSF
# Scales: 0.25 0.5 1 1.5 2 2.5 3 3.5 4 4.5 5 5.5 6 6.5 7 7.5 8 8.5 9 9.5 10
# StochasticallyHeated: 0 0 0 0 0 0 0 0 0 0 0 0 0 0 0 0 0 0 0 0 0
# Temperature: -1
# Wavelength  CExt  CAbs  CSca  Albedo G EqEm1 StEm1 EqEm2 StEm2 EqEm3 StEm3 EqEm4 StEm4 EqEm5 StEm5 EqEm6 StEm6 EqEm7 StEm7 EqEm8 StEm8 EqEm9 StEm9 EqEm10 StEm10 EqEm11 StEm11 EqEm12 StEm12 EqEm13 StEm13 EqEm14 StEm14 EqEm15 StEm15 EqEm16 StEm16 EqEm17 StEm17 EqEm18 StEm18 EqEm19 StEm19 EqEm20 StEm20 EqEm21 StEm21
0.05 1.70715e-11 1.08032e-11 6.26825e-12 0.367177 0.153056 0 0 0 0 0 0 0 0 0 0 0 0 0 0 0 0 0 0 0 0 0 0 0 0 0 0 0 0 0 0 0 0 0 0 0 0 0 0 0 0 0 0
0.0525665 1.8869e-11 1.19408e-11 6.92827e-12 0.367177 0.169172 0 0 0 0 0 0 0 0 0 0 0 0 0 0 0 0 0 0 0 0 0 0 0 0 0 0 0 0 0 0 0 0 0 0 0 0 0 0 0 0 0 0
0.0552647 2.08558e-11 1.31981e-11 7.65778e-12 0.367177 0.186985 0 0 0 0 0 0 0 0 0 0 0 0 0 0 0 0 0 0 0 0 0 0 0 0 0 0 0 0 0 0 0 0 0 0 0 0 0 0 0 0 0 0
0.0581015 2.30519e-11 1.45878e-11 8.46411e-12 0.367177 0.206673 0 0 0 0 0 0 0 0 0 0 0 0 0 0 0 0 0 0 0 0 0 0 0 0 0 0 0 0 0 0 0 0 0 0 0 0 0 0 0 0 0 0
0.0610839 2.54791e-11 1.61238e-11 9.35534e-12 0.367177 0.228435 0 0 0 0 0 0 0 0 0 0 0 0 0 0 0 0 0 0 0 0 0 0 0 0 0 0 0 0 0 0 0 0 0 0 0 0 0 0 0 0 0 0
0.0642193 2.81619e-11 1.78215e-11 1.03404e-11 0.367177 0.252488 0 0 0 0 0 0 0 0 0 0 0 0 0 0 0 0 0 0 0 0 0 0 0 0 0 0 0 0 0 0 0 0 0 0 0 0 0 0 0 0 0 0
0.0675157 3.11273e-11 1.96981e-11 1.14292e-11 0.367177 0.279074 0 0 0 0 0 0 0 0 0 0 0 0 0 0 0 0 0 0 0 0 0 0 0 0 0 0 0 0 0 0 0 0 0 0 0 0 0 0 0 0 0 0
0.0709813 3.44048e-11 2.17722e-11 1.26326e-11 0.367177 0.308459 0 0 0 0 0 0 0 0 0 0 0 0 0 0 0 0 0 0 0 0 0 0 0 0 0 0 0 0 0 0 0 0 0 0 0 0 0 0 0 0 0 0
0.0746248 3.80275e-11 2.40647e-11 1.39628e-11 0.367177 0.340938 0 0 0 0 0 0 0 0 0 0 0 0 0 0 0 0 0 0 0 0 0 0 0 0 0 0 0 0 0 0 0 0 0 0 0 0 0 0 0 0 0 0
0.0784553 4.20316e-11 2.65985e-11 1.5433e-11 0.367177 0.376837 0 0 0 0 0 0 0 0 0 0 0 0 0 0 0 0 0 0 0 0 0 0 0 0 0 0 0 0 0 0 0 0 0 0 0 0 0 0 0 0 0 0
0.0824824 4.64573e-11 2.93992e-11 1.7058e-11 0.367177 0.416516 0 0 0 0 0 0 0 0 0 0 0 0 0 0 0 0 0 0 0 0 0 0 0 0 0 0 0 0 0 0 0 0 0 0 0 0 0 0 0 0 0 0
0.0867162 5.1349e-11 3.24949e-11 1.88542e-11 0.367177 0.460374 0 0 0 0 0 0 0 0 0 0 0 0 0 0 0 0 0 0 0 0 0 0 0 0 0 0 0 0 0 0 0 0 0 0 0 0 0 0 0 0 0 0
0.0911674 5.67558e-11 3.59164e-11 2.08394e-11 0.367177 0.508849 0 0 0 0 0 0 0 0 0 0 0 0 0 0 0 0 0 0 0 0 0 0 0 0 0 0 0 0 0 0 0 0 0 0 0 0 0 0 0 0 0 0
0.095847 6.2732e-11 3.96982e-11 2.30337e-11 0.367177 0.562428 0 0 0 0 0 0 0 0 0 0 0 0 0 0 0 0 0 0 0 0 0 0 0 0 0 0 0 0 0 0 0 0 0 0 0 0 0 0 0 0 0 0
0.100767 6.83952e-11 4.32637e-11 2.51316e-11 0.367446 0.609265 0 0 0 0 0 0 0 0 0 0 0 0 0 0 0 0 0 0 0 0 0 0 0 0 0 0 0 0 0 0 0 0 0 0 0 0 0 0 0 0 0 0
0.105939 6.91505e-11 4.35235e-11 2.5627e-11 0.370597 0.589373 0 0 0 0 0 0 0 0 0 0 0 0 0 0 0 0 0 0 0 0 0 0 0 0 0 0 0 0 0 0 0 0 0 0 0 0 0 0 0 0 0 0
0.111377 6.97663e-11 4.35517e-11 2.62146e-11 0.375749 0.564484 0 0 0 0 0 0 0 0 0 0 0 0 0 0 0 0 0 0 0 0 0 0 0 0 0 0 0 0 0 0 0 0 0 0 0 0 0 0 0 0 0 0
0.117094 7.04e-11 4.33941e-11 2.70059e-11 0.383606 0.535498 0 0 0 0 0 0 0 0 0 0 0 0 0 0 0 0 0 0 0 0 0 0 0 0 0 0 0 0 0 0 0 0 0 0 0 0 0 0 0 0 0 0
0.123105 7.09239e-11 4.29471e-11 2.79769e-11 0.394463 0.505955 0 0 0 0 0 0 0 0 0 0 0 0 0 0 0 0 0 0 0 0 0 0 0 0 0 0 0 0 0 0 0 0 0 0 0 0 0 0 0 0 0 0
0.129424 7.09557e-11 4.21504e-11 2.88054e-11 0.405963 0.478607 0 0 0 0 0 0 0 0 0 0 0 0 0 0 0 0 0 0 0 0 0 0 0 0 0 0 0 0 0 0 0 0 0 0 0 0 0 0 0 0 0 0
0.136067 7.12071e-11 4.11022e-11 3.01049e-11 0.422779 0.4549 0 0 0 0 0 0 0 0 0 0 0 0 0 0 0 0 0 0 0 0 0 0 0 0 0 0 0 0 0 0 0 0 0 0 0 0 0 0 0 0 0 0
0.143051 6.99084e-11 3.85092e-11 3.13992e-11 0.449148 0.436555 0 0 0 0 0 0 0 0 0 0 0 0 0 0 0 0 0 0 0 0 0 0 0 0 0 0 0 0 0 0 0 0 0 0 0 0 0 0 0 0 0 0
0.150394 6.37306e-11 3.25756e-11 3.1155e-11 0.488854 0.438628 0 0 0 0 0 0 0 0 0 0 0 0 0 0 0 0 0 0 0 0 0 0 0 0 0 0 0 0 0 0 0 0 0 0 0 0 0 0 0 0 0 0
0.158114 5.12474e-11 2.33013e-11 2.79461e-11 0.545317 0.443747 0 0 0 0 0 0 0 0 0 0 0 0 0 0 0 0 0 0 0 0 0 0 0 0 0 0 0 0 0 0 0 0 0 0 0 0 0 0 0 0 0 0
0.16623 3.7533e-11 1.47361e-11 2.2797e-11 0.607384 0.4103 0 0 0 0 0 0 0 0 0 0 0 0 0 0 0 0 0 0 0 0 0 0 0 0 0 0 0 0 0 0 0 0 0 0 0 0 0 0 0 0 0 0
0.174762 2.7606e-11 9.7969e-12 1.78091e-11 0.645117 0.349826 0 0 0 0 0 0 0 0 0 0 0 0 0 0 0 0 0 0 0 0 0 0 0 0 0 0 0 0 0 0 0 0 0 0 0 0 0 0 0 0 0 0
0.183733 2.02388e-11 6.54672e-12 1.36921e-11 0.676526 0.292104 0 0 0 0 0 0 0 0 0 0 0 0 0 0 0 0 0 0 0 0 0 0 0 0 0 0 0 0 0 0 0 0 0 0 0 0 0 0 0 0 0 0
0.193164 1.51391e-11 4.67594e-12 1.04632e-11 0.691135 0.246773 0 0 0 0 0 0 0 0 0 0 0 0 0 0 0 0 0 0 0 0 0 0 0 0 0 0 0 0 0 0 0 0 0 0 0 0 0 0 0 0 0 0
0.203079 1.20975e-11 4.09888e-12 7.9986e-12 0.661179 0.211861 0 0 0 0 0 0 0 0 0 0 0 0 0 0 0 0 0 0 0 0 0 0 0 0 0 0 0 0 0 0 0 0 0 0 0 0 0 0 0 0 0 0
0.213503 9.97083e-12 3.76267e-12 6.20816e-12 0.622632 0.184264 0 0 0 0 0 0 0 0 0 0 0 0 0 0 0 0 0 0 0 0 0 0 0 0 0 0 0 0 0 0 0 0 0 0 0 0 0 0 0 0 0 0
0.224463 8.34054e-12 3.43634e-12 4.9042e-12 0.587995 0.162048 0 0 0 0 0 0 0 0 0 0 0 0 0 0 0 0 0 0 0 0 0 0 0 0 0 0 0 0 0 0 0 0 0 0 0 0 0 0 0 0 0 0
0.235984 7.07335e-12 3.18124e-12 3.89212e-12 0.55025 0.143778 0 0 0 0 0 0 0 0 0 0 0 0 0 0 0 0 0 0 0 0 0 0 0 0 0 0 0 0 0 0 0 0 0 0 0 0 0 0 0 0 0 0
0.248097 6.06435e-12 2.96292e-12 3.10143e-12 0.51142 0.128321 0 0 0 0 0 0 0 0 0 0 0 0 0 0 0 0 0 0 0 0 0 0 0 0 0 0 0 0 0 0 0 0 0 0 0 0 0 0 0 0 0 0
0.260832 5.26333e-12 2.77828e-12 2.48505e-12 0.472143 0.114927 0 0 0 0 0 0 0 0 0 0 0 0 0 0 0 0 0 0 0 0 0 0 0 0 0 0 0 0 0 0 0 0 0 0 0 0 0 0 0 0 0 0
0.274221 4.60517e-12 2.60787e-12 1.9973e-12 0.433708 0.103175 0 0 0 0 0 0 0 0 0 0 0 0 0 0 0 0 0 0 0 0 0 0 0 0 0 0 0 0 0 0 0 0 0 0 0 0 0 0 0 0 0 0
0.288297 4.05889e-12 2.44861e-12 1.61028e-12 0.39673 0.0928166 0 0 0 0 0 0 0 0 0 0 0 0 0 0 0 0 0 0 0 0 0 0 0 0 0 0 0 0 0 0 0 0 0 0 0 0 0 0 0 0 0 0
0.303095 3.60033e-12 2.29969e-12 1.30065e-12 0.361257 0.0836209 0 0 0 0 0 0 0 0 0 0 0 0 0 0 0 0 0 0 0 0 0 0 0 0 0 0 0 0 0 0 0 0 0 0 0 0 0 0 0 0 0 0
0.318653 3.21339e-12 2.16042e-12 1.05297e-12 0.327682 0.0754081 0 0 0 0 0 0 0 0 0 0 0 0 0 0 0 0 0 0 0 0 0 0 0 0 0 0 0 0 0 0 0 0 0 0 0 0 0 0 0 0 0 0
0.335009 2.88425e-12 2.03038e-12 8.53867e-13 0.296045 0.0680564 0 0 0 0 0 0 0 0 0 0 0 0 0 0 0 0 0 0 0 0 0 0 0 0 0 0 0 0 0 0 0 0 0 0 0 0 0 0 0 0 0 0
0.352205 2.60262e-12 1.90922e-12 6.93408e-13 0.266427 0.0614629 0 0 0 0 0 0 0 0 0 0 0 0 0 0 0 0 0 0 0 0 0 0 0 0 0 0 0 0 0 0 0 0 0 0 0 0 0 0 0 0 0 0
0.370284 2.36015e-12 1.79605e-12 5.64096e-13 0.239008 0.0555371 0 0 0 0 0 0 0 0 0 0 0 0 0 0 0 0 0 0 0 0 0 0 0 0 0 0 0 0 0 0 0 0 0 0 0 0 0 0 0 0 0 0
0.389291 2.14981e-12 1.6906e-12 4.59209e-13 0.213604 0.0502034 0 0 0 0 0 0 0 0 0 0 0 0 0 0 0 0 0 0 0 0 0 0 0 0 0 0 0 0 0 0 0 0 0 0 0 0 0 0 0 0 0 0
0.409273 1.96646e-12 1.59214e-12 3.74328e-13 0.190356 0.0453941 0 0 0 0 0 0 0 0 0 0 0 0 0 0 0 0 0 0 0 0 0 0 0 0 0 0 0 0 0 0 0 0 0 0 0 0 0 0 0 0 0 0
0.430281 1.80569e-12 1.50035e-12 3.05341e-13 0.169099 0.0410519 0 0 0 0 0 0 0 0 0 0 0 0 0 0 0 0 0 0 0 0 0 0 0 0 0 0 0 0 0 0 0 0 0 0 0 0 0 0 0 0 0 0
0.452368 1.66391e-12 1.41467e-12 2.49236e-13 0.14979 0.0371412 0 0 0 0 0 0 0 0 0 0 0 0 0 0 0 0 0 0 0 0 0 0 0 0 0 0 0 0 0 0 0 0 0 0 0 0 0 0 0 0 0 0
0.475588 1.53802e-12 1.33447e-12 2.0355e-13 0.132346 0.033604 0 0 0 0 0 0 0 0 0 0 0 0 0 0 0 0 0 0 0 0 0 0 0 0 0 0 0 0 0 0 0 0 0 0 0 0 0 0 0 0 0 0
0.5 1.42588e-12 1.25953e-12 1.66352e-13 0.116666 0.0304046 0 0 0 0 0 0 0 0 0 0 0 0 0 0 0 0 0 0 0 0 0 0 0 0 0 0 0 0 0 0 0 0 0 0 0 0 0 0 0 0 0 0
0.525665 1.32536e-12 1.18932e-12 1.36041e-13 0.102645 0.0275108 0 0 0 0 0 0 0 0 0 0 0 0 0 0 0 0 0 0 0 0 0 0 0 0 0 0 0 0 0 0 0 0 0 0 0 0 0 0 0 0 0 0
0.552648 1.2348e-12 1.12348e-12 1.11317e-13 0.0901498 0.0248955 0 0 0 0 0 0 0 0 0 0 0 0 0 0 0 0 0 0 0 0 0 0 0 0 0 0 0 0 0 0 0 0 0 0 0 0 0 0 0 0 0 0
0.581015 1.15303e-12 1.06197e-12 9.10626e-14 0.0789768 0.0225339 0 0 0 0 0 0 0 0 0 0 0 0 0 0 0 0 0 0 0 0 0 0 0 0 0 0 0 0 0 0 0 0 0 0 0 0 0 0 0 0 0 0
0.610839 1.0788e-12 1.00429e-12 7.45086e-14 0.0690662 0.020394 0 0 0 0 0 0 0 0 0 0 0 0 0 0 0 0 0 0 0 0 0 0 0 0 0 0 0 0 0 0 0 0 0 0 0 0 0 0 0 0 0 0
0.642193 1.01067e-12 9.49673e-13 6.10014e-14 0.0603572 0.0184553 0 0 0 0 0 0 0 0 0 0 0 0 0 0 0 0 0 0 0 0 0 0 0 0 0 0 0 0 0 0 0 0 0 0 0 0 0 0 0 0 0 0
0.675157 9.48558e-13 8.98614e-13 4.99443e-14 0.0526529 0.0167044 0 0 0 0 0 0 0 0 0 0 0 0 0 0 0 0 0 0 0 0 0 0 0 0 0 0 0 0 0 0 0 0 0 0 0 0 0 0 0 0 0 0
0.709813 8.91792e-13 8.50906e-13 4.08855e-14 0.0458465 0.0151197 0 0 0 0 0 0 0 0 0 0 0 0 0 0 0 0 0 0 0 0 0 0 0 0 0 0 0 0 0 0 0 0 0 0 0 0 0 0 0 0 0 0
0.746248 8.39612e-13 8.06134e-13 3.34776e-14 0.0398727 0.0136839 0 0 0 0 0 0 0 0 0 0 0 0 0 0 0 0 0 0 0 0 0 0 0 0 0 0 0 0 0 0 0 0 0 0 0 0 0 0 0 0 0 0
0.784553 7.91393e-13 7.63988e-13 2.74046e-14 0.0346284 0.0123831 0 0 0 0 0 0 0 0 0 0 0 0 0 0 0 0 0 0 0 0 0 0 0 0 0 0 0 0 0 0 0 0 0 0 0 0 0 0 0 0 0 0
0.824824 7.46778e-13 7.24342e-13 2.24359e-14 0.0300435 0.0112081 0 0 0 0 0 0 0 0 0 0 0 0 0 0 0 0 0 0 0 0 0 0 0 0 0 0 0 0 0 0 0 0 0 0 0 0 0 0 0 0 0 0
0.867162 7.05197e-13 6.86829e-13 1.83679e-14 0.0260464 0.0101449 0 0 0 0 0 0 0 0 0 0 0 0 0 0 0 0 0 0 0 0 0 0 0 0 0 0 0 0 0 0 0 0 0 0 0 0 0 0 0 0 0 0
0.911674 6.66963e-13 6.51933e-13 1.50303e-14 0.0225354 0.00918174 0 0 0 0 0 0 0 0 0 0 0 0 0 0 0 0 0 0 0 0 0 0 0 0 0 0 0 0 0 0 0 0 0 0 0 0 0 0 0 0 0 0
0.95847 6.31653e-13 6.19363e-13 1.22899e-14 0.0194567 0.00830951 0 0 0 0 0 0 0 0 0 0 0 0 0 0 0 0 0 0 0 0 0 0 0 0 0 0 0 0 0 0 0 0 0 0 0 0 0 0 0 0 0 0
1.00767 5.98679e-13 5.88654e-13 1.00243e-14 0.0167441 0.00752059 0 0 0 0 0 0 0 0 0 0 0 0 0 0 0 0 0 0 0 0 0 0 0 0 0 0 0 0 0 0 0 0 0 0 0 0 0 0 0 0 0 0
1.05939 5.80336e-13 5.72159e-13 8.17782e-15 0.0140915 0.00680672 0 0 0 0 0 0 0 0 0 0 0 0 0 0 0 0 0 0 0 0 0 0 0 0 0 0 0 0 0 0 0 0 0 0 0 0 0 0 0 0 0 0
1.11377 5.65029e-13 5.58348e-13 6.68175e-15 0.0118255 0.00616001 0 0 0 0 0 0 0 0 0 0 0 0 0 0 0 0 0 0 0 0 0 0 0 0 0 0 0 0 0 0 0 0 0 0 0 0 0 0 0 0 0 0
1.17094 5.52511e-13 5.4704e-13 5.4707e-15 0.00990152 0.00557417 0 0 0 0 0 0 0 0 0 0 0 0 0 0 0 0 0 0 0 0 0 0 0 0 0 0 0 0 0 0 0 0 0 0 0 0 0 0 0 0 0 0
1.23105 5.41499e-13 5.37021e-13 4.4778e-15 0.00826926 0.00504401 0 0 0 0 0 0 0 0 0 0 0 0 0 0 0 0 0 0 0 0 0 0 0 0 0 0 0 0 0 0 0 0 0 0 0 0 0 0 0 0 0 0
1.29424 5.29948e-13 5.26281e-13 3.6671e-15 0.00691973 0.00456435 0 0 0 0 0 0 0 0 0 0 0 0 0 0 0 0 0 0 0 0 0 0 0 0 0 0 0 0 0 0 0 0 0 0 0 0 0 0 0 0 0 0
1.36067 5.17421e-13 5.14405e-13 3.01614e-15 0.00582918 0.00413055 0 0 0 0 0 0 0 0 0 0 0 0 0 0 0 0 0 0 0 0 0 0 0 0 0 0 0 0 0 0 0 0 0 0 0 0 0 0 0 0 0 0
1.43051 5.04259e-13 5.01805e-13 2.45365e-15 0.00486586 0.0037371 0 0 0 0 0 0 0 0 0 0 0 0 0 0 0 0 0 0 0 0 0 0 0 0 0 0 0 0 0 0 0 0 0 0 0 0 0 0 0 0 0 0
1.50394 4.90919e-13 4.88913e-13 2.00527e-15 0.00408474 0.00338121 0 0 0 0 0 0 0 0 0 0 0 0 0 0 0 0 0 0 0 0 0 0 0 0 0 0 0 0 0 0 0 0 0 0 0 0 0 0 0 0 0 0
1.58114 4.78148e-13 4.76507e-13 1.64067e-15 0.0034313 0.00305959 0 0 0 0 0 0 0 0 0 0 0 0 0 0 0 0 0 0 0 0 0 0 0 0 0 0 0 0 0 0 0 0 0 0 0 0 0 0 0 0 0 0
1.6623 4.66545e-13 4.65202e-13 1.34226e-15 0.00287703 0.00276799 0 0 0 0 0 0 0 0 0 0 0 0 0 0 0 0 0 0 0 0 0 0 0 0 0 0 0 0 0 0 0 0 0 0 0 0 0 0 0 0 0 0
1.74763 4.56723e-13 4.55625e-13 1.09793e-15 0.00240394 0.00250398 0 0 0 0 0 0 0 0 0 0 0 0 0 0 0 0 0 0 0 0 0 0 0 0 0 0 0 0 0 0 0 0 0 0 0 0 0 0 0 0 0 0
1.83733 4.4931e-13 4.48412e-13 8.97794e-16 0.00199816 0.00226483 0 0 0 0 0 0 0 0 0 0 0 0 0 0 0 0 0 0 0 0 0 0 0 0 0 0 0 0 0 0 0 0 0 0 0 0 0 0 0 0 0 0
1.93164 4.44629e-13 4.43895e-13 7.33844e-16 0.00165046 0.00204876 0 0 0 0 0 0 0 0 0 0 0 0 0 0 0 0 0 0 0 0 0 0 0 0 0 0 0 0 0 0 0 0 0 0 0 0 0 0 0 0 0 0
2.03079 4.42623e-13 4.42023e-13 6.00183e-16 0.00135597 0.00185324 0 0 0 0 0 0 0 0 0 0 0 0 0 0 0 0 0 0 0 0 0 0 0 0 0 0 0 0 0 0 0 0 0 0 0 0 0 0 0 0 0 0
2.13503 4.42657e-13 4.42166e-13 4.91336e-16 0.00110997 0.00167605 0 0 0 0 0 0 0 0 0 0 0 0 0 0 0 0 0 0 0 0 0 0 0 0 0 0 0 0 0 0 0 0 0 0 0 0 0 0 0 0 0 0
2.24463 4.43273e-13 4.4287e-13 4.02593e-16 0.000908229 0.00151553 0 0 0 0 0 0 0 0 0 0 0 0 0 0 0 0 0 0 0 0 0 0 0 0 0 0 0 0 0 0 0 0 0 0 0 0 0 0 0 0 0 0
2.35984 4.44025e-13 4.43695e-13 3.30078e-16 0.000743375 0.00137052 0 0 0 0 0 0 0 0 0 0 0 0 0 0 0 0 0 0 0 0 0 0 0 0 0 0 0 0 0 0 0 0 0 0 0 0 0 0 0 0 0 0
2.48097 4.45512e-13 4.45242e-13 2.70713e-16 0.000607645 0.00123911 0 0 0 0 0 0 0 0 0 0 0 0 0 0 0 0 0 0 0 0 0 0 0 0 0 0 0 0 0 0 0 0 0 0 0 0 0 0 0 0 0 0
2.60832 4.47791e-13 4.47569e-13 2.22163e-16 0.00049613 0.00112015 0 0 0 0 0 0 0 0 0 0 0 0 0 0 0 0 0 0 0 0 0 0 0 0 0 0 0 0 0 0 0 0 0 0 0 0 0 0 0 0 0 0
2.74221 4.51438e-13 4.51255e-13 1.82472e-16 0.000404201 0.00101252 0 0 0 0 0 0 0 0 0 0 0 0 0 0 0 0 0 0 0 0 0 0 0 0 0 0 0 0 0 0 0 0 0 0 0 0 0 0 0 0 0 0
2.88297 4.56533e-13 4.56383e-13 1.50117e-16 0.00032882 0.000915041 0 0 0 0 0 0 0 0 0 0 0 0 0 0 0 0 0 0 0 0 0 0 0 0 0 0 0 0 0 0 0 0 0 0 0 0 0 0 0 0 0 0
3.03095 4.62952e-13 4.62828e-13 1.23977e-16 0.000267796 0.000826882 0 0 0 0 0 0 0 0 0 0 0 0 0 0 0 0 0 0 0 0 0 0 0 0 0 0 0 0 0 0 0 0 0 0 0 0 0 0 0 0 0 0
3.18653 4.65054e-13 4.64952e-13 1.02632e-16 0.000220688 0.000747066 0 0 0 0 0 0 0 0 0 0 0 0 0 0 0 0 0 0 0 0 0 0 0 0 0 0 0 0 0 0 0 0 0 0 0 0 0 0 0 0 0 0
3.35009 4.76695e-13 4.76611e-13 8.39102e-17 0.000176025 0.000674765 0 0 0 0 0 0 0 0 0 0 0 0 0 0 0 0 0 0 0 0 0 0 0 0 0 0 0 0 0 0 0 0 0 0 0 0 0 0 0 0 0 0
3.52205 4.74934e-13 4.74861e-13 7.30121e-17 0.000153731 0.000609315 0 0 0 0 0 0 0 0 0 0 0 0 0 0 0 0 0 0 0 0 0 0 0 0 0 0 0 0 0 0 0 0 0 0 0 0 0 0 0 0 0 0
3.70284 4.43257e-13 4.43197e-13 5.93938e-17 0.000133994 0.000550118 0 0 0 0 0 0 0 0 0 0 0 0 0 0 0 0 0 0 0 0 0 0 0 0 0 0 0 0 0 0 0 0 0 0 0 0 0 0 0 0 0 0
3.89291 4.3416e-13 4.34112e-13 4.86669e-17 0.000112094 0.000496468 0 0 0 0 0 0 0 0 0 0 0 0 0 0 0 0 0 0 0 0 0 0 0 0 0 0 0 0 0 0 0 0 0 0 0 0 0 0 0 0 0 0
4.09273 4.27003e-13 4.26963e-13 3.99058e-17 9.34555e-05 0.000447813 0 0 0 0 0 0 0 0 0 0 0 0 0 0 0 0 0 0 0 0 0 0 0 0 0 0 0 0 0 0 0 0 0 0 0 0 0 0 0 0 0 0
4.30281 4.21825e-13 4.21793e-13 3.27362e-17 7.76061e-05 0.000403723 0 0 0 0 0 0 0 0 0 0 0 0 0 0 0 0 0 0 0 0 0 0 0 0 0 0 0 0 0 0 0 0 0 0 0 0 0 0 0 0 0 0
4.52368 4.1879e-13 4.18763e-13 2.68817e-17 6.41889e-05 0.000363822 0 0 0 0 0 0 0 0 0 0 0 0 0 0 0 0 0 0 0 0 0 0 0 0 0 0 0 0 0 0 0 0 0 0 0 0 0 0 0 0 0 0
4.75588 4.17305e-13 4.17283e-13 2.2112e-17 5.29877e-05 0.000327623 0 0 0 0 0 0 0 0 0 0 0 0 0 0 0 0 0 0 0 0 0 0 0 0 0 0 0 0 0 0 0 0 0 0 0 0 0 0 0 0 0 0
5 4.16224e-13 4.16206e-13 1.82256e-17 4.3788e-05 0.000294708 0 0 0 0 0 0 0 0 0 0 0 0 0 0 0 0 0 0 0 0 0 0 0 0 0 0 0 0 0 0 0 0 0 0 0 0 0 0 0 0 0 0
5.25665 4.14552e-13 4.14537e-13 1.50386e-17 3.62769e-05 0.000264794 0 0 0 0 0 0 0 0 0 0 0 0 0 0 0 0 0 0 0 0 0 0 0 0 0 0 0 0 0 0 0 0 0 0 0 0 0 0 0 0 0 0
5.52648 4.12313e-13 4.12301e-13 1.24079e-17 3.00933e-05 0.00023772 0 0 0 0 0 0 0 0 0 0 0 0 0 0 0 0 0 0 0 0 0 0 0 0 0 0 0 0 0 0 0 0 0 0 0 0 0 0 0 0 1.4013e-45 0
5.81015 4.09244e-13 4.09234e-13 1.02261e-17 2.49879e-05 0.00021304 0 0 0 0 0 0 0 0 0 0 0 0 0 0 0 0 0 0 0 0 0 0 0 0 0 0 0 0 0 0 0 0 1.4013e-45 0 5.60519e-45 0 1.4013e-44 0 3.50325e-44 0 7.84727e-44 0
6.10839 4.05793e-13 4.05784e-13 8.41098e-18 2.07273e-05 0.000190608 0 0 0 0 0 0 0 0 0 0 0 0 0 0 0 0 0 0 0 0 0 0 0 0 1.4013e-45 0 7.00649e-45 0 2.52234e-44 0 7.56701e-44 0 2.12997e-43 0 5.57717e-43 0 1.37047e-42 0 3.11649e-42 0 6.84254e-42 0
6.42193 4.01849e-13 4.01842e-13 6.89263e-18 1.71523e-05 0.000170143 0 0 0 0 0 0 0 0 0 0 0 0 0 0 0 0 0 0 1.4013e-45 0 1.12104e-44 0 5.1848e-44 0 2.00386e-43 0 7.21669e-43 0 2.29252e-42 0 6.50343e-42 0 1.72808e-41 0 4.31684e-41 0 1.01685e-40 0 2.22061e-40 0 4.69149e-40 0
6.75157 3.98996e-13 3.9899e-13 5.6041e-18 1.40455e-05 0.000151282 0 0 0 0 0 0 0 0 0 0 0 0 0 0 2.8026e-45 0 2.94273e-44 0 1.93379e-43 0 1.01874e-42 0 4.44212e-42 0 1.62074e-41 0 5.46576e-41 0 1.64189e-40 0 4.42552e-40 0 1.12113e-39 0 2.67808e-39 0 6.04997e-39 0 1.27177e-38 0 2.59052e-38 0
7.09813 3.92545e-13 3.9254e-13 4.5537e-18 1.16004e-05 0.000133522 0 0 0 0 0 0 0 0 0 0 1.4013e-45 0 2.8026e-44 0 3.19496e-43 0 2.55877e-42 0 1.52461e-41 0 7.4294e-41 0 3.01303e-40 0 1.03208e-39 0 3.28e-39 0 9.3377e-39 0 2.39792e-38 0 5.80517e-38 0 1.32899e-37 0 2.88516e-37 0 5.84886e-37 0 1.15071e-36 0
7.46248 3.87316e-13 3.87312e-13 3.60899e-18 9.31795e-06 0.000116233 0 0 0 0 0 0 0 0 4.2039e-45 0 1.35926e-43 0 2.39202e-42 0 2.43798e-41 0 1.76538e-40 0 9.63977e-40 0 4.34773e-39 0 1.64675e-38 0 5.31166e-38 0 1.59541e-37 0 4.31574e-37 0 1.05841e-36 0 2.45406e-36 0 5.39547e-36 0 1.12782e-35 0 2.20881e-35 0 4.20438e-35 0
7.84553 3.81878e-13 3.81875e-13 2.73163e-18 7.15314e-06 9.97428e-05 0 0 0 0 0 0 2.8026e-45 0 3.48923e-43 0 1.06611e-41 0 1.63355e-40 0 1.48612e-39 0 9.76998e-39 0 4.9105e-38 0 2.05769e-37 0 7.30311e-37 0 2.22474e-36 0 6.33288e-36 0 1.63186e-35 0 3.83052e-35 0 8.5243e-35 0 1.80342e-34 0 3.63643e-34 0 6.89192e-34 0 1.27126e-33 0
8.24824 4.25645e-13 4.25643e-13 2.0097e-18 4.72155e-06 8.57335e-05 0 0 0 0 0 0 3.61535e-43 0 2.91526e-41 0 7.55132e-40 0 1.01271e-38 0 8.27167e-38 0 4.96022e-37 0 2.30407e-36 0 9.00265e-36 0 3.00357e-35 0 8.66542e-35 0 2.34385e-34 0 5.76688e-34 0 1.29844e-33 0 2.77883e-33 0 5.66776e-33 0 1.10438e-32 0 2.02874e-32 0 3.63195e-32 0
8.67162 5.1696e-13 5.16958e-13 1.74258e-18 3.37083e-06 7.46132e-05 0 0 0 0 6.16571e-44 0 3.26993e-41 0 2.12743e-39 0 4.70106e-38 0 5.55409e-37 0 4.09436e-36 0 2.24965e-35 0 9.69491e-35 0 3.54422e-34 0 1.11491e-33 0 3.05439e-33 0 7.86985e-33 0 1.85305e-32 0 4.01013e-32 0 8.26922e-32 0 1.62892e-31 0 3.0723e-31 0 5.47869e-31 0 9.53326e-31 0
9.11674 7.09566e-13 7.09564e-13 2.07281e-18 2.92123e-06 6.36573e-05 0 0 0 0 6.91821e-42 0 2.6744e-39 0 1.41907e-37 0 2.69593e-36 0 2.82336e-35 0 1.88791e-34 0 9.54515e-34 0 3.83034e-33 0 1.3144e-32 0 3.90972e-32 0 1.01967e-31 0 2.50862e-31 0 5.66494e-31 0 1.18059e-30 0 2.34995e-30 0 4.47836e-30 0 8.18894e-30 0 1.41963e-29 0 2.40434e-29 0
9.5847 8.64964e-13 8.64961e-13 2.87514e-18 3.324e-06 5.69665e-05 0 0 1.26117e-44 0 5.43862e-40 0 1.57183e-37 0 6.87024e-36 0 1.13043e-34 0 1.0556e-33 0 6.43314e-33 0 3.00512e-32 0 1.12682e-31 0 3.64081e-31 0 1.02684e-30 0 2.5556e-30 0 6.01695e-30 0 1.30577e-29 0 2.62542e-29 0 5.05315e-29 0 9.33144e-29 0 1.65676e-28 0 2.79603e-28 0 4.61519e-28 0
10.0767 8.37298e-13 8.37295e-13 3.16324e-18 3.77791e-06 5.40917e-05 0 0 1.08741e-42 0 2.73657e-38 0 5.99751e-36 0 2.17991e-34 0 3.12844e-33 0 2.61945e-32 0 1.46154e-31 0 6.33237e-31 0 2.22604e-30 0 6.79218e-30 0 1.82108e-29 0 4.33494e-29 0 9.78838e-29 0 2.04537e-28 0 3.97461e-28 0 7.40925e-28 0 1.32787e-27 0 2.29242e-27 0 3.77119e-27 0 6.07435e-27 0
10.5939 7.12894e-13 7.12891e-13 2.80796e-18 3.93882e-06 5.31941e-05 1.4013e-45 0 6.4286e-41 0 9.86519e-37 0 1.66182e-34 0 5.06832e-33 0 6.38659e-32 0 4.82051e-31 0 2.4731e-30 0 9.97487e-30 0 3.29775e-29 0 9.52884e-29 0 2.43471e-28 0 5.55536e-28 0 1.20551e-27 0 2.42998e-27 0 4.5713e-27 0 8.26634e-27 0 1.43987e-26 0 2.42038e-26 0 3.8861e-26 0 6.11544e-26 0
11.1377 5.95592e-13 5.9559e-13 2.35993e-18 3.96233e-06 5.44781e-05 9.52883e-44 0 2.99532e-39 0 2.87112e-35 0 3.76552e-33 0 9.71932e-32 0 1.08222e-30 0 7.40082e-30 0 3.50555e-29 0 1.32084e-28 0 4.11914e-28 0 1.13013e-27 0 2.75832e-27 0 6.04531e-27 0 1.26313e-26 0 2.46047e-26 0 4.48803e-26 0 7.8844e-26 0 1.33663e-25 0 2.19058e-25 0 3.43676e-25 0 5.28992e-25 0
11.7094 4.78283e-13 4.78281e-13 1.84528e-18 3.85814e-06 5.48052e-05 5.71029e-42 0 1.08894e-37 0 6.67138e-34 0 6.8959e-32 0 1.5187e-30 0 1.50331e-29 0 9.35936e-29 0 4.10907e-28 0 1.45114e-27 0 4.28104e-27 0 1.11808e-26 0 2.61257e-26 0 5.51065e-26 0 1.11073e-25 0 2.0943e-25 0 3.70964e-25 0 6.34011e-25 0 1.04748e-24 0 1.67579e-24 0 2.57194e-24 0 3.87628e-24 0
12.3105 3.842e-13 3.84199e-13 1.37503e-18 3.57894e-06 5.45133e-05 2.75515e-40 0 3.24753e-36 0 1.29974e-32 0 1.07123e-30 0 2.02861e-29 0 1.79542e-28 0 1.02232e-27 0 4.17558e-27 0 1.38653e-26 0 3.87998e-26 0 9.66932e-26 0 2.16768e-25 0 4.40864e-25 0 8.58712e-25 0 1.56976e-24 0 2.70397e-24 0 4.50196e-24 0 7.25782e-24 0 1.13479e-23 0 1.70558e-23 0 2.51959e-23 0
