# 7.9433e-06 1 94 : grain size, compostion index, size index
# Heating and cooling timescale: 0.478984 480327
# Ratio of heating to cooling to determine stochastic cutoff: 100
# Equilibrium emission is recorded even for those grains in the stochastic regime.
# Emission spectrum was computed for: 
# Type: IRSF
# Scales: 0.25 0.5 1 1.5 2 2.5 3 3.5 4 4.5 5 5.5 6 6.5 7 7.5 8 8.5 9 9.5 10
# StochasticallyHeated: 0 0 0 0 0 0 0 0 0 0 0 0 0 0 0 0 0 0 0 0 0
# Temperature: -1
# Wavelength  CExt  CAbs  CSca  Albedo G EqEm1 StEm1 EqEm2 StEm2 EqEm3 StEm3 EqEm4 StEm4 EqEm5 StEm5 EqEm6 StEm6 EqEm7 StEm7 EqEm8 StEm8 EqEm9 StEm9 EqEm10 StEm10 EqEm11 StEm11 EqEm12 StEm12 EqEm13 StEm13 EqEm14 StEm14 EqEm15 StEm15 EqEm16 StEm16 EqEm17 StEm17 EqEm18 StEm18 EqEm19 StEm19 EqEm20 StEm20 EqEm21 StEm21
0.05 1.26073e-10 6.53677e-11 6.0705e-11 0.481508 0.201864 0 0 0 0 0 0 0 0 0 0 0 0 0 0 0 0 0 0 0 0 0 0 0 0 0 0 0 0 0 0 0 0 0 0 0 0 0 0 0 0 0 0
0.0525665 1.39347e-10 7.22506e-11 6.70969e-11 0.481508 0.223119 0 0 0 0 0 0 0 0 0 0 0 0 0 0 0 0 0 0 0 0 0 0 0 0 0 0 0 0 0 0 0 0 0 0 0 0 0 0 0 0 0 0
0.0552647 1.5402e-10 7.98582e-11 7.41619e-11 0.481508 0.246612 0 0 0 0 0 0 0 0 0 0 0 0 0 0 0 0 0 0 0 0 0 0 0 0 0 0 0 0 0 0 0 0 0 0 0 0 0 0 0 0 0 0
0.0581015 1.70238e-10 8.82669e-11 8.19708e-11 0.481508 0.272579 0 0 0 0 0 0 0 0 0 0 0 0 0 0 0 0 0 0 0 0 0 0 0 0 0 0 0 0 0 0 0 0 0 0 0 0 0 0 0 0 0 0
0.0610839 1.88163e-10 9.75609e-11 9.06019e-11 0.481508 0.301281 0 0 0 0 0 0 0 0 0 0 0 0 0 0 0 0 0 0 0 0 0 0 0 0 0 0 0 0 0 0 0 0 0 0 0 0 0 0 0 0 0 0
0.0642193 2.07975e-10 1.07834e-10 1.00142e-10 0.481508 0.333004 0 0 0 0 0 0 0 0 0 0 0 0 0 0 0 0 0 0 0 0 0 0 0 0 0 0 0 0 0 0 0 0 0 0 0 0 0 0 0 0 0 0
0.0675157 2.29874e-10 1.19188e-10 1.10686e-10 0.481508 0.368068 0 0 0 0 0 0 0 0 0 0 0 0 0 0 0 0 0 0 0 0 0 0 0 0 0 0 0 0 0 0 0 0 0 0 0 0 0 0 0 0 0 0
0.0709813 2.54079e-10 1.31738e-10 1.22341e-10 0.481508 0.406823 0 0 0 0 0 0 0 0 0 0 0 0 0 0 0 0 0 0 0 0 0 0 0 0 0 0 0 0 0 0 0 0 0 0 0 0 0 0 0 0 0 0
0.0746248 2.80832e-10 1.45609e-10 1.35223e-10 0.481508 0.44966 0 0 0 0 0 0 0 0 0 0 0 0 0 0 0 0 0 0 0 0 0 0 0 0 0 0 0 0 0 0 0 0 0 0 0 0 0 0 0 0 0 0
0.0784553 3.10402e-10 1.60941e-10 1.49461e-10 0.481508 0.497007 0 0 0 0 0 0 0 0 0 0 0 0 0 0 0 0 0 0 0 0 0 0 0 0 0 0 0 0 0 0 0 0 0 0 0 0 0 0 0 0 0 0
0.0824824 3.43086e-10 1.77887e-10 1.65199e-10 0.481508 0.549339 0 0 0 0 0 0 0 0 0 0 0 0 0 0 0 0 0 0 0 0 0 0 0 0 0 0 0 0 0 0 0 0 0 0 0 0 0 0 0 0 0 0
0.0867162 3.79212e-10 1.96618e-10 1.82594e-10 0.481508 0.607183 0 0 0 0 0 0 0 0 0 0 0 0 0 0 0 0 0 0 0 0 0 0 0 0 0 0 0 0 0 0 0 0 0 0 0 0 0 0 0 0 0 0
0.0911674 4.19141e-10 2.17321e-10 2.0182e-10 0.481508 0.671116 0 0 0 0 0 0 0 0 0 0 0 0 0 0 0 0 0 0 0 0 0 0 0 0 0 0 0 0 0 0 0 0 0 0 0 0 0 0 0 0 0 0
0.095847 4.63274e-10 2.40204e-10 2.2307e-10 0.481508 0.741781 0 0 0 0 0 0 0 0 0 0 0 0 0 0 0 0 0 0 0 0 0 0 0 0 0 0 0 0 0 0 0 0 0 0 0 0 0 0 0 0 0 0
0.100767 5.05274e-10 2.62153e-10 2.43122e-10 0.481167 0.806781 0 0 0 0 0 0 0 0 0 0 0 0 0 0 0 0 0 0 0 0 0 0 0 0 0 0 0 0 0 0 0 0 0 0 0 0 0 0 0 0 0 0
0.105939 5.12022e-10 2.66646e-10 2.45376e-10 0.47923 0.805375 0 0 0 0 0 0 0 0 0 0 0 0 0 0 0 0 0 0 0 0 0 0 0 0 0 0 0 0 0 0 0 0 0 0 0 0 0 0 0 0 0 0
0.111377 5.189e-10 2.712e-10 2.477e-10 0.477356 0.804784 0 0 0 0 0 0 0 0 0 0 0 0 0 0 0 0 0 0 0 0 0 0 0 0 0 0 0 0 0 0 0 0 0 0 0 0 0 0 0 0 0 0
0.117094 5.26119e-10 2.75794e-10 2.50324e-10 0.475794 0.80211 0 0 0 0 0 0 0 0 0 0 0 0 0 0 0 0 0 0 0 0 0 0 0 0 0 0 0 0 0 0 0 0 0 0 0 0 0 0 0 0 0 0
0.123105 5.338e-10 2.80789e-10 2.53011e-10 0.473982 0.79779 0 0 0 0 0 0 0 0 0 0 0 0 0 0 0 0 0 0 0 0 0 0 0 0 0 0 0 0 0 0 0 0 0 0 0 0 0 0 0 0 0 0
0.129424 5.41755e-10 2.86083e-10 2.55672e-10 0.471932 0.792038 0 0 0 0 0 0 0 0 0 0 0 0 0 0 0 0 0 0 0 0 0 0 0 0 0 0 0 0 0 0 0 0 0 0 0 0 0 0 0 0 0 0
0.136067 5.50397e-10 2.91383e-10 2.59014e-10 0.470595 0.784505 0 0 0 0 0 0 0 0 0 0 0 0 0 0 0 0 0 0 0 0 0 0 0 0 0 0 0 0 0 0 0 0 0 0 0 0 0 0 0 0 0 0
0.143051 5.60913e-10 2.97153e-10 2.6376e-10 0.470233 0.773908 0 0 0 0 0 0 0 0 0 0 0 0 0 0 0 0 0 0 0 0 0 0 0 0 0 0 0 0 0 0 0 0 0 0 0 0 0 0 0 0 0 0
0.150394 5.78488e-10 3.00576e-10 2.77913e-10 0.480412 0.759629 0 0 0 0 0 0 0 0 0 0 0 0 0 0 0 0 0 0 0 0 0 0 0 0 0 0 0 0 0 0 0 0 0 0 0 0 0 0 0 0 0 0
0.158114 6.19799e-10 2.91056e-10 3.28743e-10 0.530402 0.717711 0 0 0 0 0 0 0 0 0 0 0 0 0 0 0 0 0 0 0 0 0 0 0 0 0 0 0 0 0 0 0 0 0 0 0 0 0 0 0 0 0 0
0.16623 6.94098e-10 2.63298e-10 4.308e-10 0.620661 0.64629 0 0 0 0 0 0 0 0 0 0 0 0 0 0 0 0 0 0 0 0 0 0 0 0 0 0 0 0 0 0 0 0 0 0 0 0 0 0 0 0 0 0
0.174762 7.58035e-10 2.27328e-10 5.30707e-10 0.700109 0.620861 0 0 0 0 0 0 0 0 0 0 0 0 0 0 0 0 0 0 0 0 0 0 0 0 0 0 0 0 0 0 0 0 0 0 0 0 0 0 0 0 0 0
0.183733 7.83547e-10 1.72376e-10 6.11171e-10 0.780006 0.598555 0 0 0 0 0 0 0 0 0 0 0 0 0 0 0 0 0 0 0 0 0 0 0 0 0 0 0 0 0 0 0 0 0 0 0 0 0 0 0 0 0 0
0.193164 7.83828e-10 1.34875e-10 6.48953e-10 0.827928 0.571767 0 0 0 0 0 0 0 0 0 0 0 0 0 0 0 0 0 0 0 0 0 0 0 0 0 0 0 0 0 0 0 0 0 0 0 0 0 0 0 0 0 0
0.203079 7.4734e-10 1.28113e-10 6.19227e-10 0.828575 0.607216 0 0 0 0 0 0 0 0 0 0 0 0 0 0 0 0 0 0 0 0 0 0 0 0 0 0 0 0 0 0 0 0 0 0 0 0 0 0 0 0 0 0
0.213503 6.75281e-10 1.20071e-10 5.5521e-10 0.82219 0.636382 0 0 0 0 0 0 0 0 0 0 0 0 0 0 0 0 0 0 0 0 0 0 0 0 0 0 0 0 0 0 0 0 0 0 0 0 0 0 0 0 0 0
0.224463 6.00739e-10 1.06656e-10 4.94083e-10 0.822458 0.628698 0 0 0 0 0 0 0 0 0 0 0 0 0 0 0 0 0 0 0 0 0 0 0 0 0 0 0 0 0 0 0 0 0 0 0 0 0 0 0 0 0 0
0.235984 5.42093e-10 9.60891e-11 4.46004e-10 0.822744 0.594584 0 0 0 0 0 0 0 0 0 0 0 0 0 0 0 0 0 0 0 0 0 0 0 0 0 0 0 0 0 0 0 0 0 0 0 0 0 0 0 0 0 0
0.248097 4.98054e-10 8.99525e-11 4.08101e-10 0.819392 0.56289 0 0 0 0 0 0 0 0 0 0 0 0 0 0 0 0 0 0 0 0 0 0 0 0 0 0 0 0 0 0 0 0 0 0 0 0 0 0 0 0 0 0
0.260832 4.58911e-10 8.68055e-11 3.72106e-10 0.810845 0.548651 0 0 0 0 0 0 0 0 0 0 0 0 0 0 0 0 0 0 0 0 0 0 0 0 0 0 0 0 0 0 0 0 0 0 0 0 0 0 0 0 0 0
0.274221 4.16886e-10 8.38968e-11 3.32989e-10 0.798754 0.551799 0 0 0 0 0 0 0 0 0 0 0 0 0 0 0 0 0 0 0 0 0 0 0 0 0 0 0 0 0 0 0 0 0 0 0 0 0 0 0 0 0 0
0.288297 3.71305e-10 7.98048e-11 2.915e-10 0.785069 0.56528 0 0 0 0 0 0 0 0 0 0 0 0 0 0 0 0 0 0 0 0 0 0 0 0 0 0 0 0 0 0 0 0 0 0 0 0 0 0 0 0 0 0
0.303095 3.25186e-10 7.43047e-11 2.50881e-10 0.771501 0.577793 0 0 0 0 0 0 0 0 0 0 0 0 0 0 0 0 0 0 0 0 0 0 0 0 0 0 0 0 0 0 0 0 0 0 0 0 0 0 0 0 0 0
0.318653 2.82761e-10 6.80832e-11 2.14678e-10 0.75922 0.577715 0 0 0 0 0 0 0 0 0 0 0 0 0 0 0 0 0 0 0 0 0 0 0 0 0 0 0 0 0 0 0 0 0 0 0 0 0 0 0 0 0 0
0.335009 2.45998e-10 6.19161e-11 1.84082e-10 0.748306 0.557639 0 0 0 0 0 0 0 0 0 0 0 0 0 0 0 0 0 0 0 0 0 0 0 0 0 0 0 0 0 0 0 0 0 0 0 0 0 0 0 0 0 0
0.352205 2.14942e-10 5.63168e-11 1.58626e-10 0.737991 0.518416 0 0 0 0 0 0 0 0 0 0 0 0 0 0 0 0 0 0 0 0 0 0 0 0 0 0 0 0 0 0 0 0 0 0 0 0 0 0 0 0 0 0
0.370284 1.88728e-10 5.14532e-11 1.37275e-10 0.727369 0.468127 0 0 0 0 0 0 0 0 0 0 0 0 0 0 0 0 0 0 0 0 0 0 0 0 0 0 0 0 0 0 0 0 0 0 0 0 0 0 0 0 0 0
0.389291 1.66051e-10 4.72649e-11 1.18786e-10 0.71536 0.415582 0 0 0 0 0 0 0 0 0 0 0 0 0 0 0 0 0 0 0 0 0 0 0 0 0 0 0 0 0 0 0 0 0 0 0 0 0 0 0 0 0 0
0.409273 1.46178e-10 4.36291e-11 1.02549e-10 0.701534 0.366244 0 0 0 0 0 0 0 0 0 0 0 0 0 0 0 0 0 0 0 0 0 0 0 0 0 0 0 0 0 0 0 0 0 0 0 0 0 0 0 0 0 0
0.430281 1.28488e-10 4.04145e-11 8.80731e-11 0.68546 0.322401 0 0 0 0 0 0 0 0 0 0 0 0 0 0 0 0 0 0 0 0 0 0 0 0 0 0 0 0 0 0 0 0 0 0 0 0 0 0 0 0 0 0
0.452368 1.12704e-10 3.75191e-11 7.51849e-11 0.667101 0.28457 0 0 0 0 0 0 0 0 0 0 0 0 0 0 0 0 0 0 0 0 0 0 0 0 0 0 0 0 0 0 0 0 0 0 0 0 0 0 0 0 0 0
0.475588 9.86455e-11 3.48703e-11 6.37752e-11 0.646509 0.252028 0 0 0 0 0 0 0 0 0 0 0 0 0 0 0 0 0 0 0 0 0 0 0 0 0 0 0 0 0 0 0 0 0 0 0 0 0 0 0 0 0 0
0.5 8.62022e-11 3.2428e-11 5.37742e-11 0.623815 0.224029 0 0 0 0 0 0 0 0 0 0 0 0 0 0 0 0 0 0 0 0 0 0 0 0 0 0 0 0 0 0 0 0 0 0 0 0 0 0 0 0 0 0
0.525665 7.52753e-11 3.0166e-11 4.51093e-11 0.599257 0.199837 0 0 0 0 0 0 0 0 0 0 0 0 0 0 0 0 0 0 0 0 0 0 0 0 0 0 0 0 0 0 0 0 0 0 0 0 0 0 0 0 0 0
0.552648 6.57378e-11 2.80651e-11 3.76727e-11 0.573076 0.17883 0 0 0 0 0 0 0 0 0 0 0 0 0 0 0 0 0 0 0 0 0 0 0 0 0 0 0 0 0 0 0 0 0 0 0 0 0 0 0 0 0 0
0.581015 5.74306e-11 2.61179e-11 3.13127e-11 0.545226 0.160474 0 0 0 0 0 0 0 0 0 0 0 0 0 0 0 0 0 0 0 0 0 0 0 0 0 0 0 0 0 0 0 0 0 0 0 0 0 0 0 0 0 0
0.610839 5.02553e-11 2.43143e-11 2.5941e-11 0.516184 0.144283 0 0 0 0 0 0 0 0 0 0 0 0 0 0 0 0 0 0 0 0 0 0 0 0 0 0 0 0 0 0 0 0 0 0 0 0 0 0 0 0 0 0
0.642193 4.40798e-11 2.26377e-11 2.14421e-11 0.486438 0.129929 0 0 0 0 0 0 0 0 0 0 0 0 0 0 0 0 0 0 0 0 0 0 0 0 0 0 0 0 0 0 0 0 0 0 0 0 0 0 0 0 0 0
0.675157 3.87766e-11 2.10939e-11 1.76827e-11 0.456015 0.117189 0 0 0 0 0 0 0 0 0 0 0 0 0 0 0 0 0 0 0 0 0 0 0 0 0 0 0 0 0 0 0 0 0 0 0 0 0 0 0 0 0 0
0.709813 3.42275e-11 1.96752e-11 1.45523e-11 0.425165 0.10581 0 0 0 0 0 0 0 0 0 0 0 0 0 0 0 0 0 0 0 0 0 0 0 0 0 0 0 0 0 0 0 0 0 0 0 0 0 0 0 0 0 0
0.746248 3.03334e-11 1.83714e-11 1.1962e-11 0.39435 0.0956052 0 0 0 0 0 0 0 0 0 0 0 0 0 0 0 0 0 0 0 0 0 0 0 0 0 0 0 0 0 0 0 0 0 0 0 0 0 0 0 0 0 0
0.784553 2.6987e-11 1.71689e-11 9.81815e-12 0.36381 0.0864306 0 0 0 0 0 0 0 0 0 0 0 0 0 0 0 0 0 0 0 0 0 0 0 0 0 0 0 0 0 0 0 0 0 0 0 0 0 0 0 0 0 0
0.824824 2.41144e-11 1.60619e-11 8.05252e-12 0.33393 0.0781913 0 0 0 0 0 0 0 0 0 0 0 0 0 0 0 0 0 0 0 0 0 0 0 0 0 0 0 0 0 0 0 0 0 0 0 0 0 0 0 0 0 0
0.867162 2.16381e-11 1.50385e-11 6.59965e-12 0.305001 0.0707649 0 0 0 0 0 0 0 0 0 0 0 0 0 0 0 0 0 0 0 0 0 0 0 0 0 0 0 0 0 0 0 0 0 0 0 0 0 0 0 0 0 0
0.911674 1.95079e-11 1.41045e-11 5.40335e-12 0.276983 0.064056 0 0 0 0 0 0 0 0 0 0 0 0 0 0 0 0 0 0 0 0 0 0 0 0 0 0 0 0 0 0 0 0 0 0 0 0 0 0 0 0 0 0
0.95847 1.76684e-11 1.32498e-11 4.41861e-12 0.250085 0.0579914 0 0 0 0 0 0 0 0 0 0 0 0 0 0 0 0 0 0 0 0 0 0 0 0 0 0 0 0 0 0 0 0 0 0 0 0 0 0 0 0 0 0
1.00767 1.60614e-11 1.24584e-11 3.60298e-12 0.224326 0.0525119 0 0 0 0 0 0 0 0 0 0 0 0 0 0 0 0 0 0 0 0 0 0 0 0 0 0 0 0 0 0 0 0 0 0 0 0 0 0 0 0 0 0
1.05939 1.4926e-11 1.19882e-11 2.93772e-12 0.196819 0.0475556 0 0 0 0 0 0 0 0 0 0 0 0 0 0 0 0 0 0 0 0 0 0 0 0 0 0 0 0 0 0 0 0 0 0 0 0 0 0 0 0 0 0
1.11377 1.39901e-11 1.15912e-11 2.39893e-12 0.171473 0.0430658 0 0 0 0 0 0 0 0 0 0 0 0 0 0 0 0 0 0 0 0 0 0 0 0 0 0 0 0 0 0 0 0 0 0 0 0 0 0 0 0 0 0
1.17094 1.32242e-11 1.12613e-11 1.96292e-12 0.148434 0.0389972 0 0 0 0 0 0 0 0 0 0 0 0 0 0 0 0 0 0 0 0 0 0 0 0 0 0 0 0 0 0 0 0 0 0 0 0 0 0 0 0 0 0
1.23105 1.25747e-11 1.0969e-11 1.60566e-12 0.12769 0.0353132 0 0 0 0 0 0 0 0 0 0 0 0 0 0 0 0 0 0 0 0 0 0 0 0 0 0 0 0 0 0 0 0 0 0 0 0 0 0 0 0 0 0
1.29424 1.19874e-11 1.06734e-11 1.31406e-12 0.10962 0.0319777 0 0 0 0 0 0 0 0 0 0 0 0 0 0 0 0 0 0 0 0 0 0 0 0 0 0 0 0 0 0 0 0 0 0 0 0 0 0 0 0 0 0
1.36067 1.1446e-11 1.03658e-11 1.08021e-12 0.0943743 0.0289586 0 0 0 0 0 0 0 0 0 0 0 0 0 0 0 0 0 0 0 0 0 0 0 0 0 0 0 0 0 0 0 0 0 0 0 0 0 0 0 0 0 0
1.43051 1.09265e-11 1.00485e-11 8.78046e-13 0.080359 0.0262179 0 0 0 0 0 0 0 0 0 0 0 0 0 0 0 0 0 0 0 0 0 0 0 0 0 0 0 0 0 0 0 0 0 0 0 0 0 0 0 0 0 0
1.50394 1.04536e-11 9.73648e-12 7.1712e-13 0.0686003 0.0237364 0 0 0 0 0 0 0 0 0 0 0 0 0 0 0 0 0 0 0 0 0 0 0 0 0 0 0 0 0 0 0 0 0 0 0 0 0 0 0 0 0 0
1.58114 1.0028e-11 9.44159e-12 5.86371e-13 0.0584736 0.0214917 0 0 0 0 0 0 0 0 0 0 0 0 0 0 0 0 0 0 0 0 0 0 0 0 0 0 0 0 0 0 0 0 0 0 0 0 0 0 0 0 0 0
1.6623 9.65454e-12 9.17511e-12 4.79437e-13 0.0496592 0.0194547 0 0 0 0 0 0 0 0 0 0 0 0 0 0 0 0 0 0 0 0 0 0 0 0 0 0 0 0 0 0 0 0 0 0 0 0 0 0 0 0 0 0
1.74763 9.34014e-12 8.94817e-12 3.9197e-13 0.0419662 0.0176087 0 0 0 0 0 0 0 0 0 0 0 0 0 0 0 0 0 0 0 0 0 0 0 0 0 0 0 0 0 0 0 0 0 0 0 0 0 0 0 0 0 0
1.83733 9.09297e-12 8.77263e-12 3.20343e-13 0.0352298 0.015935 0 0 0 0 0 0 0 0 0 0 0 0 0 0 0 0 0 0 0 0 0 0 0 0 0 0 0 0 0 0 0 0 0 0 0 0 0 0 0 0 0 0
1.93164 8.91519e-12 8.65349e-12 2.61705e-13 0.0293549 0.0144216 0 0 0 0 0 0 0 0 0 0 0 0 0 0 0 0 0 0 0 0 0 0 0 0 0 0 0 0 0 0 0 0 0 0 0 0 0 0 0 0 0 0
2.03079 8.80318e-12 8.58924e-12 2.13941e-13 0.0243027 0.0130511 0 0 0 0 0 0 0 0 0 0 0 0 0 0 0 0 0 0 0 0 0 0 0 0 0 0 0 0 0 0 0 0 0 0 0 0 0 0 0 0 0 0
2.13503 8.74214e-12 8.56708e-12 1.75063e-13 0.0200252 0.011808 0 0 0 0 0 0 0 0 0 0 0 0 0 0 0 0 0 0 0 0 0 0 0 0 0 0 0 0 0 0 0 0 0 0 0 0 0 0 0 0 0 0
2.24463 8.70129e-12 8.55789e-12 1.43392e-13 0.0164794 0.0106812 0 0 0 0 0 0 0 0 0 0 0 0 0 0 0 0 0 0 0 0 0 0 0 0 0 0 0 0 0 0 0 0 0 0 0 0 0 0 0 0 0 0
2.35984 8.67098e-12 8.55345e-12 1.17522e-13 0.0135535 0.0096625 0 0 0 0 0 0 0 0 0 0 0 0 0 0 0 0 0 0 0 0 0 0 0 0 0 0 0 0 0 0 0 0 0 0 0 0 0 0 0 0 0 0
2.48097 8.66085e-12 8.56449e-12 9.63568e-14 0.0111256 0.00873885 0 0 0 0 0 0 0 0 0 0 0 0 0 0 0 0 0 0 0 0 0 0 0 0 0 0 0 0 0 0 0 0 0 0 0 0 0 0 0 0 0 0
2.60832 8.67143e-12 8.59237e-12 7.90532e-14 0.00911651 0.00790226 0 0 0 0 0 0 0 0 0 0 0 0 0 0 0 0 0 0 0 0 0 0 0 0 0 0 0 0 0 0 0 0 0 0 0 0 0 0 0 0 0 0
2.74221 8.71263e-12 8.64772e-12 6.49118e-14 0.00745032 0.00714485 0 0 0 0 0 0 0 0 0 0 0 0 0 0 0 0 0 0 0 0 0 0 0 0 0 0 0 0 0 0 0 0 0 0 0 0 0 0 0 0 0 0
2.88297 8.78514e-12 8.73175e-12 5.33895e-14 0.00607726 0.00645856 0 0 0 0 0 0 0 0 0 0 0 0 0 0 0 0 0 0 0 0 0 0 0 0 0 0 0 0 0 0 0 0 0 0 0 0 0 0 0 0 0 0
3.03095 8.88631e-12 8.84223e-12 4.40836e-14 0.00496085 0.00583764 0 0 0 0 0 0 0 0 0 0 0 0 0 0 0 0 0 0 0 0 0 0 0 0 0 0 0 0 0 0 0 0 0 0 0 0 0 0 0 0 0 0
3.18653 8.90789e-12 8.8714e-12 3.64882e-14 0.00409616 0.00527524 0 0 0 0 0 0 0 0 0 0 0 0 0 0 0 0 0 0 0 0 0 0 0 0 0 0 0 0 0 0 0 0 0 0 0 0 0 0 0 0 0 0
3.35009 9.11213e-12 9.0823e-12 2.98253e-14 0.00327315 0.0047656 0 0 0 0 0 0 0 0 0 0 0 0 0 0 0 0 0 0 0 0 0 0 0 0 0 0 0 0 0 0 0 0 0 0 0 0 0 0 0 0 0 0
3.52205 9.06825e-12 9.04229e-12 2.59542e-14 0.0028621 0.00430409 0 0 0 0 0 0 0 0 0 0 0 0 0 0 0 0 0 0 0 0 0 0 0 0 0 0 0 0 0 0 0 0 0 0 0 0 0 0 0 0 0 0
3.70284 8.45171e-12 8.4306e-12 2.11102e-14 0.00249774 0.00388655 0 0 0 0 0 0 0 0 0 0 0 0 0 0 0 0 0 0 0 0 0 0 0 0 0 0 0 0 0 0 0 0 0 0 0 0 0 0 0 0 0 0
3.89291 8.26745e-12 8.25015e-12 1.72942e-14 0.00209185 0.00350802 0 0 0 0 0 0 0 0 0 0 0 0 0 0 0 0 0 0 0 0 0 0 0 0 0 0 0 0 0 0 0 0 0 0 0 0 0 0 0 0 0 0
4.09273 8.12164e-12 8.10746e-12 1.41785e-14 0.00174577 0.00316464 0 0 0 0 0 0 0 0 0 0 0 0 0 0 0 0 0 0 0 0 0 0 0 0 0 0 0 0 0 0 0 0 0 0 0 0 0 0 0 0 0 0
4.30281 8.01477e-12 8.00314e-12 1.16295e-14 0.001451 0.0028534 0 0 0 0 0 0 0 0 0 0 0 0 0 0 0 0 0 0 0 0 0 0 0 0 0 0 0 0 0 0 0 0 0 0 0 0 0 0 0 0 0 0
4.52368 7.94938e-12 7.93983e-12 9.54887e-15 0.00120121 0.00257168 0 0 0 0 0 0 0 0 0 0 0 0 0 0 0 0 0 0 0 0 0 0 0 0 0 0 0 0 0 0 0 0 0 0 0 0 0 0 0 0 0 0
4.75588 7.91467e-12 7.90681e-12 7.85365e-15 0.000992291 0.00231604 0 0 0 0 0 0 0 0 0 0 0 0 0 0 0 0 0 0 0 0 0 0 0 0 0 0 0 0 0 0 0 0 0 0 0 0 0 0 0 0 0 0
5 7.88847e-12 7.882e-12 6.47258e-15 0.000820512 0.00208355 0 0 0 0 0 0 0 0 0 0 0 0 0 0 0 0 0 0 0 0 0 0 0 0 0 0 0 0 0 0 0 0 0 0 0 0 0 0 0 0 0 0
5.25665 7.85165e-12 7.84631e-12 5.34031e-15 0.000680152 0.00187223 0 0 0 0 0 0 0 0 0 0 0 0 0 0 0 0 0 0 0 0 0 0 0 0 0 0 0 0 0 0 0 0 0 0 0 0 0 0 0 0 0 0
5.52648 7.80495e-12 7.80054e-12 4.40598e-15 0.000564511 0.00168092 0 0 0 0 0 0 0 0 0 0 0 0 0 0 0 0 0 0 0 0 0 0 0 0 0 0 0 0 0 0 0 0 0 0 0 0 0 0 0 0 0 0
5.81015 7.74286e-12 7.73923e-12 3.63104e-15 0.000468953 0.00150653 0 0 0 0 0 0 0 0 0 0 0 0 0 0 0 0 0 0 0 0 0 0 0 0 0 0 0 0 0 0 0 0 0 0 0 0 0 0 0 0 1.4013e-45 0
6.10839 7.67391e-12 7.67093e-12 2.9862e-15 0.000389137 0.00134799 0 0 0 0 0 0 0 0 0 0 0 0 0 0 0 0 0 0 0 0 0 0 0 0 0 0 0 0 0 0 1.4013e-45 0 4.2039e-45 0 1.26117e-44 0 3.08286e-44 0 7.70714e-44 0 1.76564e-43 0
6.42193 7.59603e-12 7.59359e-12 2.44696e-15 0.000322137 0.00120334 0 0 0 0 0 0 0 0 0 0 0 0 0 0 0 0 0 0 0 0 0 0 1.4013e-45 0 4.2039e-45 0 1.54143e-44 0 5.46506e-44 0 1.69557e-43 0 4.86251e-43 0 1.2948e-42 0 3.15572e-42 0 7.56421e-42 0 1.66895e-41 0
6.75157 7.5392e-12 7.53721e-12 1.98932e-15 0.000263864 0.00107002 0 0 0 0 0 0 0 0 0 0 0 0 0 0 0 0 0 0 4.2039e-45 0 2.24208e-44 0 1.10703e-43 0 4.55422e-43 0 1.66755e-42 0 5.35857e-42 0 1.59664e-41 0 4.33169e-41 0 1.1001e-40 0 2.56669e-40 0 5.8961e-40 0 1.2515e-39 0
7.09813 7.41473e-12 7.41311e-12 1.61634e-15 0.00021799 0.000944469 0 0 0 0 0 0 0 0 0 0 0 0 0 0 7.00649e-45 0 6.30584e-44 0 4.24593e-43 0 2.30514e-42 0 1.04257e-41 0 3.98894e-41 0 1.36974e-40 0 4.15577e-40 0 1.17405e-39 0 3.03382e-39 0 7.36207e-39 0 1.64806e-38 0 3.63523e-38 0 7.43771e-38 0
7.46248 7.31336e-12 7.31208e-12 1.28089e-15 0.000175144 0.000822263 0 0 0 0 0 0 0 0 0 0 2.8026e-45 0 5.74532e-44 0 7.20267e-43 0 5.96813e-42 0 3.69466e-41 0 1.84466e-40 0 7.74904e-40 0 2.77663e-39 0 8.97729e-39 0 2.58004e-38 0 6.9285e-38 0 1.70928e-37 0 3.97214e-37 0 8.54893e-37 0 1.81424e-36 0 3.58445e-36 0
7.84553 7.20798e-12 7.20701e-12 9.69412e-16 0.000134492 0.000705692 0 0 0 0 0 0 0 0 7.00649e-45 0 3.04082e-43 0 5.42583e-42 0 6.01353e-41 0 4.49646e-40 0 2.54648e-39 0 1.17541e-38 0 4.60351e-38 0 1.54988e-37 0 4.73198e-37 0 1.29163e-36 0 3.30526e-36 0 7.80246e-36 0 1.74006e-35 0 3.60743e-35 0 7.37949e-35 0 1.41031e-34 0
8.24824 8.03032e-12 8.0296e-12 7.13065e-16 8.87966e-05 0.000606633 0 0 0 0 0 0 8.40779e-45 0 8.81417e-43 0 2.95057e-41 0 4.58324e-40 0 4.51627e-39 0 3.061e-38 0 1.59281e-37 0 6.82314e-37 0 2.49997e-36 0 7.93239e-36 0 2.29341e-35 0 5.96054e-35 0 1.4569e-34 0 3.29793e-34 0 7.07241e-34 0 1.41495e-33 0 2.79508e-33 0 5.17547e-33 0
8.67162 9.74994e-12 9.74932e-12 6.18222e-16 6.34078e-05 0.000527962 0 0 0 0 1.4013e-45 0 9.73902e-43 0 8.80366e-41 0 2.483e-39 0 3.37354e-38 0 2.97291e-37 0 1.83522e-36 0 8.81083e-36 0 3.51551e-35 0 1.20894e-34 0 3.62568e-34 0 9.95303e-34 0 2.46892e-33 0 5.77697e-33 0 1.25658e-32 0 2.5962e-32 0 5.02121e-32 0 9.59458e-32 0 1.72392e-31 0
9.11674 1.33802e-11 1.33795e-11 7.35358e-16 5.49585e-05 0.00045043 0 0 0 0 1.79366e-43 0 1.09143e-40 0 7.91682e-39 0 1.89694e-37 0 2.26903e-36 0 1.79801e-35 0 1.01555e-34 0 4.51613e-34 0 1.68421e-33 0 5.45284e-33 0 1.54996e-32 0 4.05017e-32 0 9.61084e-32 0 2.15739e-31 0 4.51794e-31 0 9.00953e-31 0 1.68727e-30 0 3.12373e-30 0 5.45431e-30 0
9.5847 1.63138e-11 1.63127e-11 1.02031e-15 6.25428e-05 0.000402997 0 0 0 0 1.94963e-41 0 8.65677e-39 0 5.09414e-37 0 1.04525e-35 0 1.10761e-34 0 7.93318e-34 0 4.11762e-33 0 1.70243e-32 0 5.95373e-32 0 1.82014e-31 0 4.91643e-31 0 1.22585e-30 0 2.7887e-30 0 6.0176e-30 0 1.21552e-29 0 2.34362e-29 0 4.25665e-29 0 7.64708e-29 0 1.2994e-28 0
10.0767 1.57976e-11 1.57965e-11 1.12299e-15 7.10861e-05 0.000382584 0 0 2.52234e-44 0 1.33254e-39 0 4.39362e-37 0 2.11901e-35 0 3.75162e-34 0 3.54267e-33 0 2.30486e-32 0 1.10389e-31 0 4.25845e-31 0 1.40096e-30 0 4.05551e-30 0 1.04357e-29 0 2.48848e-29 0 5.4384e-29 0 1.13028e-28 0 2.20605e-28 0 4.11927e-28 0 7.26685e-28 0 1.26868e-27 0 2.10067e-27 0
10.5939 1.34526e-11 1.34516e-11 9.97008e-16 7.41125e-05 0.000376173 0 0 2.01507e-42 0 6.42708e-38 0 1.59666e-35 0 6.37289e-34 0 9.80585e-33 0 8.29829e-32 0 4.92712e-31 0 2.18605e-30 0 7.89513e-30 0 2.45066e-29 0 6.73542e-29 0 1.655e-28 0 3.78256e-28 0 7.95691e-28 0 1.59568e-27 0 3.01437e-27 0 5.4596e-27 0 9.36807e-27 0 1.59162e-26 0 2.57131e-26 0
11.1377 1.12397e-11 1.12389e-11 8.37958e-16 7.45535e-05 0.000385246 1.4013e-45 0 1.28323e-40 0 2.46706e-36 0 4.68203e-34 0 1.56094e-32 0 2.10171e-31 0 1.60248e-30 0 8.7222e-30 0 3.59833e-29 0 1.22059e-28 0 3.5849e-28 0 9.37823e-28 0 2.20543e-27 0 4.84119e-27 0 9.82072e-27 0 1.90366e-26 0 3.48621e-26 0 6.13369e-26 0 1.02509e-25 0 1.69712e-25 0 2.67829e-25 0
11.7094 9.02541e-12 9.02476e-12 6.55206e-16 7.25957e-05 0.000387584 1.56945e-43 0 6.27958e-39 0 7.45847e-35 0 1.09565e-32 0 3.07798e-31 0 3.65024e-30 0 2.52039e-29 0 1.26292e-28 0 4.86182e-28 0 1.55371e-27 0 4.32943e-27 0 1.08065e-26 0 2.43738e-26 0 5.14887e-26 0 1.00903e-25 0 1.89372e-25 0 3.36706e-25 0 5.76288e-25 0 9.39271e-25 0 1.51723e-24 0 2.34164e-24 0
12.3105 7.24861e-12 7.24812e-12 4.88181e-16 6.73483e-05 0.000385559 1.04088e-41 0 2.48416e-37 0 1.86619e-33 0 2.14869e-31 0 5.12911e-30 0 5.39086e-29 0 3.38714e-28 0 1.5688e-27 0 5.65471e-27 0 1.70744e-26 0 4.52561e-26 0 1.08028e-25 0 2.34168e-25 0 4.76934e-25 0 9.04451e-25 0 1.64607e-24 0 2.84564e-24 0 4.74432e-24 0 7.55034e-24 0 1.19141e-23 0 1.80022e-23 0
