# 0.000594021 1 93 : grain size, compostion index, size index
# Heating and cooling timescale: 6.90281e-06 2.7923e+22
# Ratio of heating to cooling to determine stochastic cutoff: 100
# Equilibrium emission is recorded even for those grains in the stochastic regime.
# Emission spectrum was computed for: 
# Type: ISRF
# Scales: 0.25 0.5 1 1.5 2 2.5 3 3.5 4 4.5 5 5.5 6 6.5 7 7.5 8 8.5 9 9.5 10
# StochasticallyHeated: 0 0 0 0 0 0 0 0 0 0 0 0 0 0 0 0 0 0 0 0 0
# Temperature: -1
# Wavelength  CExt  CAbs  CSca  Albedo G EqEm1 StEm1 EqEm2 StEm2 EqEm3 StEm3 EqEm4 StEm4 EqEm5 StEm5 EqEm6 StEm6 EqEm7 StEm7 EqEm8 StEm8 EqEm9 StEm9 EqEm10 StEm10 EqEm11 StEm11 EqEm12 StEm12 EqEm13 StEm13 EqEm14 StEm14 EqEm15 StEm15 EqEm16 StEm16 EqEm17 StEm17 EqEm18 StEm18 EqEm19 StEm19 EqEm20 StEm20 EqEm21 StEm21
0.05 2.24005e-06 9.45132e-07 1.29492e-06 0.578075 0.932176 0 0 0 0 0 0 0 0 0 0 0 0 0 0 0 0 0 0 0 0 0 0 0 0 0 0 0 0 0 0 0 0 0 0 0 0 0 0 0 0 0 0
0.0525665 2.24106e-06 9.37167e-07 1.3039e-06 0.58182 0.926424 0 0 0 0 0 0 0 0 0 0 0 0 0 0 0 0 0 0 0 0 0 0 0 0 0 0 0 0 0 0 0 0 0 0 0 0 0 0 0 0 0 0
0.0552647 2.24217e-06 9.23731e-07 1.31844e-06 0.588019 0.917626 0 0 0 0 0 0 0 0 0 0 0 0 0 0 0 0 0 0 0 0 0 0 0 0 0 0 0 0 0 0 0 0 0 0 0 0 0 0 0 0 0 0
0.0581015 2.24349e-06 9.03293e-07 1.34019e-06 0.597371 0.903945 0 0 0 0 0 0 0 0 0 0 0 0 0 0 0 0 0 0 0 0 0 0 0 0 0 0 0 0 0 0 0 0 0 0 0 0 0 0 0 0 0 0
0.0610839 2.24503e-06 8.82855e-07 1.36218e-06 0.606752 0.888608 0 0 0 0 0 0 0 0 0 0 0 0 0 0 0 0 0 0 0 0 0 0 0 0 0 0 0 0 0 0 0 0 0 0 0 0 0 0 0 0 0 0
0.0642193 2.24669e-06 8.68847e-07 1.37785e-06 0.613277 0.876138 0 0 0 0 0 0 0 0 0 0 0 0 0 0 0 0 0 0 0 0 0 0 0 0 0 0 0 0 0 0 0 0 0 0 0 0 0 0 0 0 0 0
0.0675157 2.24839e-06 8.61287e-07 1.3871e-06 0.616932 0.867345 0 0 0 0 0 0 0 0 0 0 0 0 0 0 0 0 0 0 0 0 0 0 0 0 0 0 0 0 0 0 0 0 0 0 0 0 0 0 0 0 0 0
0.0709813 2.25012e-06 8.58983e-07 1.39113e-06 0.61825 0.861805 0 0 0 0 0 0 0 0 0 0 0 0 0 0 0 0 0 0 0 0 0 0 0 0 0 0 0 0 0 0 0 0 0 0 0 0 0 0 0 0 0 0
0.0746248 2.25184e-06 8.61055e-07 1.39079e-06 0.617621 0.85911 0 0 0 0 0 0 0 0 0 0 0 0 0 0 0 0 0 0 0 0 0 0 0 0 0 0 0 0 0 0 0 0 0 0 0 0 0 0 0 0 0 0
0.0784553 2.25352e-06 8.6805e-07 1.38547e-06 0.614802 0.859752 0 0 0 0 0 0 0 0 0 0 0 0 0 0 0 0 0 0 0 0 0 0 0 0 0 0 0 0 0 0 0 0 0 0 0 0 0 0 0 0 0 0
0.0824824 2.25502e-06 8.81956e-07 1.37307e-06 0.608893 0.865249 0 0 0 0 0 0 0 0 0 0 0 0 0 0 0 0 0 0 0 0 0 0 0 0 0 0 0 0 0 0 0 0 0 0 0 0 0 0 0 0 0 0
0.0867162 2.25629e-06 8.87931e-07 1.36836e-06 0.606465 0.868212 0 0 0 0 0 0 0 0 0 0 0 0 0 0 0 0 0 0 0 0 0 0 0 0 0 0 0 0 0 0 0 0 0 0 0 0 0 0 0 0 0 0
0.0911674 2.25806e-06 8.80751e-07 1.37731e-06 0.609952 0.861768 0 0 0 0 0 0 0 0 0 0 0 0 0 0 0 0 0 0 0 0 0 0 0 0 0 0 0 0 0 0 0 0 0 0 0 0 0 0 0 0 0 0
0.095847 2.25993e-06 8.80649e-07 1.37928e-06 0.61032 0.858501 0 0 0 0 0 0 0 0 0 0 0 0 0 0 0 0 0 0 0 0 0 0 0 0 0 0 0 0 0 0 0 0 0 0 0 0 0 0 0 0 0 0
0.100767 2.26164e-06 8.84217e-07 1.37742e-06 0.609037 0.858033 0 0 0 0 0 0 0 0 0 0 0 0 0 0 0 0 0 0 0 0 0 0 0 0 0 0 0 0 0 0 0 0 0 0 0 0 0 0 0 0 0 0
0.105939 2.26311e-06 8.93957e-07 1.36915e-06 0.604987 0.861907 0 0 0 0 0 0 0 0 0 0 0 0 0 0 0 0 0 0 0 0 0 0 0 0 0 0 0 0 0 0 0 0 0 0 0 0 0 0 0 0 0 0
0.111377 2.26446e-06 9.0382e-07 1.36064e-06 0.600868 0.866928 0 0 0 0 0 0 0 0 0 0 0 0 0 0 0 0 0 0 0 0 0 0 0 0 0 0 0 0 0 0 0 0 0 0 0 0 0 0 0 0 0 0
0.117094 2.26589e-06 9.10511e-07 1.35538e-06 0.598166 0.870073 0 0 0 0 0 0 0 0 0 0 0 0 0 0 0 0 0 0 0 0 0 0 0 0 0 0 0 0 0 0 0 0 0 0 0 0 0 0 0 0 0 0
0.123105 2.2674e-06 9.15321e-07 1.35208e-06 0.596313 0.872053 0 0 0 0 0 0 0 0 0 0 0 0 0 0 0 0 0 0 0 0 0 0 0 0 0 0 0 0 0 0 0 0 0 0 0 0 0 0 0 0 0 0
0.129424 2.26898e-06 9.1859e-07 1.35039e-06 0.595152 0.873014 0 0 0 0 0 0 0 0 0 0 0 0 0 0 0 0 0 0 0 0 0 0 0 0 0 0 0 0 0 0 0 0 0 0 0 0 0 0 0 0 0 0
0.136067 2.27061e-06 9.20154e-07 1.35046e-06 0.594755 0.872766 0 0 0 0 0 0 0 0 0 0 0 0 0 0 0 0 0 0 0 0 0 0 0 0 0 0 0 0 0 0 0 0 0 0 0 0 0 0 0 0 0 0
0.143051 2.27229e-06 9.19021e-07 1.35327e-06 0.595554 0.870445 0 0 0 0 0 0 0 0 0 0 0 0 0 0 0 0 0 0 0 0 0 0 0 0 0 0 0 0 0 0 0 0 0 0 0 0 0 0 0 0 0 0
0.150394 2.27367e-06 9.22898e-07 1.35078e-06 0.594094 0.871641 0 0 0 0 0 0 0 0 0 0 0 0 0 0 0 0 0 0 0 0 0 0 0 0 0 0 0 0 0 0 0 0 0 0 0 0 0 0 0 0 0 0
0.158114 2.27497e-06 9.33199e-07 1.34177e-06 0.589797 0.878013 0 0 0 0 0 0 0 0 0 0 0 0 0 0 0 0 0 0 0 0 0 0 0 0 0 0 0 0 0 0 0 0 0 0 0 0 0 0 0 0 0 0
0.16623 2.27649e-06 9.44895e-07 1.3316e-06 0.584934 0.885768 0 0 0 0 0 0 0 0 0 0 0 0 0 0 0 0 0 0 0 0 0 0 0 0 0 0 0 0 0 0 0 0 0 0 0 0 0 0 0 0 0 0
0.174762 2.27826e-06 9.5548e-07 1.32278e-06 0.58061 0.892807 0 0 0 0 0 0 0 0 0 0 0 0 0 0 0 0 0 0 0 0 0 0 0 0 0 0 0 0 0 0 0 0 0 0 0 0 0 0 0 0 0 0
0.183733 2.28019e-06 9.65071e-07 1.31511e-06 0.576758 0.899099 0 0 0 0 0 0 0 0 0 0 0 0 0 0 0 0 0 0 0 0 0 0 0 0 0 0 0 0 0 0 0 0 0 0 0 0 0 0 0 0 0 0
0.193164 2.28225e-06 9.73449e-07 1.3088e-06 0.573469 0.904436 0 0 0 0 0 0 0 0 0 0 0 0 0 0 0 0 0 0 0 0 0 0 0 0 0 0 0 0 0 0 0 0 0 0 0 0 0 0 0 0 0 0
0.203079 2.28442e-06 9.80838e-07 1.30358e-06 0.57064 0.908967 0 0 0 0 0 0 0 0 0 0 0 0 0 0 0 0 0 0 0 0 0 0 0 0 0 0 0 0 0 0 0 0 0 0 0 0 0 0 0 0 0 0
0.213503 2.28669e-06 9.87585e-07 1.29911e-06 0.568116 0.912947 0 0 0 0 0 0 0 0 0 0 0 0 0 0 0 0 0 0 0 0 0 0 0 0 0 0 0 0 0 0 0 0 0 0 0 0 0 0 0 0 0 0
0.224463 2.28904e-06 9.93507e-07 1.29554e-06 0.565973 0.916237 0 0 0 0 0 0 0 0 0 0 0 0 0 0 0 0 0 0 0 0 0 0 0 0 0 0 0 0 0 0 0 0 0 0 0 0 0 0 0 0 0 0
0.235984 2.29147e-06 9.9853e-07 1.29294e-06 0.56424 0.918789 0 0 0 0 0 0 0 0 0 0 0 0 0 0 0 0 0 0 0 0 0 0 0 0 0 0 0 0 0 0 0 0 0 0 0 0 0 0 0 0 0 0
0.248097 2.29398e-06 1.00278e-06 1.2912e-06 0.562866 0.920702 0 0 0 0 0 0 0 0 0 0 0 0 0 0 0 0 0 0 0 0 0 0 0 0 0 0 0 0 0 0 0 0 0 0 0 0 0 0 0 0 0 0
0.260832 2.29658e-06 1.00658e-06 1.28999e-06 0.561703 0.922224 0 0 0 0 0 0 0 0 0 0 0 0 0 0 0 0 0 0 0 0 0 0 0 0 0 0 0 0 0 0 0 0 0 0 0 0 0 0 0 0 0 0
0.274221 2.29923e-06 1.01012e-06 1.2891e-06 0.560668 0.923487 0 0 0 0 0 0 0 0 0 0 0 0 0 0 0 0 0 0 0 0 0 0 0 0 0 0 0 0 0 0 0 0 0 0 0 0 0 0 0 0 0 0
0.288297 2.302e-06 1.01345e-06 1.28855e-06 0.559752 0.92453 0 0 0 0 0 0 0 0 0 0 0 0 0 0 0 0 0 0 0 0 0 0 0 0 0 0 0 0 0 0 0 0 0 0 0 0 0 0 0 0 0 0
0.303095 2.30487e-06 1.01662e-06 1.28825e-06 0.558927 0.925388 0 0 0 0 0 0 0 0 0 0 0 0 0 0 0 0 0 0 0 0 0 0 0 0 0 0 0 0 0 0 0 0 0 0 0 0 0 0 0 0 0 0
0.318653 2.30781e-06 1.0197e-06 1.28811e-06 0.558153 0.926119 0 0 0 0 0 0 0 0 0 0 0 0 0 0 0 0 0 0 0 0 0 0 0 0 0 0 0 0 0 0 0 0 0 0 0 0 0 0 0 0 0 0
0.335009 2.31083e-06 1.02271e-06 1.28812e-06 0.557427 0.926724 0 0 0 0 0 0 0 0 0 0 0 0 0 0 0 0 0 0 0 0 0 0 0 0 0 0 0 0 0 0 0 0 0 0 0 0 0 0 0 0 0 0
0.352205 2.314e-06 1.0257e-06 1.28831e-06 0.556743 0.927248 0 0 0 0 0 0 0 0 0 0 0 0 0 0 0 0 0 0 0 0 0 0 0 0 0 0 0 0 0 0 0 0 0 0 0 0 0 0 0 0 0 0
0.370284 2.31733e-06 1.02868e-06 1.28864e-06 0.556091 0.927698 0 0 0 0 0 0 0 0 0 0 0 0 0 0 0 0 0 0 0 0 0 0 0 0 0 0 0 0 0 0 0 0 0 0 0 0 0 0 0 0 0 0
0.389291 2.32062e-06 1.03164e-06 1.28898e-06 0.555447 0.928042 0 0 0 0 0 0 0 0 0 0 0 0 0 0 0 0 0 0 0 0 0 0 0 0 0 0 0 0 0 0 0 0 0 0 0 0 0 0 0 0 0 0
0.409273 2.32392e-06 1.0346e-06 1.28932e-06 0.554805 0.928311 0 0 0 0 0 0 0 0 0 0 0 0 0 0 0 0 0 0 0 0 0 0 0 0 0 0 0 0 0 0 0 0 0 0 0 0 0 0 0 0 0 0
0.430281 2.32746e-06 1.03762e-06 1.28984e-06 0.554182 0.928555 0 0 0 0 0 0 0 0 0 0 0 0 0 0 0 0 0 0 0 0 0 0 0 0 0 0 0 0 0 0 0 0 0 0 0 0 0 0 0 0 0 0
0.452368 2.33103e-06 1.04063e-06 1.2904e-06 0.553575 0.928706 0 0 0 0 0 0 0 0 0 0 0 0 0 0 0 0 0 0 0 0 0 0 0 0 0 0 0 0 0 0 0 0 0 0 0 0 0 0 0 0 0 0
0.475588 2.33474e-06 1.0437e-06 1.29104e-06 0.552971 0.928819 0 0 0 0 0 0 0 0 0 0 0 0 0 0 0 0 0 0 0 0 0 0 0 0 0 0 0 0 0 0 0 0 0 0 0 0 0 0 0 0 0 0
0.5 2.339e-06 1.04681e-06 1.29219e-06 0.552454 0.928911 0 0 0 0 0 0 0 0 0 0 0 0 0 0 0 0 0 0 0 0 0 0 0 0 0 0 0 0 0 0 0 0 0 0 0 0 0 0 0 0 0 0
0.525665 2.34385e-06 1.04997e-06 1.29388e-06 0.552031 0.92899 0 0 0 0 0 0 0 0 0 0 0 0 0 0 0 0 0 0 0 0 0 0 0 0 0 0 0 0 0 0 0 0 0 0 0 0 0 0 0 0 0 0
0.552648 2.3485e-06 1.05321e-06 1.29529e-06 0.55154 0.929027 0 0 0 0 0 0 0 0 0 0 0 0 0 0 0 0 0 0 0 0 0 0 0 0 0 0 0 0 0 0 0 0 0 0 0 0 0 0 0 0 0 0
0.581015 2.351e-06 1.05638e-06 1.29461e-06 0.550666 0.928823 0 0 0 0 0 0 0 0 0 0 0 0 0 0 0 0 0 0 0 0 0 0 0 0 0 0 0 0 0 0 0 0 0 0 0 0 0 0 0 0 0 0
0.610839 2.35524e-06 1.05962e-06 1.29562e-06 0.550101 0.928683 0 0 0 0 0 0 0 0 0 0 0 0 0 0 0 0 0 0 0 0 0 0 0 0 0 0 0 0 0 0 0 0 0 0 0 0 0 0 0 0 0 0
0.642193 2.36334e-06 1.06287e-06 1.30047e-06 0.550267 0.928709 0 0 0 0 0 0 0 0 0 0 0 0 0 0 0 0 0 0 0 0 0 0 0 0 0 0 0 0 0 0 0 0 0 0 0 0 0 0 0 0 0 0
0.675157 2.36402e-06 1.06613e-06 1.29789e-06 0.549019 0.928259 0 0 0 0 0 0 0 0 0 0 0 0 0 0 0 0 0 0 0 0 0 0 0 0 0 0 0 0 0 0 0 0 0 0 0 0 0 0 0 0 0 0
0.709813 2.37074e-06 1.06935e-06 1.30139e-06 0.548937 0.92805 0 0 0 0 0 0 0 0 0 0 0 0 0 0 0 0 0 0 0 0 0 0 0 0 0 0 0 0 0 0 0 0 0 0 0 0 0 0 0 0 0 0
0.746248 2.37788e-06 1.0725e-06 1.30538e-06 0.548969 0.927789 0 0 0 0 0 0 0 0 0 0 0 0 0 0 0 0 0 0 0 0 0 0 0 0 0 0 0 0 0 0 0 0 0 0 0 0 0 0 0 0 0 0
0.784553 2.37783e-06 1.07561e-06 1.30222e-06 0.547651 0.927069 0 0 0 0 0 0 0 0 0 0 0 0 0 0 0 0 0 0 0 0 0 0 0 0 0 0 0 0 0 0 0 0 0 0 0 0 0 0 0 0 0 0
0.824824 2.3917e-06 1.07875e-06 1.31295e-06 0.54896 0.927024 0 0 0 0 0 0 0 0 0 0 0 0 0 0 0 0 0 0 0 0 0 0 0 0 0 0 0 0 0 0 0 0 0 0 0 0 0 0 0 0 0 0
0.867162 2.38769e-06 1.08145e-06 1.30624e-06 0.547074 0.925791 0 0 0 0 0 0 0 0 0 0 0 0 0 0 0 0 0 0 0 0 0 0 0 0 0 0 0 0 0 0 0 0 0 0 0 0 0 0 0 0 0 0
0.911674 2.4019e-06 1.08403e-06 1.31787e-06 0.548677 0.925543 0 0 0 0 0 0 0 0 0 0 0 0 0 0 0 0 0 0 0 0 0 0 0 0 0 0 0 0 0 0 0 0 0 0 0 0 0 0 0 0 0 0
0.95847 2.40476e-06 1.08657e-06 1.31819e-06 0.548158 0.924576 0 0 0 0 0 0 0 0 0 0 0 0 0 0 0 0 0 0 0 0 0 0 0 0 0 0 0 0 0 0 0 0 0 0 0 0 0 0 0 0 0 0
1.00767 2.40351e-06 1.0887e-06 1.31482e-06 0.547039 0.923103 0 0 0 0 0 0 0 0 0 0 0 0 0 0 0 0 0 0 0 0 0 0 0 0 0 0 0 0 0 0 0 0 0 0 0 0 0 0 0 0 0 0
1.05939 2.4318e-06 1.09069e-06 1.34111e-06 0.551488 0.923141 0 0 0 0 0 0 0 0 0 0 0 0 0 0 0 0 0 0 0 0 0 0 0 0 0 0 0 0 0 0 0 0 0 0 0 0 0 0 0 0 0 0
1.11377 2.40755e-06 1.09267e-06 1.31487e-06 0.546147 0.920109 0 0 0 0 0 0 0 0 0 0 0 0 0 0 0 0 0 0 0 0 0 0 0 0 0 0 0 0 0 0 0 0 0 0 0 0 0 0 0 0 0 0
1.17094 2.43644e-06 1.09356e-06 1.34289e-06 0.551167 0.920076 0 0 0 0 0 0 0 0 0 0 0 0 0 0 0 0 0 0 0 0 0 0 0 0 0 0 0 0 0 0 0 0 0 0 0 0 0 0 0 0 0 0
1.23105 2.45535e-06 1.09571e-06 1.35963e-06 0.553744 0.919302 0 0 0 0 0 0 0 0 0 0 0 0 0 0 0 0 0 0 0 0 0 0 0 0 0 0 0 0 0 0 0 0 0 0 0 0 0 0 0 0 0 0
1.29424 2.41871e-06 1.09585e-06 1.32286e-06 0.546927 0.914653 0 0 0 0 0 0 0 0 0 0 0 0 0 0 0 0 0 0 0 0 0 0 0 0 0 0 0 0 0 0 0 0 0 0 0 0 0 0 0 0 0 0
1.36067 2.45644e-06 1.09651e-06 1.35994e-06 0.553621 0.914556 0 0 0 0 0 0 0 0 0 0 0 0 0 0 0 0 0 0 0 0 0 0 0 0 0 0 0 0 0 0 0 0 0 0 0 0 0 0 0 0 0 0
1.43051 2.49714e-06 1.0972e-06 1.39994e-06 0.560619 0.914775 0 0 0 0 0 0 0 0 0 0 0 0 0 0 0 0 0 0 0 0 0 0 0 0 0 0 0 0 0 0 0 0 0 0 0 0 0 0 0 0 0 0
1.50394 2.44892e-06 1.09675e-06 1.35217e-06 0.55215 0.909371 0 0 0 0 0 0 0 0 0 0 0 0 0 0 0 0 0 0 0 0 0 0 0 0 0 0 0 0 0 0 0 0 0 0 0 0 0 0 0 0 0 0
1.58114 2.44102e-06 1.09693e-06 1.34409e-06 0.550627 0.905928 0 0 0 0 0 0 0 0 0 0 0 0 0 0 0 0 0 0 0 0 0 0 0 0 0 0 0 0 0 0 0 0 0 0 0 0 0 0 0 0 0 0
1.6623 2.52163e-06 1.09825e-06 1.42338e-06 0.564467 0.907937 0 0 0 0 0 0 0 0 0 0 0 0 0 0 0 0 0 0 0 0 0 0 0 0 0 0 0 0 0 0 0 0 0 0 0 0 0 0 0 0 0 0
1.74763 2.54225e-06 1.09281e-06 1.44944e-06 0.57014 0.90557 0 0 0 0 0 0 0 0 0 0 0 0 0 0 0 0 0 0 0 0 0 0 0 0 0 0 0 0 0 0 0 0 0 0 0 0 0 0 0 0 0 0
1.83733 2.47675e-06 1.09529e-06 1.38146e-06 0.557772 0.897016 0 0 0 0 0 0 0 0 0 0 0 0 0 0 0 0 0 0 0 0 0 0 0 0 0 0 0 0 0 0 0 0 0 0 0 0 0 0 0 0 0 0
1.93164 2.4454e-06 1.09121e-06 1.35419e-06 0.553771 0.890595 0 0 0 0 0 0 0 0 0 0 0 0 0 0 0 0 0 0 0 0 0 0 0 0 0 0 0 0 0 0 0 0 0 0 0 0 0 0 0 0 0 0
2.03079 2.53038e-06 1.08805e-06 1.44233e-06 0.570006 0.893841 0 0 0 0 0 0 0 0 0 0 0 0 0 0 0 0 0 0 0 0 0 0 0 0 0 0 0 0 0 0 0 0 0 0 0 0 0 0 0 0 0 0
2.13503 2.62358e-06 1.09193e-06 1.53165e-06 0.5838 0.898048 0 0 0 0 0 0 0 0 0 0 0 0 0 0 0 0 0 0 0 0 0 0 0 0 0 0 0 0 0 0 0 0 0 0 0 0 0 0 0 0 0 0
2.24463 2.60389e-06 1.09035e-06 1.51353e-06 0.581259 0.893964 0 0 0 0 0 0 0 0 0 0 0 0 0 0 0 0 0 0 0 0 0 0 0 0 0 0 0 0 0 0 0 0 0 0 0 0 0 0 0 0 0 0
2.35984 2.50302e-06 1.08804e-06 1.41498e-06 0.565308 0.882108 0 0 0 0 0 0 0 0 0 0 0 0 0 0 0 0 0 0 0 0 0 0 0 0 0 0 0 0 0 0 0 0 0 0 0 0 0 0 0 0 0 0
2.48097 2.44673e-06 1.08323e-06 1.3635e-06 0.557274 0.870172 0 0 0 0 0 0 0 0 0 0 0 0 0 0 0 0 0 0 0 0 0 0 0 0 0 0 0 0 0 0 0 0 0 0 0 0 0 0 0 0 0 0
2.60832 2.51616e-06 1.0816e-06 1.43456e-06 0.57014 0.86855 0 0 0 0 0 0 0 0 0 0 0 0 0 0 0 0 0 0 0 0 0 0 0 0 0 0 0 0 0 0 0 0 0 0 0 0 0 0 0 0 0 0
2.74221 2.65316e-06 1.07931e-06 1.57385e-06 0.593197 0.873594 0 0 0 0 0 0 0 0 0 0 0 0 0 0 0 0 0 0 0 0 0 0 0 0 0 0 0 0 0 0 0 0 0 0 0 0 0 0 0 0 0 0
2.88297 2.74758e-06 1.07585e-06 1.67173e-06 0.608437 0.874634 0 0 0 0 0 0 0 0 0 0 0 0 0 0 0 0 0 0 0 0 0 0 0 0 0 0 0 0 0 0 0 0 0 0 0 0 0 0 0 0 0 0
3.03095 2.72883e-06 1.07456e-06 1.65426e-06 0.606218 0.864504 0 0 0 0 0 0 0 0 0 0 0 0 0 0 0 0 0 0 0 0 0 0 0 0 0 0 0 0 0 0 0 0 0 0 0 0 0 0 0 0 0 0
3.18653 2.62126e-06 1.07889e-06 1.54237e-06 0.58841 0.850344 0 0 0 0 0 0 0 0 0 0 0 0 0 0 0 0 0 0 0 0 0 0 0 0 0 0 0 0 0 0 0 0 0 0 0 0 0 0 0 0 0 0
3.35009 2.5099e-06 1.08052e-06 1.42938e-06 0.569495 0.8379 0 0 0 0 0 0 0 0 0 0 0 0 0 0 0 0 0 0 0 0 0 0 0 0 0 0 0 0 0 0 0 0 0 0 0 0 0 0 0 0 0 0
3.52205 2.4742e-06 1.07112e-06 1.40308e-06 0.567084 0.826419 0 0 0 0 0 0 0 0 0 0 0 0 0 0 0 0 0 0 0 0 0 0 0 0 0 0 0 0 0 0 0 0 0 0 0 0 0 0 0 0 0 0
3.70284 2.54131e-06 1.06628e-06 1.47503e-06 0.58042 0.837433 0 0 0 0 0 0 0 0 0 0 0 0 0 0 0 0 0 0 0 0 0 0 0 0 0 0 0 0 0 0 0 0 0 0 0 0 0 0 0 0 0 0
3.89291 2.70957e-06 1.06871e-06 1.64086e-06 0.605578 0.853059 0 0 0 0 0 0 0 0 0 0 0 0 0 0 0 0 0 0 0 0 0 0 0 0 0 0 0 0 0 0 0 0 0 0 0 0 0 0 0 0 0 0
4.09273 2.91991e-06 1.07828e-06 1.84163e-06 0.630715 0.867848 0 0 0 0 0 0 0 0 0 0 0 0 0 0 0 0 0 0 0 0 0 0 0 0 0 0 0 0 0 0 0 0 0 0 0 0 0 0 0 0 0 0
4.30281 3.0512e-06 1.08334e-06 1.96786e-06 0.644947 0.866518 0 0 0 0 0 0 0 0 0 0 0 0 0 0 0 0 0 0 0 0 0 0 0 0 0 0 0 0 0 0 0 0 0 0 0 0 0 0 0 0 0 0
4.52368 3.00804e-06 1.08987e-06 1.91817e-06 0.63768 0.863476 0 0 0 0 0 0 0 0 0 0 0 0 0 0 0 0 0 0 0 0 0 0 0 0 0 0 0 0 0 0 0 0 0 0 0 0 0 0 0 0 0 0
4.75588 2.9118e-06 1.09746e-06 1.81434e-06 0.6231 0.830144 0 0 0 0 0 0 0 0 0 0 0 0 0 0 0 0 0 0 0 0 0 0 0 0 0 0 0 0 0 0 0 0 0 0 0 0 0 0 0 0 0 0
5 2.65078e-06 1.08259e-06 1.56819e-06 0.591595 0.79468 0 0 0 0 0 0 0 0 0 0 0 0 0 0 0 0 0 0 0 0 0 0 0 0 0 0 0 0 0 0 0 0 0 0 0 0 0 0 0 0 0 0
5.25665 2.4968e-06 1.11376e-06 1.38304e-06 0.553923 0.727158 0 0 0 0 0 0 0 0 0 0 0 0 0 0 0 0 0 0 0 0 0 0 0 0 0 0 0 0 0 0 0 0 0 0 0 0 0 0 0 0 0 0
5.52648 2.36373e-06 1.07205e-06 1.29168e-06 0.546458 0.688101 0 0 0 0 0 0 0 0 0 0 0 0 0 0 0 0 0 0 0 0 0 0 0 0 0 0 0 0 0 0 0 0 0 0 0 0 0 0 0 0 0 0
5.81015 2.52374e-06 1.12778e-06 1.39596e-06 0.553133 0.675134 0 0 0 0 0 0 0 0 0 0 0 0 0 0 0 0 0 0 0 0 0 0 0 0 0 0 0 0 0 0 0 0 0 0 0 0 0 0 0 0 0 0
6.10839 2.70232e-06 1.05917e-06 1.64315e-06 0.608052 0.713621 0 0 0 0 0 0 0 0 0 0 0 0 0 0 0 0 0 0 0 0 0 0 0 0 0 0 0 0 0 0 0 0 0 0 0 0 0 0 0 0 0 0
6.42193 3.18669e-06 1.10616e-06 2.08052e-06 0.65288 0.768986 0 0 0 0 0 0 0 0 0 0 0 0 0 0 0 0 0 0 0 0 0 0 0 0 0 0 0 0 0 0 0 0 0 0 0 0 0 0 0 0 0 0
6.75157 3.50962e-06 1.01372e-06 2.4959e-06 0.711159 0.804691 0 0 0 0 0 0 0 0 0 0 0 0 0 0 0 0 0 0 0 0 0 0 0 0 0 0 0 0 0 0 0 0 0 0 0 0 0 0 0 0 0 0
7.09813 3.82828e-06 9.98337e-07 2.82994e-06 0.73922 0.851317 0 0 0 0 0 0 0 0 0 0 0 0 0 0 0 0 0 0 0 0 0 0 0 0 0 0 0 0 0 0 0 0 0 0 0 0 0 0 0 0 0 0
7.46248 3.371e-06 9.8147e-07 2.38953e-06 0.708849 0.880265 0 0 0 0 0 0 0 0 0 0 0 0 0 0 0 0 0 0 0 0 0 0 0 0 0 0 0 0 0 0 0 0 0 0 0 0 0 0 0 0 0 0
7.84553 2.30496e-06 1.1571e-06 1.14785e-06 0.497993 0.902948 0 0 0 0 0 0 0 0 0 0 0 0 0 0 0 0 0 0 0 0 0 0 0 0 0 0 0 0 0 0 0 0 0 0 0 0 0 0 0 0 0 0
8.24824 2.11899e-06 1.30288e-06 8.16107e-07 0.38514 0.890464 0 0 0 0 0 0 0 0 0 0 0 0 0 0 0 0 0 0 0 0 0 0 0 0 0 0 0 0 0 0 0 0 0 0 0 0 0 0 0 0 0 0
8.67162 2.32047e-06 1.36537e-06 9.55101e-07 0.411599 0.863712 0 0 0 0 0 0 0 0 0 0 0 0 0 0 0 0 0 0 0 0 0 0 0 0 0 0 0 0 0 0 0 0 0 0 0 0 1.4013e-45 0 1.4013e-45 0 4.2039e-45 0
9.11674 2.57769e-06 1.40999e-06 1.1677e-06 0.453003 0.823727 0 0 0 0 0 0 0 0 0 0 0 0 0 0 0 0 0 0 0 0 0 0 0 0 0 0 0 0 1.4013e-45 0 7.00649e-45 0 2.10195e-44 0 5.88545e-44 0 1.55544e-43 0 3.81153e-43 0 8.98232e-43 0
9.5847 2.82142e-06 1.47332e-06 1.3481e-06 0.477808 0.792198 0 0 0 0 0 0 0 0 0 0 0 0 0 0 0 0 0 0 0 0 1.4013e-45 0 7.00649e-45 0 3.08286e-44 0 1.20512e-43 0 4.2039e-43 0 1.33544e-42 0 3.80312e-42 0 1.01818e-41 0 2.56956e-41 0 6.00779e-41 0 1.35826e-40 0
10.0767 2.93607e-06 1.51241e-06 1.42366e-06 0.484887 0.775449 0 0 0 0 0 0 0 0 0 0 0 0 0 0 0 0 5.60519e-45 0 4.48416e-44 0 2.67648e-43 0 1.30321e-42 0 5.42863e-42 0 1.95551e-41 0 6.41346e-41 0 1.92531e-40 0 5.21008e-40 0 1.3293e-39 0 3.20648e-39 0 7.19236e-39 0 1.5626e-38 0
10.5939 3.02022e-06 1.53502e-06 1.48519e-06 0.491751 0.757549 0 0 0 0 0 0 0 0 0 0 0 0 8.40779e-45 0 1.12104e-43 0 1.06779e-42 0 7.38624e-42 0 4.08549e-41 0 1.84006e-40 0 7.14714e-40 0 2.41847e-39 0 7.48492e-39 0 2.12955e-38 0 5.48934e-38 0 1.33794e-37 0 3.09153e-37 0 6.66633e-37 0 1.39448e-36 0
11.1377 3.05455e-06 1.55834e-06 1.49621e-06 0.48983 0.747898 0 0 0 0 0 0 0 0 1.4013e-45 0 6.5861e-44 0 1.43493e-42 0 1.76255e-41 0 1.50466e-40 0 9.47279e-40 0 4.81963e-39 0 2.01691e-38 0 7.33185e-38 0 2.33762e-37 0 6.84645e-37 0 1.85095e-36 0 4.55565e-36 0 1.06311e-35 0 2.35805e-35 0 4.89749e-35 0 9.88207e-35 0
11.7094 3.08061e-06 1.58178e-06 1.49884e-06 0.486538 0.739307 0 0 0 0 0 0 1.4013e-45 0 2.57839e-43 0 1.05574e-41 0 1.96992e-40 0 2.14134e-39 0 1.64629e-38 0 9.47405e-38 0 4.4522e-37 0 1.73738e-36 0 5.93002e-36 0 1.78661e-35 0 4.96519e-35 0 1.27872e-34 0 3.01186e-34 0 6.74361e-34 0 1.43872e-33 0 2.88336e-33 0 5.62197e-33 0
12.3105 3.11093e-06 1.61755e-06 1.49338e-06 0.480043 0.734015 0 0 0 0 0 0 3.37713e-43 0 3.83255e-41 0 1.30974e-39 0 2.11859e-38 0 2.0497e-37 0 1.42647e-36 0 7.53673e-36 0 3.28406e-35 0 1.19911e-34 0 3.85469e-34 0 1.10047e-33 0 2.90945e-33 0 7.15473e-33 0 1.61616e-32 0 3.47898e-32 0 7.15269e-32 0 1.38564e-31 0 2.61506e-31 0
12.9424 3.15778e-06 1.67204e-06 1.48574e-06 0.470502 0.732198 0 0 0 0 5.88545e-44 0 4.95303e-41 0 4.46309e-39 0 1.28368e-37 0 1.81259e-36 0 1.56971e-35 0 9.93694e-35 0 4.84036e-34 0 1.96289e-33 0 6.72797e-33 0 2.04293e-32 0 5.54114e-32 0 1.39706e-31 0 3.2879e-31 0 7.13727e-31 0 1.47993e-30 0 2.93749e-30 0 5.50981e-30 0 1.00809e-29 0
13.6067 3.24948e-06 1.7345e-06 1.51499e-06 0.466224 0.731627 0 0 0 0 9.25418e-42 0 5.65608e-39 0 4.09114e-37 0 9.98713e-36 0 1.2392e-34 0 9.65804e-34 0 5.58719e-33 0 2.5191e-32 0 9.54065e-32 0 3.07926e-31 0 8.85654e-31 0 2.28798e-30 0 5.51392e-30 0 1.24456e-29 0 2.60132e-29 0 5.20524e-29 0 9.99169e-29 0 1.81745e-28 0 3.22861e-28 0
14.3051 3.34129e-06 1.73529e-06 1.606e-06 0.480652 0.728651 0 0 1.12104e-44 0 1.09464e-39 0 4.89151e-37 0 2.87072e-35 0 5.9957e-34 0 6.57874e-33 0 4.63821e-32 0 2.46284e-31 0 1.0317e-30 0 3.66143e-30 0 1.11603e-29 0 3.04853e-29 0 7.51889e-29 0 1.73585e-28 0 3.76534e-28 0 7.5919e-28 0 1.46855e-27 0 2.73062e-27 0 4.8239e-27 0 8.33236e-27 0
15.0394 3.27279e-06 1.70963e-06 1.56315e-06 0.477621 0.727299 0 0 1.82449e-42 0 9.9783e-38 0 3.31006e-35 0 1.59234e-33 0 2.86712e-32 0 2.7987e-31 0 1.79371e-30 0 8.7788e-30 0 3.4291e-29 0 1.14398e-28 0 3.30224e-28 0 8.58852e-28 0 2.02693e-27 0 4.49217e-27 0 9.38274e-27 0 1.82813e-26 0 3.42417e-26 0 6.17696e-26 0 1.06132e-25 0 1.78495e-25 0
15.8114 3.15696e-06 1.71103e-06 1.44593e-06 0.458013 0.716807 1.4013e-45 0 2.27986e-40 0 7.31743e-36 0 1.82837e-33 0 7.28002e-32 0 1.13827e-30 0 9.94136e-30 0 5.81902e-29 0 2.63549e-28 0 9.63196e-28 0 3.02974e-27 0 8.3046e-27 0 2.06139e-26 0 4.66524e-26 0 9.94527e-26 0 2.00388e-25 0 3.77926e-25 0 6.86513e-25 0 1.20326e-24 0 2.0135e-24 0 3.30149e-24 0
