# 4.7315e-05 1 125 : grain size, compostion index, size index
# Heating and cooling timescale: 0.00191791 1.3474e+07
# Ratio of heating to cooling to determine stochastic cutoff: 100
# Equilibrium emission is recorded even for those grains in the stochastic regime.
# Emission spectrum was computed for: 
# Type: IRSF
# Scales: 0.25 0.5 1 1.5 2 2.5 3 3.5 4 4.5 5 5.5 6 6.5 7 7.5 8 8.5 9 9.5 10
# StochasticallyHeated: 0 0 0 0 0 0 0 0 0 0 0 0 0 0 0 0 0 0 0 0 0
# Temperature: -1
# Wavelength  CExt  CAbs  CSca  Albedo G EqEm1 StEm1 EqEm2 StEm2 EqEm3 StEm3 EqEm4 StEm4 EqEm5 StEm5 EqEm6 StEm6 EqEm7 StEm7 EqEm8 StEm8 EqEm9 StEm9 EqEm10 StEm10 EqEm11 StEm11 EqEm12 StEm12 EqEm13 StEm13 EqEm14 StEm14 EqEm15 StEm15 EqEm16 StEm16 EqEm17 StEm17 EqEm18 StEm18 EqEm19 StEm19 EqEm20 StEm20 EqEm21 StEm21
0.05 3.8613e-09 1.71787e-09 2.14343e-09 0.555105 0.214426 0 0 0 0 0 0 0 0 0 0 0 0 0 0 0 0 0 0 0 0 0 0 0 0 0 0 0 0 0 0 0 0 0 0 0 0 0 0 0 0 0 0
0.0525665 4.26788e-09 1.89876e-09 2.36912e-09 0.555105 0.237004 0 0 0 0 0 0 0 0 0 0 0 0 0 0 0 0 0 0 0 0 0 0 0 0 0 0 0 0 0 0 0 0 0 0 0 0 0 0 0 0 0 0
0.0552647 4.71727e-09 2.09869e-09 2.61858e-09 0.555105 0.26196 0 0 0 0 0 0 0 0 0 0 0 0 0 0 0 0 0 0 0 0 0 0 0 0 0 0 0 0 0 0 0 0 0 0 0 0 0 0 0 0 0 0
0.0581015 5.21397e-09 2.31967e-09 2.8943e-09 0.555105 0.289543 0 0 0 0 0 0 0 0 0 0 0 0 0 0 0 0 0 0 0 0 0 0 0 0 0 0 0 0 0 0 0 0 0 0 0 0 0 0 0 0 0 0
0.0610839 5.76298e-09 2.56392e-09 3.19906e-09 0.555105 0.32003 0 0 0 0 0 0 0 0 0 0 0 0 0 0 0 0 0 0 0 0 0 0 0 0 0 0 0 0 0 0 0 0 0 0 0 0 0 0 0 0 0 0
0.0642193 6.36979e-09 2.83389e-09 3.5359e-09 0.555105 0.353728 0 0 0 0 0 0 0 0 0 0 0 0 0 0 0 0 0 0 0 0 0 0 0 0 0 0 0 0 0 0 0 0 0 0 0 0 0 0 0 0 0 0
0.0675157 7.0405e-09 3.13228e-09 3.90822e-09 0.555105 0.390974 0 0 0 0 0 0 0 0 0 0 0 0 0 0 0 0 0 0 0 0 0 0 0 0 0 0 0 0 0 0 0 0 0 0 0 0 0 0 0 0 0 0
0.0709813 7.78183e-09 3.4621e-09 4.31973e-09 0.555105 0.432141 0 0 0 0 0 0 0 0 0 0 0 0 0 0 0 0 0 0 0 0 0 0 0 0 0 0 0 0 0 0 0 0 0 0 0 0 0 0 0 0 0 0
0.0746248 8.60122e-09 3.82664e-09 4.77458e-09 0.555105 0.477644 0 0 0 0 0 0 0 0 0 0 0 0 0 0 0 0 0 0 0 0 0 0 0 0 0 0 0 0 0 0 0 0 0 0 0 0 0 0 0 0 0 0
0.0784553 9.50688e-09 4.22956e-09 5.27732e-09 0.555105 0.527937 0 0 0 0 0 0 0 0 0 0 0 0 0 0 0 0 0 0 0 0 0 0 0 0 0 0 0 0 0 0 0 0 0 0 0 0 0 0 0 0 0 0
0.0824824 1.05079e-08 4.67492e-09 5.83299e-09 0.555105 0.583526 0 0 0 0 0 0 0 0 0 0 0 0 0 0 0 0 0 0 0 0 0 0 0 0 0 0 0 0 0 0 0 0 0 0 0 0 0 0 0 0 0 0
0.0867162 1.16143e-08 5.16717e-09 6.44718e-09 0.555105 0.644969 0 0 0 0 0 0 0 0 0 0 0 0 0 0 0 0 0 0 0 0 0 0 0 0 0 0 0 0 0 0 0 0 0 0 0 0 0 0 0 0 0 0
0.0911674 1.28373e-08 5.71124e-09 7.12604e-09 0.555105 0.712881 0 0 0 0 0 0 0 0 0 0 0 0 0 0 0 0 0 0 0 0 0 0 0 0 0 0 0 0 0 0 0 0 0 0 0 0 0 0 0 0 0 0
0.095847 1.4189e-08 6.31261e-09 7.87638e-09 0.555105 0.787944 0 0 0 0 0 0 0 0 0 0 0 0 0 0 0 0 0 0 0 0 0 0 0 0 0 0 0 0 0 0 0 0 0 0 0 0 0 0 0 0 0 0
0.100767 1.54562e-08 6.8773e-09 8.57885e-09 0.555045 0.857677 0 0 0 0 0 0 0 0 0 0 0 0 0 0 0 0 0 0 0 0 0 0 0 0 0 0 0 0 0 0 0 0 0 0 0 0 0 0 0 0 0 0
0.105939 1.55307e-08 6.91783e-09 8.61287e-09 0.55457 0.86086 0 0 0 0 0 0 0 0 0 0 0 0 0 0 0 0 0 0 0 0 0 0 0 0 0 0 0 0 0 0 0 0 0 0 0 0 0 0 0 0 0 0
0.111377 1.56056e-08 6.96239e-09 8.6432e-09 0.553853 0.865098 0 0 0 0 0 0 0 0 0 0 0 0 0 0 0 0 0 0 0 0 0 0 0 0 0 0 0 0 0 0 0 0 0 0 0 0 0 0 0 0 0 0
0.117094 1.56809e-08 7.00594e-09 8.67499e-09 0.553219 0.86762 0 0 0 0 0 0 0 0 0 0 0 0 0 0 0 0 0 0 0 0 0 0 0 0 0 0 0 0 0 0 0 0 0 0 0 0 0 0 0 0 0 0
0.123105 1.57565e-08 7.05801e-09 8.69845e-09 0.552056 0.868995 0 0 0 0 0 0 0 0 0 0 0 0 0 0 0 0 0 0 0 0 0 0 0 0 0 0 0 0 0 0 0 0 0 0 0 0 0 0 0 0 0 0
0.129424 1.58292e-08 7.1131e-09 8.71609e-09 0.550634 0.869364 0 0 0 0 0 0 0 0 0 0 0 0 0 0 0 0 0 0 0 0 0 0 0 0 0 0 0 0 0 0 0 0 0 0 0 0 0 0 0 0 0 0
0.136067 1.59072e-08 7.15976e-09 8.74741e-09 0.549904 0.868541 0 0 0 0 0 0 0 0 0 0 0 0 0 0 0 0 0 0 0 0 0 0 0 0 0 0 0 0 0 0 0 0 0 0 0 0 0 0 0 0 0 0
0.143051 1.59854e-08 7.2215e-09 8.76388e-09 0.548243 0.865726 0 0 0 0 0 0 0 0 0 0 0 0 0 0 0 0 0 0 0 0 0 0 0 0 0 0 0 0 0 0 0 0 0 0 0 0 0 0 0 0 0 0
0.150394 1.60705e-08 7.30713e-09 8.76332e-09 0.545306 0.866117 0 0 0 0 0 0 0 0 0 0 0 0 0 0 0 0 0 0 0 0 0 0 0 0 0 0 0 0 0 0 0 0 0 0 0 0 0 0 0 0 0 0
0.158114 1.61654e-08 7.41664e-09 8.74874e-09 0.541202 0.871451 0 0 0 0 0 0 0 0 0 0 0 0 0 0 0 0 0 0 0 0 0 0 0 0 0 0 0 0 0 0 0 0 0 0 0 0 0 0 0 0 0 0
0.16623 1.62519e-08 7.54524e-09 8.70669e-09 0.535733 0.878213 0 0 0 0 0 0 0 0 0 0 0 0 0 0 0 0 0 0 0 0 0 0 0 0 0 0 0 0 0 0 0 0 0 0 0 0 0 0 0 0 0 0
0.174762 1.63279e-08 7.66742e-09 8.66053e-09 0.530412 0.884197 0 0 0 0 0 0 0 0 0 0 0 0 0 0 0 0 0 0 0 0 0 0 0 0 0 0 0 0 0 0 0 0 0 0 0 0 0 0 0 0 0 0
0.183733 1.65282e-08 7.71256e-09 8.81566e-09 0.53337 0.887721 0 0 0 0 0 0 0 0 0 0 0 0 0 0 0 0 0 0 0 0 0 0 0 0 0 0 0 0 0 0 0 0 0 0 0 0 0 0 0 0 0 0
0.193164 1.68801e-08 7.65038e-09 9.2297e-09 0.546781 0.883615 0 0 0 0 0 0 0 0 0 0 0 0 0 0 0 0 0 0 0 0 0 0 0 0 0 0 0 0 0 0 0 0 0 0 0 0 0 0 0 0 0 0
0.203079 1.6612e-08 7.67192e-09 8.9401e-09 0.538171 0.862691 0 0 0 0 0 0 0 0 0 0 0 0 0 0 0 0 0 0 0 0 0 0 0 0 0 0 0 0 0 0 0 0 0 0 0 0 0 0 0 0 0 0
0.213503 1.61694e-08 7.69454e-09 8.47485e-09 0.524129 0.85236 0 0 0 0 0 0 0 0 0 0 0 0 0 0 0 0 0 0 0 0 0 0 0 0 0 0 0 0 0 0 0 0 0 0 0 0 0 0 0 0 0 0
0.224463 1.65515e-08 7.69815e-09 8.8534e-09 0.534898 0.830535 0 0 0 0 0 0 0 0 0 0 0 0 0 0 0 0 0 0 0 0 0 0 0 0 0 0 0 0 0 0 0 0 0 0 0 0 0 0 0 0 0 0
0.235984 1.72525e-08 7.73148e-09 9.52102e-09 0.551863 0.814811 0 0 0 0 0 0 0 0 0 0 0 0 0 0 0 0 0 0 0 0 0 0 0 0 0 0 0 0 0 0 0 0 0 0 0 0 0 0 0 0 0 0
0.248097 1.75276e-08 7.76552e-09 9.76208e-09 0.556955 0.825271 0 0 0 0 0 0 0 0 0 0 0 0 0 0 0 0 0 0 0 0 0 0 0 0 0 0 0 0 0 0 0 0 0 0 0 0 0 0 0 0 0 0
0.260832 1.73044e-08 7.80006e-09 9.50433e-09 0.549244 0.826419 0 0 0 0 0 0 0 0 0 0 0 0 0 0 0 0 0 0 0 0 0 0 0 0 0 0 0 0 0 0 0 0 0 0 0 0 0 0 0 0 0 0
0.274221 1.69639e-08 7.83096e-09 9.1329e-09 0.538374 0.80752 0 0 0 0 0 0 0 0 0 0 0 0 0 0 0 0 0 0 0 0 0 0 0 0 0 0 0 0 0 0 0 0 0 0 0 0 0 0 0 0 0 0
0.288297 1.68319e-08 7.83719e-09 8.99476e-09 0.534386 0.785937 0 0 0 0 0 0 0 0 0 0 0 0 0 0 0 0 0 0 0 0 0 0 0 0 0 0 0 0 0 0 0 0 0 0 0 0 0 0 0 0 0 0
0.303095 1.70439e-08 7.85796e-09 9.18598e-09 0.538959 0.765607 0 0 0 0 0 0 0 0 0 0 0 0 0 0 0 0 0 0 0 0 0 0 0 0 0 0 0 0 0 0 0 0 0 0 0 0 0 0 0 0 0 0
0.318653 1.7439e-08 7.8855e-09 9.55346e-09 0.547823 0.769953 0 0 0 0 0 0 0 0 0 0 0 0 0 0 0 0 0 0 0 0 0 0 0 0 0 0 0 0 0 0 0 0 0 0 0 0 0 0 0 0 0 0
0.335009 1.77843e-08 7.82272e-09 9.96162e-09 0.560134 0.79146 0 0 0 0 0 0 0 0 0 0 0 0 0 0 0 0 0 0 0 0 0 0 0 0 0 0 0 0 0 0 0 0 0 0 0 0 0 0 0 0 0 0
0.352205 1.79959e-08 7.8089e-09 1.0187e-08 0.566072 0.813152 0 0 0 0 0 0 0 0 0 0 0 0 0 0 0 0 0 0 0 0 0 0 0 0 0 0 0 0 0 0 0 0 0 0 0 0 0 0 0 0 0 0
0.370284 1.79887e-08 7.78481e-09 1.02039e-08 0.567239 0.826792 0 0 0 0 0 0 0 0 0 0 0 0 0 0 0 0 0 0 0 0 0 0 0 0 0 0 0 0 0 0 0 0 0 0 0 0 0 0 0 0 0 0
0.389291 1.77682e-08 7.66308e-09 1.01051e-08 0.56872 0.822014 0 0 0 0 0 0 0 0 0 0 0 0 0 0 0 0 0 0 0 0 0 0 0 0 0 0 0 0 0 0 0 0 0 0 0 0 0 0 0 0 0 0
0.409273 1.74977e-08 7.65022e-09 9.84745e-09 0.562787 0.807584 0 0 0 0 0 0 0 0 0 0 0 0 0 0 0 0 0 0 0 0 0 0 0 0 0 0 0 0 0 0 0 0 0 0 0 0 0 0 0 0 0 0
0.430281 1.7222e-08 7.50958e-09 9.71247e-09 0.563956 0.773264 0 0 0 0 0 0 0 0 0 0 0 0 0 0 0 0 0 0 0 0 0 0 0 0 0 0 0 0 0 0 0 0 0 0 0 0 0 0 0 0 0 0
0.452368 1.72272e-08 7.43748e-09 9.78972e-09 0.568271 0.719713 0 0 0 0 0 0 0 0 0 0 0 0 0 0 0 0 0 0 0 0 0 0 0 0 0 0 0 0 0 0 0 0 0 0 0 0 0 0 0 0 0 0
0.475588 1.72749e-08 7.26081e-09 1.00141e-08 0.579689 0.657446 0 0 0 0 0 0 0 0 0 0 0 0 0 0 0 0 0 0 0 0 0 0 0 0 0 0 0 0 0 0 0 0 0 0 0 0 0 0 0 0 0 0
0.5 1.78822e-08 7.19839e-09 1.06839e-08 0.597456 0.593471 0 0 0 0 0 0 0 0 0 0 0 0 0 0 0 0 0 0 0 0 0 0 0 0 0 0 0 0 0 0 0 0 0 0 0 0 0 0 0 0 0 0
0.525665 1.84832e-08 7.07299e-09 1.14102e-08 0.617328 0.506706 0 0 0 0 0 0 0 0 0 0 0 0 0 0 0 0 0 0 0 0 0 0 0 0 0 0 0 0 0 0 0 0 0 0 0 0 0 0 0 0 0 0
0.552648 1.9488e-08 6.85502e-09 1.2633e-08 0.648244 0.509017 0 0 0 0 0 0 0 0 0 0 0 0 0 0 0 0 0 0 0 0 0 0 0 0 0 0 0 0 0 0 0 0 0 0 0 0 0 0 0 0 0 0
0.581015 2.0722e-08 6.75439e-09 1.39676e-08 0.674048 0.479239 0 0 0 0 0 0 0 0 0 0 0 0 0 0 0 0 0 0 0 0 0 0 0 0 0 0 0 0 0 0 0 0 0 0 0 0 0 0 0 0 0 0
0.610839 2.17473e-08 6.59089e-09 1.51564e-08 0.696933 0.508093 0 0 0 0 0 0 0 0 0 0 0 0 0 0 0 0 0 0 0 0 0 0 0 0 0 0 0 0 0 0 0 0 0 0 0 0 0 0 0 0 0 0
0.642193 2.30357e-08 6.42689e-09 1.66088e-08 0.721003 0.557018 0 0 0 0 0 0 0 0 0 0 0 0 0 0 0 0 0 0 0 0 0 0 0 0 0 0 0 0 0 0 0 0 0 0 0 0 0 0 0 0 0 0
0.675157 2.42786e-08 6.28082e-09 1.79978e-08 0.741302 0.564631 0 0 0 0 0 0 0 0 0 0 0 0 0 0 0 0 0 0 0 0 0 0 0 0 0 0 0 0 0 0 0 0 0 0 0 0 0 0 0 0 0 0
0.709813 2.52198e-08 6.10331e-09 1.91165e-08 0.757995 0.610344 0 0 0 0 0 0 0 0 0 0 0 0 0 0 0 0 0 0 0 0 0 0 0 0 0 0 0 0 0 0 0 0 0 0 0 0 0 0 0 0 0 0
0.746248 2.59582e-08 5.91221e-09 2.0046e-08 0.772241 0.640883 0 0 0 0 0 0 0 0 0 0 0 0 0 0 0 0 0 0 0 0 0 0 0 0 0 0 0 0 0 0 0 0 0 0 0 0 0 0 0 0 0 0
0.784553 2.64525e-08 5.68159e-09 2.07709e-08 0.785215 0.64554 0 0 0 0 0 0 0 0 0 0 0 0 0 0 0 0 0 0 0 0 0 0 0 0 0 0 0 0 0 0 0 0 0 0 0 0 0 0 0 0 0 0
0.824824 2.67477e-08 5.48267e-09 2.1265e-08 0.795023 0.652917 0 0 0 0 0 0 0 0 0 0 0 0 0 0 0 0 0 0 0 0 0 0 0 0 0 0 0 0 0 0 0 0 0 0 0 0 0 0 0 0 0 0
0.867162 2.69595e-08 5.40024e-09 2.15593e-08 0.799691 0.684386 0 0 0 0 0 0 0 0 0 0 0 0 0 0 0 0 0 0 0 0 0 0 0 0 0 0 0 0 0 0 0 0 0 0 0 0 0 0 0 0 0 0
0.911674 2.67649e-08 5.28672e-09 2.14781e-08 0.802476 0.692987 0 0 0 0 0 0 0 0 0 0 0 0 0 0 0 0 0 0 0 0 0 0 0 0 0 0 0 0 0 0 0 0 0 0 0 0 0 0 0 0 0 0
0.95847 2.60282e-08 5.01127e-09 2.1017e-08 0.807468 0.683191 0 0 0 0 0 0 0 0 0 0 0 0 0 0 0 0 0 0 0 0 0 0 0 0 0 0 0 0 0 0 0 0 0 0 0 0 0 0 0 0 0 0
1.00767 2.51004e-08 4.67297e-09 2.04274e-08 0.813828 0.665833 0 0 0 0 0 0 0 0 0 0 0 0 0 0 0 0 0 0 0 0 0 0 0 0 0 0 0 0 0 0 0 0 0 0 0 0 0 0 0 0 0 0
1.05939 2.42973e-08 4.5249e-09 1.97724e-08 0.81377 0.66758 0 0 0 0 0 0 0 0 0 0 0 0 0 0 0 0 0 0 0 0 0 0 0 0 0 0 0 0 0 0 0 0 0 0 0 0 0 0 0 0 0 0
1.11377 2.34921e-08 4.5157e-09 1.89764e-08 0.807777 0.681526 0 0 0 0 0 0 0 0 0 0 0 0 0 0 0 0 0 0 0 0 0 0 0 0 0 0 0 0 0 0 0 0 0 0 0 0 0 0 0 0 0 0
1.17094 2.23435e-08 4.5158e-09 1.78277e-08 0.797892 0.689595 0 0 0 0 0 0 0 0 0 0 0 0 0 0 0 0 0 0 0 0 0 0 0 0 0 0 0 0 0 0 0 0 0 0 0 0 0 0 0 0 0 0
1.23105 2.07959e-08 4.40816e-09 1.63877e-08 0.788027 0.682766 0 0 0 0 0 0 0 0 0 0 0 0 0 0 0 0 0 0 0 0 0 0 0 0 0 0 0 0 0 0 0 0 0 0 0 0 0 0 0 0 0 0
1.29424 1.91872e-08 4.2026e-09 1.49846e-08 0.780969 0.658647 0 0 0 0 0 0 0 0 0 0 0 0 0 0 0 0 0 0 0 0 0 0 0 0 0 0 0 0 0 0 0 0 0 0 0 0 0 0 0 0 0 0
1.36067 1.78595e-08 4.00293e-09 1.38566e-08 0.775866 0.624237 0 0 0 0 0 0 0 0 0 0 0 0 0 0 0 0 0 0 0 0 0 0 0 0 0 0 0 0 0 0 0 0 0 0 0 0 0 0 0 0 0 0
1.43051 1.66258e-08 3.84461e-09 1.27812e-08 0.768756 0.594213 0 0 0 0 0 0 0 0 0 0 0 0 0 0 0 0 0 0 0 0 0 0 0 0 0 0 0 0 0 0 0 0 0 0 0 0 0 0 0 0 0 0
1.50394 1.55703e-08 3.75808e-09 1.18122e-08 0.758638 0.577322 0 0 0 0 0 0 0 0 0 0 0 0 0 0 0 0 0 0 0 0 0 0 0 0 0 0 0 0 0 0 0 0 0 0 0 0 0 0 0 0 0 0
1.58114 1.4491e-08 3.69774e-09 1.07933e-08 0.744826 0.574235 0 0 0 0 0 0 0 0 0 0 0 0 0 0 0 0 0 0 0 0 0 0 0 0 0 0 0 0 0 0 0 0 0 0 0 0 0 0 0 0 0 0
1.6623 1.33074e-08 3.62044e-09 9.68692e-09 0.727937 0.580589 0 0 0 0 0 0 0 0 0 0 0 0 0 0 0 0 0 0 0 0 0 0 0 0 0 0 0 0 0 0 0 0 0 0 0 0 0 0 0 0 0 0
1.74763 1.20531e-08 3.50605e-09 8.54702e-09 0.709115 0.58867 0 0 0 0 0 0 0 0 0 0 0 0 0 0 0 0 0 0 0 0 0 0 0 0 0 0 0 0 0 0 0 0 0 0 0 0 0 0 0 0 0 0
1.83733 1.08135e-08 3.36044e-09 7.45304e-09 0.689236 0.588938 0 0 0 0 0 0 0 0 0 0 0 0 0 0 0 0 0 0 0 0 0 0 0 0 0 0 0 0 0 0 0 0 0 0 0 0 0 0 0 0 0 0
1.93164 9.67389e-09 3.20569e-09 6.4682e-09 0.668624 0.573108 0 0 0 0 0 0 0 0 0 0 0 0 0 0 0 0 0 0 0 0 0 0 0 0 0 0 0 0 0 0 0 0 0 0 0 0 0 0 0 0 0 0
2.03079 8.68292e-09 3.06448e-09 5.61844e-09 0.647068 0.539581 0 0 0 0 0 0 0 0 0 0 0 0 0 0 0 0 0 0 0 0 0 0 0 0 0 0 0 0 0 0 0 0 0 0 0 0 0 0 0 0 0 0
2.13503 7.83796e-09 2.94666e-09 4.8913e-09 0.624052 0.493181 0 0 0 0 0 0 0 0 0 0 0 0 0 0 0 0 0 0 0 0 0 0 0 0 0 0 0 0 0 0 0 0 0 0 0 0 0 0 0 0 0 0
2.24463 7.11151e-09 2.84868e-09 4.26283e-09 0.599427 0.441528 0 0 0 0 0 0 0 0 0 0 0 0 0 0 0 0 0 0 0 0 0 0 0 0 0 0 0 0 0 0 0 0 0 0 0 0 0 0 0 0 0 0
2.35984 6.47569e-09 2.76706e-09 3.70863e-09 0.572701 0.391 0 0 0 0 0 0 0 0 0 0 0 0 0 0 0 0 0 0 0 0 0 0 0 0 0 0 0 0 0 0 0 0 0 0 0 0 0 0 0 0 0 0
2.48097 5.91449e-09 2.7018e-09 3.21269e-09 0.54319 0.344869 0 0 0 0 0 0 0 0 0 0 0 0 0 0 0 0 0 0 0 0 0 0 0 0 0 0 0 0 0 0 0 0 0 0 0 0 0 0 0 0 0 0
2.60832 5.41813e-09 2.64976e-09 2.76837e-09 0.510946 0.304291 0 0 0 0 0 0 0 0 0 0 0 0 0 0 0 0 0 0 0 0 0 0 0 0 0 0 0 0 0 0 0 0 0 0 0 0 0 0 0 0 0 0
2.74221 4.98246e-09 2.61084e-09 2.37161e-09 0.475993 0.269154 0 0 0 0 0 0 0 0 0 0 0 0 0 0 0 0 0 0 0 0 0 0 0 0 0 0 0 0 0 0 0 0 0 0 0 0 0 0 0 0 0 0
2.88297 4.6063e-09 2.58381e-09 2.02249e-09 0.439071 0.238825 0 0 0 0 0 0 0 0 0 0 0 0 0 0 0 0 0 0 0 0 0 0 0 0 0 0 0 0 0 0 0 0 0 0 0 0 0 0 0 0 0 0
3.03095 4.28939e-09 2.56753e-09 1.72185e-09 0.401421 0.212628 0 0 0 0 0 0 0 0 0 0 0 0 0 0 0 0 0 0 0 0 0 0 0 0 0 0 0 0 0 0 0 0 0 0 0 0 0 0 0 0 0 0
3.18653 3.99596e-09 2.53223e-09 1.46373e-09 0.366303 0.189855 0 0 0 0 0 0 0 0 0 0 0 0 0 0 0 0 0 0 0 0 0 0 0 0 0 0 0 0 0 0 0 0 0 0 0 0 0 0 0 0 0 0
3.35009 3.75466e-09 2.53629e-09 1.21837e-09 0.324497 0.169925 0 0 0 0 0 0 0 0 0 0 0 0 0 0 0 0 0 0 0 0 0 0 0 0 0 0 0 0 0 0 0 0 0 0 0 0 0 0 0 0 0 0
3.52205 3.59968e-09 2.51122e-09 1.08846e-09 0.302377 0.152389 0 0 0 0 0 0 0 0 0 0 0 0 0 0 0 0 0 0 0 0 0 0 0 0 0 0 0 0 0 0 0 0 0 0 0 0 0 0 0 0 0 0
3.70284 3.20878e-09 2.30741e-09 9.01374e-10 0.280909 0.136891 0 0 0 0 0 0 0 0 0 0 0 0 0 0 0 0 0 0 0 0 0 0 0 0 0 0 0 0 0 0 0 0 0 0 0 0 0 0 0 0 0 0
3.89291 2.96677e-09 2.21962e-09 7.47155e-10 0.251841 0.123098 0 0 0 0 0 0 0 0 0 0 0 0 0 0 0 0 0 0 0 0 0 0 0 0 0 0 0 0 0 0 0 0 0 0 0 0 0 0 0 0 0 0
4.09273 2.76299e-09 2.1449e-09 6.18089e-10 0.223703 0.110767 0 0 0 0 0 0 0 0 0 0 0 0 0 0 0 0 0 0 0 0 0 0 0 0 0 0 0 0 0 0 0 0 0 0 0 0 0 0 0 0 0 0
4.30281 2.59309e-09 2.08265e-09 5.10435e-10 0.196844 0.0997124 0 0 0 0 0 0 0 0 0 0 0 0 0 0 0 0 0 0 0 0 0 0 0 0 0 0 0 0 0 0 0 0 0 0 0 0 0 0 0 0 0 0
4.52368 2.45475e-09 2.0335e-09 4.21249e-10 0.171606 0.0897907 0 0 0 0 0 0 0 0 0 0 0 0 0 0 0 0 0 0 0 0 0 0 0 0 0 0 0 0 0 0 0 0 0 0 0 0 0 0 0 0 0 0
4.75588 2.34245e-09 1.99464e-09 3.47806e-10 0.14848 0.0808426 0 0 0 0 0 0 0 0 0 0 0 0 0 0 0 0 0 0 0 0 0 0 0 0 0 0 0 0 0 0 0 0 0 0 0 0 0 0 0 0 0 0
5 2.24802e-09 1.96049e-09 2.87528e-10 0.127903 0.0727413 0 0 0 0 0 0 0 0 0 0 0 0 0 0 0 0 0 0 0 0 0 0 0 0 0 0 0 0 0 0 0 0 0 0 0 0 0 0 0 0 0 0
5.25665 2.16387e-09 1.92606e-09 2.37811e-10 0.109901 0.0654005 0 0 0 0 0 0 0 0 0 0 0 0 0 0 0 0 0 0 0 0 0 0 0 0 0 0 0 0 0 0 0 0 0 0 0 0 0 0 0 0 0 0
5.52648 2.08797e-09 1.89141e-09 1.96565e-10 0.0941414 0.058767 0 0 0 0 0 0 0 0 0 0 0 0 0 0 0 0 0 0 0 0 0 0 0 0 0 0 0 0 0 0 0 0 0 0 0 0 0 0 0 0 0 0
5.81015 2.0171e-09 1.8549e-09 1.62205e-10 0.0804147 0.0527264 0 0 0 0 0 0 0 0 0 0 0 0 0 0 0 0 0 0 0 0 0 0 0 0 0 0 0 0 0 0 0 0 0 0 0 0 0 0 0 0 0 0
6.10839 1.95203e-09 1.81851e-09 1.33515e-10 0.0683979 0.0472365 0 0 0 0 0 0 0 0 0 0 0 0 0 0 0 0 0 0 0 0 0 0 0 0 0 0 0 0 0 0 0 0 0 0 0 0 1.4013e-45 0 4.2039e-45 0 9.80909e-45 0
6.42193 1.89092e-09 1.78148e-09 1.09439e-10 0.0578762 0.0422255 0 0 0 0 0 0 0 0 0 0 0 0 0 0 0 0 0 0 0 0 0 0 0 0 0 0 0 0 2.8026e-45 0 8.40779e-45 0 2.8026e-44 0 8.26766e-44 0 2.21405e-43 0 5.56315e-43 0 1.30601e-42 0
6.75157 1.83907e-09 1.75013e-09 8.89372e-11 0.0483599 0.037606 0 0 0 0 0 0 0 0 0 0 0 0 0 0 0 0 0 0 0 0 1.4013e-45 0 5.60519e-45 0 2.66247e-44 0 1.06499e-43 0 3.85357e-43 0 1.24716e-42 0 3.72465e-42 0 1.03037e-41 0 2.65154e-41 0 6.36932e-41 0 1.43273e-40 0
7.09813 1.77787e-09 1.70562e-09 7.22481e-11 0.0406375 0.0332606 0 0 0 0 0 0 0 0 0 0 0 0 0 0 0 0 2.8026e-45 0 2.52234e-44 0 1.56945e-43 0 8.00141e-43 0 3.46401e-42 0 1.28905e-41 0 4.39293e-41 0 1.34274e-40 0 3.80104e-40 0 1.00066e-39 0 2.45899e-39 0 5.65948e-39 0 1.22366e-38 0
7.46248 1.72283e-09 1.66567e-09 5.71682e-11 0.0331826 0.029051 0 0 0 0 0 0 0 0 0 0 0 0 2.8026e-45 0 4.34403e-44 0 4.35804e-43 0 3.21318e-42 0 1.84635e-41 0 8.70024e-41 0 3.50808e-40 0 1.2242e-39 0 3.92974e-39 0 1.13737e-38 0 3.0602e-38 0 7.68438e-38 0 1.80724e-37 0 3.99356e-37 0 8.3156e-37 0
7.84553 1.66641e-09 1.62328e-09 4.31274e-11 0.0258804 0.0250649 0 0 0 0 0 0 0 0 0 0 1.68156e-44 0 3.93765e-43 0 5.37818e-42 0 4.81178e-41 0 3.21532e-40 0 1.6967e-39 0 7.4121e-39 0 2.79198e-38 0 9.16631e-38 0 2.77955e-37 0 7.63801e-37 0 1.95813e-36 0 4.70086e-36 0 1.06035e-35 0 2.25415e-35 0 4.52859e-35 0
8.24824 1.81237e-09 1.78087e-09 3.14954e-11 0.017378 0.0216659 0 0 0 0 0 0 0 0 5.32493e-44 0 2.38221e-42 0 4.84723e-41 0 5.83002e-40 0 4.68657e-39 0 2.85426e-38 0 1.38869e-37 0 5.64518e-37 0 1.99309e-36 0 6.17451e-36 0 1.77362e-35 0 4.63908e-35 0 1.13587e-34 0 2.61274e-34 0 5.66398e-34 0 1.16055e-33 0 2.25346e-33 0
8.67162 2.16359e-09 2.13642e-09 2.71652e-11 0.0125556 0.0189068 0 0 0 0 0 0 5.88545e-44 0 7.84167e-42 0 2.91634e-40 0 5.12107e-39 0 5.45498e-38 0 3.9608e-37 0 2.20858e-36 0 9.94664e-36 0 3.77582e-35 0 1.25347e-34 0 3.67462e-34 0 1.00253e-33 0 2.50196e-33 0 5.86395e-33 0 1.29507e-32 0 2.70342e-32 0 5.34863e-32 0 1.00545e-31 0
9.11674 2.93685e-09 2.90464e-09 3.22056e-11 0.010966 0.0161561 0 0 0 0 8.40779e-45 0 9.76845e-42 0 1.02273e-39 0 3.18825e-38 0 4.86757e-37 0 4.61935e-36 0 3.04463e-35 0 1.56108e-34 0 6.53249e-34 0 2.32343e-33 0 7.27425e-33 0 2.0234e-32 0 5.25635e-32 0 1.25451e-31 0 2.8205e-31 0 5.99278e-31 0 1.20682e-30 0 2.30943e-30 0 4.20958e-30 0
9.5847 3.60982e-09 3.56468e-09 4.51431e-11 0.0125056 0.0143563 0 0 0 0 1.46856e-42 0 1.14104e-39 0 9.51926e-38 0 2.50876e-36 0 3.35292e-35 0 2.85087e-34 0 1.71374e-33 0 8.11292e-33 0 3.16577e-32 0 1.05834e-31 0 3.13389e-31 0 8.29249e-31 0 2.0561e-30 0 4.70317e-30 0 1.0164e-29 0 2.08154e-29 0 4.05094e-29 0 7.51028e-29 0 1.32941e-28 0
10.0767 3.55475e-09 3.50425e-09 5.05004e-11 0.0142064 0.0135165 0 0 1.4013e-45 0 1.50441e-40 0 8.44309e-38 0 5.6754e-36 0 1.27491e-34 0 1.50131e-33 0 1.14985e-32 0 6.33252e-32 0 2.77869e-31 0 1.01455e-30 0 3.19762e-30 0 8.97982e-30 0 2.26587e-29 0 5.37454e-29 0 1.18071e-28 0 2.45739e-28 0 4.85956e-28 0 9.15481e-28 0 1.64687e-27 0 2.83501e-27 0
10.5939 3.05856e-09 3.01327e-09 4.52916e-11 0.0148081 0.0131889 0 0 1.30321e-43 0 1.06102e-38 0 4.37156e-36 0 2.39279e-34 0 4.61749e-33 0 4.82064e-32 0 3.34277e-31 0 1.69382e-30 0 6.91468e-30 0 2.36998e-29 0 7.06249e-29 0 1.88583e-28 0 4.54827e-28 0 1.03428e-27 0 2.1865e-27 0 4.39076e-27 0 8.39856e-27 0 1.53401e-26 0 2.68156e-26 0 4.49538e-26 0
11.1377 2.56682e-09 2.52856e-09 3.82566e-11 0.0149043 0.0134685 0 0 1.24001e-41 0 5.81727e-37 0 1.78633e-34 0 8.04198e-33 0 1.34307e-31 0 1.25044e-30 0 7.88864e-30 0 3.69278e-29 0 1.40745e-28 0 4.5424e-28 0 1.28335e-27 0 3.26637e-27 0 7.54641e-27 0 1.64859e-26 0 3.3601e-26 0 6.52165e-26 0 1.20857e-25 0 2.14349e-25 0 3.64617e-25 0 5.9602e-25 0
11.7094 2.05938e-09 2.02944e-09 2.99419e-11 0.0145393 0.01356 8.40779e-45 0 8.85618e-40 0 2.45728e-35 0 5.70507e-33 0 2.13273e-31 0 3.10437e-30 0 2.59195e-29 0 1.49455e-28 0 6.48833e-28 0 2.31655e-27 0 7.06074e-27 0 1.89621e-26 0 4.61104e-26 0 1.02263e-25 0 2.1504e-25 0 4.23313e-25 0 7.95437e-25 0 1.43034e-24 0 2.46682e-24 0 4.08874e-24 0 6.52519e-24 0
12.3105 1.64417e-09 1.62191e-09 2.22663e-11 0.0135426 0.0135266 8.56193e-43 0 4.99715e-38 0 8.41386e-34 0 1.49725e-31 0 4.69012e-30 0 5.99014e-29 0 4.50912e-28 0 2.38686e-27 0 9.64533e-27 0 3.23623e-26 0 9.34152e-26 0 2.3906e-25 0 5.56644e-25 0 1.18743e-24 0 2.40796e-24 0 4.58594e-24 0 8.35599e-24 0 1.46012e-23 0 2.45206e-23 0 3.96524e-23 0 6.18531e-23 0
12.9424 1.47717e-09 1.46104e-09 1.61216e-11 0.0109138 0.01298 7.46584e-41 0 2.55042e-36 0 2.67018e-32 0 3.68952e-30 0 9.76844e-29 0 1.10171e-27 0 7.51484e-27 0 3.66707e-26 0 1.3842e-25 0 4.37777e-25 0 1.19992e-24 0 2.93304e-24 0 6.55339e-24 0 1.3472e-23 0 2.63926e-23 0 4.87082e-23 0 8.61885e-23 0 1.46557e-22 0 2.39969e-22 0 3.79055e-22 0 5.78584e-22 0
