# 1.9953e-05 1 110 : grain size, compostion index, size index
# Heating and cooling timescale: 0.0265906 1.86054e+06
# Ratio of heating to cooling to determine stochastic cutoff: 100
# Equilibrium emission is recorded even for those grains in the stochastic regime.
# Emission spectrum was computed for: 
# Type: IRSF
# Scales: 0.25 0.5 1 1.5 2 2.5 3 3.5 4 4.5 5 5.5 6 6.5 7 7.5 8 8.5 9 9.5 10
# StochasticallyHeated: 0 0 0 0 0 0 0 0 0 0 0 0 0 0 0 0 0 0 0 0 0
# Temperature: -1
# Wavelength  CExt  CAbs  CSca  Albedo G EqEm1 StEm1 EqEm2 StEm2 EqEm3 StEm3 EqEm4 StEm4 EqEm5 StEm5 EqEm6 StEm6 EqEm7 StEm7 EqEm8 StEm8 EqEm9 StEm9 EqEm10 StEm10 EqEm11 StEm11 EqEm12 StEm12 EqEm13 StEm13 EqEm14 StEm14 EqEm15 StEm15 EqEm16 StEm16 EqEm17 StEm17 EqEm18 StEm18 EqEm19 StEm19 EqEm20 StEm20 EqEm21 StEm21
0.05 7.36475e-10 3.40926e-10 3.95549e-10 0.537084 0.21205 0 0 0 0 0 0 0 0 0 0 0 0 0 0 0 0 0 0 0 0 0 0 0 0 0 0 0 0 0 0 0 0 0 0 0 0 0 0 0 0 0 0
0.0525665 8.14022e-10 3.76824e-10 4.37198e-10 0.537084 0.234378 0 0 0 0 0 0 0 0 0 0 0 0 0 0 0 0 0 0 0 0 0 0 0 0 0 0 0 0 0 0 0 0 0 0 0 0 0 0 0 0 0 0
0.0552647 8.99735e-10 4.16502e-10 4.83233e-10 0.537084 0.259057 0 0 0 0 0 0 0 0 0 0 0 0 0 0 0 0 0 0 0 0 0 0 0 0 0 0 0 0 0 0 0 0 0 0 0 0 0 0 0 0 0 0
0.0581015 9.94472e-10 4.60357e-10 5.34115e-10 0.537084 0.286335 0 0 0 0 0 0 0 0 0 0 0 0 0 0 0 0 0 0 0 0 0 0 0 0 0 0 0 0 0 0 0 0 0 0 0 0 0 0 0 0 0 0
0.0610839 1.09919e-09 5.08831e-10 5.90355e-10 0.537084 0.316484 0 0 0 0 0 0 0 0 0 0 0 0 0 0 0 0 0 0 0 0 0 0 0 0 0 0 0 0 0 0 0 0 0 0 0 0 0 0 0 0 0 0
0.0642193 1.21492e-09 5.62408e-10 6.52516e-10 0.537084 0.349809 0 0 0 0 0 0 0 0 0 0 0 0 0 0 0 0 0 0 0 0 0 0 0 0 0 0 0 0 0 0 0 0 0 0 0 0 0 0 0 0 0 0
0.0675157 1.34285e-09 6.21627e-10 7.21223e-10 0.537084 0.386642 0 0 0 0 0 0 0 0 0 0 0 0 0 0 0 0 0 0 0 0 0 0 0 0 0 0 0 0 0 0 0 0 0 0 0 0 0 0 0 0 0 0
0.0709813 1.48425e-09 6.87081e-10 7.97165e-10 0.537084 0.427353 0 0 0 0 0 0 0 0 0 0 0 0 0 0 0 0 0 0 0 0 0 0 0 0 0 0 0 0 0 0 0 0 0 0 0 0 0 0 0 0 0 0
0.0746248 1.64053e-09 7.59427e-10 8.81102e-10 0.537084 0.472351 0 0 0 0 0 0 0 0 0 0 0 0 0 0 0 0 0 0 0 0 0 0 0 0 0 0 0 0 0 0 0 0 0 0 0 0 0 0 0 0 0 0
0.0784553 1.81327e-09 8.39391e-10 9.73878e-10 0.537084 0.522088 0 0 0 0 0 0 0 0 0 0 0 0 0 0 0 0 0 0 0 0 0 0 0 0 0 0 0 0 0 0 0 0 0 0 0 0 0 0 0 0 0 0
0.0824824 2.0042e-09 9.27775e-10 1.07642e-09 0.537084 0.577061 0 0 0 0 0 0 0 0 0 0 0 0 0 0 0 0 0 0 0 0 0 0 0 0 0 0 0 0 0 0 0 0 0 0 0 0 0 0 0 0 0 0
0.0867162 2.21523e-09 1.02547e-09 1.18977e-09 0.537084 0.637823 0 0 0 0 0 0 0 0 0 0 0 0 0 0 0 0 0 0 0 0 0 0 0 0 0 0 0 0 0 0 0 0 0 0 0 0 0 0 0 0 0 0
0.0911674 2.44848e-09 1.13344e-09 1.31504e-09 0.537084 0.704983 0 0 0 0 0 0 0 0 0 0 0 0 0 0 0 0 0 0 0 0 0 0 0 0 0 0 0 0 0 0 0 0 0 0 0 0 0 0 0 0 0 0
0.095847 2.7063e-09 1.25279e-09 1.45351e-09 0.537084 0.779214 0 0 0 0 0 0 0 0 0 0 0 0 0 0 0 0 0 0 0 0 0 0 0 0 0 0 0 0 0 0 0 0 0 0 0 0 0 0 0 0 0 0
0.100767 2.94891e-09 1.36611e-09 1.5828e-09 0.53674 0.848039 0 0 0 0 0 0 0 0 0 0 0 0 0 0 0 0 0 0 0 0 0 0 0 0 0 0 0 0 0 0 0 0 0 0 0 0 0 0 0 0 0 0
0.105939 2.96935e-09 1.38207e-09 1.58728e-09 0.534555 0.850197 0 0 0 0 0 0 0 0 0 0 0 0 0 0 0 0 0 0 0 0 0 0 0 0 0 0 0 0 0 0 0 0 0 0 0 0 0 0 0 0 0 0
0.111377 2.98946e-09 1.39874e-09 1.59072e-09 0.532109 0.853369 0 0 0 0 0 0 0 0 0 0 0 0 0 0 0 0 0 0 0 0 0 0 0 0 0 0 0 0 0 0 0 0 0 0 0 0 0 0 0 0 0 0
0.117094 3.00935e-09 1.41514e-09 1.5942e-09 0.52975 0.854842 0 0 0 0 0 0 0 0 0 0 0 0 0 0 0 0 0 0 0 0 0 0 0 0 0 0 0 0 0 0 0 0 0 0 0 0 0 0 0 0 0 0
0.123105 3.02858e-09 1.43308e-09 1.5955e-09 0.526815 0.855141 0 0 0 0 0 0 0 0 0 0 0 0 0 0 0 0 0 0 0 0 0 0 0 0 0 0 0 0 0 0 0 0 0 0 0 0 0 0 0 0 0 0
0.129424 3.04682e-09 1.45222e-09 1.5946e-09 0.523366 0.854396 0 0 0 0 0 0 0 0 0 0 0 0 0 0 0 0 0 0 0 0 0 0 0 0 0 0 0 0 0 0 0 0 0 0 0 0 0 0 0 0 0 0
0.136067 3.06638e-09 1.46961e-09 1.59676e-09 0.520732 0.852402 0 0 0 0 0 0 0 0 0 0 0 0 0 0 0 0 0 0 0 0 0 0 0 0 0 0 0 0 0 0 0 0 0 0 0 0 0 0 0 0 0 0
0.143051 3.08671e-09 1.49099e-09 1.59572e-09 0.516963 0.848364 0 0 0 0 0 0 0 0 0 0 0 0 0 0 0 0 0 0 0 0 0 0 0 0 0 0 0 0 0 0 0 0 0 0 0 0 0 0 0 0 0 0
0.150394 3.11112e-09 1.51848e-09 1.59264e-09 0.511917 0.847464 0 0 0 0 0 0 0 0 0 0 0 0 0 0 0 0 0 0 0 0 0 0 0 0 0 0 0 0 0 0 0 0 0 0 0 0 0 0 0 0 0 0
0.158114 3.14267e-09 1.55034e-09 1.59233e-09 0.506681 0.851729 0 0 0 0 0 0 0 0 0 0 0 0 0 0 0 0 0 0 0 0 0 0 0 0 0 0 0 0 0 0 0 0 0 0 0 0 0 0 0 0 0 0
0.16623 3.1383e-09 1.57221e-09 1.56609e-09 0.499024 0.852494 0 0 0 0 0 0 0 0 0 0 0 0 0 0 0 0 0 0 0 0 0 0 0 0 0 0 0 0 0 0 0 0 0 0 0 0 0 0 0 0 0 0
0.174762 3.16876e-09 1.56621e-09 1.60254e-09 0.505733 0.83455 0 0 0 0 0 0 0 0 0 0 0 0 0 0 0 0 0 0 0 0 0 0 0 0 0 0 0 0 0 0 0 0 0 0 0 0 0 0 0 0 0 0
0.183733 3.29305e-09 1.48931e-09 1.80373e-09 0.54774 0.810387 0 0 0 0 0 0 0 0 0 0 0 0 0 0 0 0 0 0 0 0 0 0 0 0 0 0 0 0 0 0 0 0 0 0 0 0 0 0 0 0 0 0
0.193164 3.30328e-09 1.38635e-09 1.91694e-09 0.580313 0.80923 0 0 0 0 0 0 0 0 0 0 0 0 0 0 0 0 0 0 0 0 0 0 0 0 0 0 0 0 0 0 0 0 0 0 0 0 0 0 0 0 0 0
0.203079 3.14431e-09 1.33543e-09 1.80888e-09 0.575287 0.802708 0 0 0 0 0 0 0 0 0 0 0 0 0 0 0 0 0 0 0 0 0 0 0 0 0 0 0 0 0 0 0 0 0 0 0 0 0 0 0 0 0 0
0.213503 3.06252e-09 1.29883e-09 1.76369e-09 0.575894 0.757921 0 0 0 0 0 0 0 0 0 0 0 0 0 0 0 0 0 0 0 0 0 0 0 0 0 0 0 0 0 0 0 0 0 0 0 0 0 0 0 0 0 0
0.224463 3.08664e-09 1.2768e-09 1.80984e-09 0.586347 0.649136 0 0 0 0 0 0 0 0 0 0 0 0 0 0 0 0 0 0 0 0 0 0 0 0 0 0 0 0 0 0 0 0 0 0 0 0 0 0 0 0 0 0
0.235984 3.22254e-09 1.2252e-09 1.99734e-09 0.619804 0.541709 0 0 0 0 0 0 0 0 0 0 0 0 0 0 0 0 0 0 0 0 0 0 0 0 0 0 0 0 0 0 0 0 0 0 0 0 0 0 0 0 0 0
0.248097 3.48698e-09 1.20001e-09 2.28697e-09 0.655859 0.469557 0 0 0 0 0 0 0 0 0 0 0 0 0 0 0 0 0 0 0 0 0 0 0 0 0 0 0 0 0 0 0 0 0 0 0 0 0 0 0 0 0 0
0.260832 3.71416e-09 1.16978e-09 2.54438e-09 0.685048 0.436618 0 0 0 0 0 0 0 0 0 0 0 0 0 0 0 0 0 0 0 0 0 0 0 0 0 0 0 0 0 0 0 0 0 0 0 0 0 0 0 0 0 0
0.274221 4.00411e-09 1.14014e-09 2.86397e-09 0.715258 0.449593 0 0 0 0 0 0 0 0 0 0 0 0 0 0 0 0 0 0 0 0 0 0 0 0 0 0 0 0 0 0 0 0 0 0 0 0 0 0 0 0 0 0
0.288297 4.27756e-09 1.114e-09 3.16356e-09 0.739571 0.519897 0 0 0 0 0 0 0 0 0 0 0 0 0 0 0 0 0 0 0 0 0 0 0 0 0 0 0 0 0 0 0 0 0 0 0 0 0 0 0 0 0 0
0.303095 4.47853e-09 1.08138e-09 3.39715e-09 0.758542 0.542306 0 0 0 0 0 0 0 0 0 0 0 0 0 0 0 0 0 0 0 0 0 0 0 0 0 0 0 0 0 0 0 0 0 0 0 0 0 0 0 0 0 0
0.318653 4.63116e-09 1.04503e-09 3.58613e-09 0.774348 0.586678 0 0 0 0 0 0 0 0 0 0 0 0 0 0 0 0 0 0 0 0 0 0 0 0 0 0 0 0 0 0 0 0 0 0 0 0 0 0 0 0 0 0
0.335009 4.72351e-09 1.00175e-09 3.72176e-09 0.787923 0.62407 0 0 0 0 0 0 0 0 0 0 0 0 0 0 0 0 0 0 0 0 0 0 0 0 0 0 0 0 0 0 0 0 0 0 0 0 0 0 0 0 0 0
0.352205 4.77831e-09 9.69348e-10 3.80896e-09 0.797136 0.638061 0 0 0 0 0 0 0 0 0 0 0 0 0 0 0 0 0 0 0 0 0 0 0 0 0 0 0 0 0 0 0 0 0 0 0 0 0 0 0 0 0 0
0.370284 4.80545e-09 9.56636e-10 3.84882e-09 0.800927 0.663618 0 0 0 0 0 0 0 0 0 0 0 0 0 0 0 0 0 0 0 0 0 0 0 0 0 0 0 0 0 0 0 0 0 0 0 0 0 0 0 0 0 0
0.389291 4.74122e-09 9.29289e-10 3.81193e-09 0.803998 0.673276 0 0 0 0 0 0 0 0 0 0 0 0 0 0 0 0 0 0 0 0 0 0 0 0 0 0 0 0 0 0 0 0 0 0 0 0 0 0 0 0 0 0
0.409273 4.59089e-09 8.73913e-10 3.71698e-09 0.809642 0.669453 0 0 0 0 0 0 0 0 0 0 0 0 0 0 0 0 0 0 0 0 0 0 0 0 0 0 0 0 0 0 0 0 0 0 0 0 0 0 0 0 0 0
0.430281 4.43288e-09 8.17131e-10 3.61575e-09 0.815666 0.663891 0 0 0 0 0 0 0 0 0 0 0 0 0 0 0 0 0 0 0 0 0 0 0 0 0 0 0 0 0 0 0 0 0 0 0 0 0 0 0 0 0 0
0.452368 4.30616e-09 7.84787e-10 3.52137e-09 0.817752 0.666831 0 0 0 0 0 0 0 0 0 0 0 0 0 0 0 0 0 0 0 0 0 0 0 0 0 0 0 0 0 0 0 0 0 0 0 0 0 0 0 0 0 0
0.475588 4.16079e-09 7.70361e-10 3.39043e-09 0.814852 0.678764 0 0 0 0 0 0 0 0 0 0 0 0 0 0 0 0 0 0 0 0 0 0 0 0 0 0 0 0 0 0 0 0 0 0 0 0 0 0 0 0 0 0
0.5 3.93672e-09 7.49325e-10 3.1874e-09 0.809658 0.682898 0 0 0 0 0 0 0 0 0 0 0 0 0 0 0 0 0 0 0 0 0 0 0 0 0 0 0 0 0 0 0 0 0 0 0 0 0 0 0 0 0 0
0.525665 3.64649e-09 7.07451e-10 2.93904e-09 0.805991 0.670923 0 0 0 0 0 0 0 0 0 0 0 0 0 0 0 0 0 0 0 0 0 0 0 0 0 0 0 0 0 0 0 0 0 0 0 0 0 0 0 0 0 0
0.552648 3.3586e-09 6.54534e-10 2.70407e-09 0.805117 0.645903 0 0 0 0 0 0 0 0 0 0 0 0 0 0 0 0 0 0 0 0 0 0 0 0 0 0 0 0 0 0 0 0 0 0 0 0 0 0 0 0 0 0
0.581015 3.11798e-09 6.08166e-10 2.50981e-09 0.804949 0.61512 0 0 0 0 0 0 0 0 0 0 0 0 0 0 0 0 0 0 0 0 0 0 0 0 0 0 0 0 0 0 0 0 0 0 0 0 0 0 0 0 0 0
0.610839 2.92016e-09 5.75901e-10 2.34426e-09 0.802784 0.58949 0 0 0 0 0 0 0 0 0 0 0 0 0 0 0 0 0 0 0 0 0 0 0 0 0 0 0 0 0 0 0 0 0 0 0 0 0 0 0 0 0 0
0.642193 2.73444e-09 5.5405e-10 2.18039e-09 0.797381 0.576514 0 0 0 0 0 0 0 0 0 0 0 0 0 0 0 0 0 0 0 0 0 0 0 0 0 0 0 0 0 0 0 0 0 0 0 0 0 0 0 0 0 0
0.675157 2.53095e-09 5.3455e-10 1.9964e-09 0.788794 0.576147 0 0 0 0 0 0 0 0 0 0 0 0 0 0 0 0 0 0 0 0 0 0 0 0 0 0 0 0 0 0 0 0 0 0 0 0 0 0 0 0 0 0
0.709813 2.30105e-09 5.10441e-10 1.79061e-09 0.77817 0.582608 0 0 0 0 0 0 0 0 0 0 0 0 0 0 0 0 0 0 0 0 0 0 0 0 0 0 0 0 0 0 0 0 0 0 0 0 0 0 0 0 0 0
0.746248 2.05663e-09 4.79067e-10 1.57757e-09 0.767062 0.587523 0 0 0 0 0 0 0 0 0 0 0 0 0 0 0 0 0 0 0 0 0 0 0 0 0 0 0 0 0 0 0 0 0 0 0 0 0 0 0 0 0 0
0.784553 1.81708e-09 4.42386e-10 1.37469e-09 0.75654 0.582455 0 0 0 0 0 0 0 0 0 0 0 0 0 0 0 0 0 0 0 0 0 0 0 0 0 0 0 0 0 0 0 0 0 0 0 0 0 0 0 0 0 0
0.824824 1.599e-09 4.0447e-10 1.19453e-09 0.747049 0.561921 0 0 0 0 0 0 0 0 0 0 0 0 0 0 0 0 0 0 0 0 0 0 0 0 0 0 0 0 0 0 0 0 0 0 0 0 0 0 0 0 0 0
0.867162 1.40829e-09 3.68616e-10 1.03967e-09 0.738253 0.526134 0 0 0 0 0 0 0 0 0 0 0 0 0 0 0 0 0 0 0 0 0 0 0 0 0 0 0 0 0 0 0 0 0 0 0 0 0 0 0 0 0 0
0.911674 1.24284e-09 3.36808e-10 9.0603e-10 0.729001 0.47984 0 0 0 0 0 0 0 0 0 0 0 0 0 0 0 0 0 0 0 0 0 0 0 0 0 0 0 0 0 0 0 0 0 0 0 0 0 0 0 0 0 0
0.95847 1.0978e-09 3.09208e-10 7.88597e-10 0.71834 0.42958 0 0 0 0 0 0 0 0 0 0 0 0 0 0 0 0 0 0 0 0 0 0 0 0 0 0 0 0 0 0 0 0 0 0 0 0 0 0 0 0 0 0
1.00767 9.67178e-10 2.84973e-10 6.82204e-10 0.705356 0.380755 0 0 0 0 0 0 0 0 0 0 0 0 0 0 0 0 0 0 0 0 0 0 0 0 0 0 0 0 0 0 0 0 0 0 0 0 0 0 0 0 0 0
1.05939 8.55546e-10 2.6928e-10 5.86266e-10 0.685253 0.336343 0 0 0 0 0 0 0 0 0 0 0 0 0 0 0 0 0 0 0 0 0 0 0 0 0 0 0 0 0 0 0 0 0 0 0 0 0 0 0 0 0 0
1.11377 7.57663e-10 2.56264e-10 5.01399e-10 0.66177 0.297243 0 0 0 0 0 0 0 0 0 0 0 0 0 0 0 0 0 0 0 0 0 0 0 0 0 0 0 0 0 0 0 0 0 0 0 0 0 0 0 0 0 0
1.17094 6.72129e-10 2.45344e-10 4.26785e-10 0.634975 0.263318 0 0 0 0 0 0 0 0 0 0 0 0 0 0 0 0 0 0 0 0 0 0 0 0 0 0 0 0 0 0 0 0 0 0 0 0 0 0 0 0 0 0
1.23105 5.96298e-10 2.35526e-10 3.60772e-10 0.605019 0.234034 0 0 0 0 0 0 0 0 0 0 0 0 0 0 0 0 0 0 0 0 0 0 0 0 0 0 0 0 0 0 0 0 0 0 0 0 0 0 0 0 0 0
1.29424 5.29224e-10 2.25867e-10 3.03357e-10 0.573211 0.208714 0 0 0 0 0 0 0 0 0 0 0 0 0 0 0 0 0 0 0 0 0 0 0 0 0 0 0 0 0 0 0 0 0 0 0 0 0 0 0 0 0 0
1.36067 4.71422e-10 2.16354e-10 2.55068e-10 0.54106 0.186708 0 0 0 0 0 0 0 0 0 0 0 0 0 0 0 0 0 0 0 0 0 0 0 0 0 0 0 0 0 0 0 0 0 0 0 0 0 0 0 0 0 0
1.43051 4.17201e-10 2.0637e-10 2.10832e-10 0.505347 0.167413 0 0 0 0 0 0 0 0 0 0 0 0 0 0 0 0 0 0 0 0 0 0 0 0 0 0 0 0 0 0 0 0 0 0 0 0 0 0 0 0 0 0
1.50394 3.71483e-10 1.96922e-10 1.7456e-10 0.469902 0.150444 0 0 0 0 0 0 0 0 0 0 0 0 0 0 0 0 0 0 0 0 0 0 0 0 0 0 0 0 0 0 0 0 0 0 0 0 0 0 0 0 0 0
1.58114 3.32362e-10 1.88097e-10 1.44265e-10 0.43406 0.135457 0 0 0 0 0 0 0 0 0 0 0 0 0 0 0 0 0 0 0 0 0 0 0 0 0 0 0 0 0 0 0 0 0 0 0 0 0 0 0 0 0 0
1.6623 2.98994e-10 1.8007e-10 1.18924e-10 0.397747 0.12211 0 0 0 0 0 0 0 0 0 0 0 0 0 0 0 0 0 0 0 0 0 0 0 0 0 0 0 0 0 0 0 0 0 0 0 0 0 0 0 0 0 0
1.74763 2.70884e-10 1.73052e-10 9.78322e-11 0.361158 0.110193 0 0 0 0 0 0 0 0 0 0 0 0 0 0 0 0 0 0 0 0 0 0 0 0 0 0 0 0 0 0 0 0 0 0 0 0 0 0 0 0 0 0
1.83733 2.47541e-10 1.67232e-10 8.03093e-11 0.324428 0.0995148 0 0 0 0 0 0 0 0 0 0 0 0 0 0 0 0 0 0 0 0 0 0 0 0 0 0 0 0 0 0 0 0 0 0 0 0 0 0 0 0 0 0
1.93164 2.28491e-10 1.62676e-10 6.58157e-11 0.288045 0.0899445 0 0 0 0 0 0 0 0 0 0 0 0 0 0 0 0 0 0 0 0 0 0 0 0 0 0 0 0 0 0 0 0 0 0 0 0 0 0 0 0 0 0
2.03079 2.13257e-10 1.59337e-10 5.392e-11 0.25284 0.0813344 0 0 0 0 0 0 0 0 0 0 0 0 0 0 0 0 0 0 0 0 0 0 0 0 0 0 0 0 0 0 0 0 0 0 0 0 0 0 0 0 0 0
2.13503 2.01126e-10 1.56938e-10 4.41876e-11 0.219702 0.0735627 0 0 0 0 0 0 0 0 0 0 0 0 0 0 0 0 0 0 0 0 0 0 0 0 0 0 0 0 0 0 0 0 0 0 0 0 0 0 0 0 0 0
2.24463 1.91168e-10 1.54938e-10 3.62292e-11 0.189515 0.0665418 0 0 0 0 0 0 0 0 0 0 0 0 0 0 0 0 0 0 0 0 0 0 0 0 0 0 0 0 0 0 0 0 0 0 0 0 0 0 0 0 0 0
2.35984 1.82882e-10 1.5317e-10 2.97112e-11 0.162461 0.0602094 0 0 0 0 0 0 0 0 0 0 0 0 0 0 0 0 0 0 0 0 0 0 0 0 0 0 0 0 0 0 0 0 0 0 0 0 0 0 0 0 0 0
2.48097 1.76176e-10 1.51808e-10 2.43682e-11 0.138317 0.0544756 0 0 0 0 0 0 0 0 0 0 0 0 0 0 0 0 0 0 0 0 0 0 0 0 0 0 0 0 0 0 0 0 0 0 0 0 0 0 0 0 0 0
2.60832 1.70847e-10 1.50853e-10 1.9994e-11 0.117029 0.0492863 0 0 0 0 0 0 0 0 0 0 0 0 0 0 0 0 0 0 0 0 0 0 0 0 0 0 0 0 0 0 0 0 0 0 0 0 0 0 0 0 0 0
2.74221 1.66903e-10 1.50486e-10 1.64165e-11 0.0983598 0.0445892 0 0 0 0 0 0 0 0 0 0 0 0 0 0 0 0 0 0 0 0 0 0 0 0 0 0 0 0 0 0 0 0 0 0 0 0 0 0 0 0 0 0
2.88297 1.6422e-10 1.5072e-10 1.35e-11 0.0822065 0.0403326 0 0 0 0 0 0 0 0 0 0 0 0 0 0 0 0 0 0 0 0 0 0 0 0 0 0 0 0 0 0 0 0 0 0 0 0 0 0 0 0 0 0
3.03095 1.62656e-10 1.51511e-10 1.1145e-11 0.0685189 0.0364798 0 0 0 0 0 0 0 0 0 0 0 0 0 0 0 0 0 0 0 0 0 0 0 0 0 0 0 0 0 0 0 0 0 0 0 0 0 0 0 0 0 0
3.18653 1.60232e-10 1.51008e-10 9.22445e-12 0.0575693 0.0329881 0 0 0 0 0 0 0 0 0 0 0 0 0 0 0 0 0 0 0 0 0 0 0 0 0 0 0 0 0 0 0 0 0 0 0 0 0 0 0 0 0 0
3.35009 1.61073e-10 1.53539e-10 7.53439e-12 0.0467761 0.0298215 0 0 0 0 0 0 0 0 0 0 0 0 0 0 0 0 0 0 0 0 0 0 0 0 0 0 0 0 0 0 0 0 0 0 0 0 0 0 0 0 0 0
3.52205 1.58891e-10 1.52325e-10 6.56574e-12 0.0413223 0.0269514 0 0 0 0 0 0 0 0 0 0 0 0 0 0 0 0 0 0 0 0 0 0 0 0 0 0 0 0 0 0 0 0 0 0 0 0 0 0 0 0 0 0
3.70284 1.46604e-10 1.41265e-10 5.33856e-12 0.0364148 0.0243525 0 0 0 0 0 0 0 0 0 0 0 0 0 0 0 0 0 0 0 0 0 0 0 0 0 0 0 0 0 0 0 0 0 0 0 0 0 0 0 0 0 0
3.89291 1.41913e-10 1.37542e-10 4.37158e-12 0.0308046 0.0219942 0 0 0 0 0 0 0 0 0 0 0 0 0 0 0 0 0 0 0 0 0 0 0 0 0 0 0 0 0 0 0 0 0 0 0 0 0 0 0 0 0 0
4.09273 1.38126e-10 1.34544e-10 3.58243e-12 0.0259359 0.019853 0 0 0 0 0 0 0 0 0 0 0 0 0 0 0 0 0 0 0 0 0 0 0 0 0 0 0 0 0 0 0 0 0 0 0 0 0 0 0 0 0 0
4.30281 1.35183e-10 1.32246e-10 2.93693e-12 0.0217256 0.0179105 0 0 0 0 0 0 0 0 0 0 0 0 0 0 0 0 0 0 0 0 0 0 0 0 0 0 0 0 0 0 0 0 0 0 0 0 0 0 0 0 0 0
4.52368 1.33095e-10 1.30684e-10 2.41035e-12 0.01811 0.0161506 0 0 0 0 0 0 0 0 0 0 0 0 0 0 0 0 0 0 0 0 0 0 0 0 0 0 0 0 0 0 0 0 0 0 0 0 0 0 0 0 0 0
4.75588 1.3167e-10 1.29688e-10 1.98158e-12 0.0150496 0.0145523 0 0 0 0 0 0 0 0 0 0 0 0 0 0 0 0 0 0 0 0 0 0 0 0 0 0 0 0 0 0 0 0 0 0 0 0 0 0 0 0 0 0
5 1.30507e-10 1.28874e-10 1.63249e-12 0.0125088 0.0130977 0 0 0 0 0 0 0 0 0 0 0 0 0 0 0 0 0 0 0 0 0 0 0 0 0 0 0 0 0 0 0 0 0 0 0 0 0 0 0 0 0 0
5.25665 1.29266e-10 1.2792e-10 1.3465e-12 0.0104164 0.0117746 0 0 0 0 0 0 0 0 0 0 0 0 0 0 0 0 0 0 0 0 0 0 0 0 0 0 0 0 0 0 0 0 0 0 0 0 0 0 0 0 0 0
5.52648 1.27943e-10 1.26832e-10 1.11051e-12 0.00867972 0.0105759 0 0 0 0 0 0 0 0 0 0 0 0 0 0 0 0 0 0 0 0 0 0 0 0 0 0 0 0 0 0 0 0 0 0 0 0 0 0 0 0 0 0
5.81015 1.2645e-10 1.25535e-10 9.14924e-13 0.00723548 0.00948246 0 0 0 0 0 0 0 0 0 0 0 0 0 0 0 0 0 0 0 0 0 0 0 0 0 0 0 0 0 0 0 0 0 0 0 0 0 0 0 0 0 0
6.10839 1.249e-10 1.24148e-10 7.52214e-13 0.00602254 0.00848791 0 0 0 0 0 0 0 0 0 0 0 0 0 0 0 0 0 0 0 0 0 0 0 0 0 0 0 0 0 0 0 0 1.4013e-45 0 4.2039e-45 0 9.80909e-45 0 2.66247e-44 0 6.30584e-44 0
6.42193 1.23257e-10 1.22641e-10 6.16184e-13 0.00499918 0.00757993 0 0 0 0 0 0 0 0 0 0 0 0 0 0 0 0 0 0 0 0 0 0 0 0 1.4013e-45 0 5.60519e-45 0 1.82169e-44 0 5.88545e-44 0 1.77965e-43 0 4.98862e-43 0 1.27238e-42 0 3.10948e-42 0 7.127e-42 0
6.75157 1.21989e-10 1.21488e-10 5.00757e-13 0.00410493 0.0067427 0 0 0 0 0 0 0 0 0 0 0 0 0 0 0 0 0 0 1.4013e-45 0 7.00649e-45 0 3.92364e-44 0 1.66755e-43 0 6.43196e-43 0 2.20705e-42 0 6.64215e-42 0 1.90282e-41 0 5.07704e-41 0 1.23644e-40 0 2.89336e-40 0 6.36875e-40 0
7.09813 1.1969e-10 1.19283e-10 4.06749e-13 0.00339836 0.00595413 0 0 0 0 0 0 0 0 0 0 0 0 0 0 1.4013e-45 0 2.10195e-44 0 1.58347e-43 0 9.26258e-43 0 4.35383e-42 0 1.75793e-41 0 6.32602e-41 0 2.04417e-40 0 5.82926e-40 0 1.58628e-39 0 4.03435e-39 0 9.40719e-39 0 2.11185e-38 0 4.47286e-38 0
7.46248 1.17761e-10 1.17439e-10 3.22181e-13 0.00273589 0.00518676 0 0 0 0 0 0 0 0 0 0 1.4013e-45 0 1.96182e-44 0 2.70451e-43 0 2.43406e-42 0 1.64821e-41 0 8.86069e-41 0 3.85995e-40 0 1.45596e-39 0 4.9218e-39 0 1.50189e-38 0 4.06925e-38 0 1.05452e-37 0 2.56244e-37 0 5.73309e-37 0 1.23722e-36 0 2.52612e-36 0
7.84553 1.1576e-10 1.15517e-10 2.43655e-13 0.00210482 0.00445506 0 0 0 0 0 0 0 0 2.8026e-45 0 1.10703e-43 0 2.2659e-42 0 2.70941e-41 0 2.18998e-40 0 1.35049e-39 0 6.6878e-39 0 2.71138e-38 0 9.5854e-38 0 3.05321e-37 0 8.82297e-37 0 2.27696e-36 0 5.63254e-36 0 1.31063e-35 0 2.81928e-35 0 5.85982e-35 0 1.15547e-34 0
8.24824 1.2856e-10 1.28381e-10 1.79016e-13 0.00139247 0.0038324 0 0 0 0 0 0 2.8026e-45 0 3.29305e-43 0 1.28821e-41 0 2.28159e-40 0 2.41641e-39 0 1.76372e-38 0 9.95198e-38 0 4.55805e-37 0 1.72586e-36 0 5.73652e-36 0 1.72675e-35 0 4.73791e-35 0 1.16741e-34 0 2.76292e-34 0 6.16929e-34 0 1.27836e-33 0 2.56381e-33 0 4.8906e-33 0
8.67162 1.55742e-10 1.55587e-10 1.55087e-13 0.000995797 0.00333626 0 0 0 0 0 0 3.68541e-43 0 3.94017e-41 0 1.29003e-39 0 1.98567e-38 0 1.87413e-37 0 1.2414e-36 0 6.43725e-36 0 2.73718e-35 0 9.71177e-35 0 3.0442e-34 0 8.68334e-34 0 2.268e-33 0 5.3476e-33 0 1.21349e-32 0 2.60537e-32 0 5.21e-32 0 1.00998e-31 0 1.8668e-31 0
9.11674 2.13438e-10 2.13254e-10 1.8442e-13 0.000864045 0.00284636 0 0 0 0 6.16571e-44 0 4.95205e-41 0 4.21357e-39 0 1.16347e-37 0 1.56709e-36 0 1.32553e-35 0 8.00589e-35 0 3.83089e-34 0 1.51779e-33 0 5.06237e-33 0 1.50073e-32 0 4.06717e-32 0 1.01365e-31 0 2.29202e-31 0 4.99712e-31 0 1.0336e-30 0 1.99814e-30 0 3.75031e-30 0 6.72705e-30 0
9.5847 2.60586e-10 2.6033e-10 2.56332e-13 0.000983673 0.00254337 0 0 0 0 8.12333e-42 0 4.67895e-39 0 3.20474e-37 0 7.52557e-36 0 8.92766e-35 0 6.80389e-34 0 3.76397e-33 0 1.66856e-32 0 6.18103e-32 0 1.94384e-31 0 5.46472e-31 0 1.41064e-30 0 3.36241e-30 0 7.30601e-30 0 1.53339e-29 0 3.06109e-29 0 5.73025e-29 0 1.04295e-28 0 1.81816e-28 0
10.0767 2.52925e-10 2.52642e-10 2.82795e-13 0.0011181 0.0024115 0 0 8.40779e-45 0 6.64838e-40 0 2.80765e-37 0 1.56446e-35 0 3.14909e-34 0 3.31083e-33 0 2.28503e-32 0 1.16281e-31 0 4.79327e-31 0 1.66565e-30 0 4.95324e-30 0 1.32397e-29 0 3.26302e-29 0 7.45479e-29 0 1.55959e-28 0 3.15692e-28 0 6.09295e-28 0 1.10619e-27 0 1.95534e-27 0 3.31745e-27 0
10.5939 2.1565e-10 2.15398e-10 2.51383e-13 0.0011657 0.00236852 0 0 7.93135e-43 0 3.80275e-38 0 1.19545e-35 0 5.474e-34 0 9.5163e-33 0 8.91936e-32 0 5.60181e-31 0 2.63297e-30 0 1.01283e-29 0 3.31189e-29 0 9.3384e-29 0 2.37911e-28 0 5.61085e-28 0 1.23119e-27 0 2.48455e-27 0 4.85903e-27 0 9.08179e-27 0 1.60151e-26 0 2.75322e-26 0 4.55214e-26 0
11.1377 1.80243e-10 1.80032e-10 2.11379e-13 0.00117274 0.00242508 0 0 6.0602e-41 0 1.71537e-36 0 4.07246e-34 0 1.5472e-32 0 2.33969e-31 0 1.96596e-30 0 1.12878e-29 0 4.91938e-29 0 1.77187e-28 0 5.46828e-28 0 1.46578e-27 0 3.56763e-27 0 8.06867e-27 0 1.70387e-26 0 3.32254e-26 0 6.28853e-26 0 1.14001e-25 0 1.95541e-25 0 3.27388e-25 0 5.28171e-25 0
11.7094 1.44679e-10 1.44514e-10 1.65261e-13 0.00114226 0.00244052 5.74532e-44 0 3.52112e-39 0 6.04219e-35 0 1.09828e-32 0 3.4936e-31 0 4.62693e-30 0 3.50409e-29 0 1.84735e-28 0 7.4927e-28 0 2.53506e-27 0 7.40478e-27 0 1.89157e-26 0 4.40831e-26 0 9.58054e-26 0 1.95063e-25 0 3.6817e-25 0 6.75459e-25 0 1.18945e-24 0 1.98716e-24 0 3.24436e-24 0 5.11328e-24 0
12.3105 1.16081e-10 1.15958e-10 1.23079e-13 0.00106028 0.0024292 4.58365e-42 0 1.63911e-37 0 1.74734e-33 0 2.46363e-31 0 6.61874e-30 0 7.72705e-29 0 5.30109e-28 0 2.57685e-27 0 9.76089e-27 0 3.11168e-26 0 8.62561e-26 0 2.10481e-25 0 4.70677e-25 0 9.84875e-25 0 1.93682e-24 0 3.544e-24 0 6.31215e-24 0 1.08125e-23 0 1.76169e-23 0 2.80823e-23 0 4.32869e-23 0
12.9424 1.05333e-10 1.05244e-10 8.94251e-14 0.000848973 0.00232523 3.26292e-40 0 6.99245e-36 0 4.73963e-32 0 5.2482e-30 0 1.20069e-28 0 1.24326e-27 0 7.76391e-27 0 3.49363e-26 0 1.24004e-25 0 3.73559e-25 0 9.85222e-25 0 2.30166e-24 0 4.94866e-24 0 9.98826e-24 0 1.90046e-23 0 3.37638e-23 0 5.84648e-23 0 9.75505e-23 0 1.55197e-22 0 2.41824e-22 0 3.64963e-22 0
