# 5.98828e-08 0 5 : grain size, compostion index, size index
# Heating and cooling timescale: 404601 3.20381
# Ratio of heating to cooling to determine stochastic cutoff: 100
# Equilibrium emission is recorded even for those grains in the stochastic regime.
# Emission spectrum was computed for: 
# Type: IRSF
# Scales: 0.25 0.5 1 1.5 2 2.5 3 3.5 4 4.5 5 5.5 6 6.5 7 7.5 8 8.5 9 9.5 10
# StochasticallyHeated: 1 1 1 1 1 1 1 1 1 1 1 1 1 1 1 1 1 1 1 1 1
# Temperature: -1
# Wavelength  CExt  CAbs  CSca  Albedo G EqEm1 StEm1 EqEm2 StEm2 EqEm3 StEm3 EqEm4 StEm4 EqEm5 StEm5 EqEm6 StEm6 EqEm7 StEm7 EqEm8 StEm8 EqEm9 StEm9 EqEm10 StEm10 EqEm11 StEm11 EqEm12 StEm12 EqEm13 StEm13 EqEm14 StEm14 EqEm15 StEm15 EqEm16 StEm16 EqEm17 StEm17 EqEm18 StEm18 EqEm19 StEm19 EqEm20 StEm20 EqEm21 StEm21
0.05 9.11547e-16 9.11398e-16 1.49472e-19 0.000163976 0.000784179 0 0 0 0 0 0 0 0 0 0 0 0 0 0 0 0 0 0 0 0 0 0 0 0 0 0 0 0 0 0 0 0 0 0 0 0 0 0 0 0 0 0
0.0525665 1.05569e-15 1.05553e-15 1.60267e-19 0.000151813 0.000698515 0 0 0 0 0 0 0 0 0 0 0 0 0 0 0 0 0 0 0 0 0 0 0 0 0 0 0 0 0 0 0 0 0 0 0 0 0 0 0 0 0 0
0.0552647 1.21824e-15 1.21807e-15 1.71698e-19 0.000140939 0.000621997 0 0 0 0 0 0 0 0 0 0 0 0 0 0 0 0 0 0 0 0 0 0 0 0 0 0 0 0 0 0 0 0 0 0 0 0 0 0 0 0 0 0
0.0581015 1.43196e-15 1.43178e-15 1.81126e-19 0.000126488 0.000553563 0 0 0 0 0 0 0 0 0 0 0 0 0 0 0 0 0 0 0 0 0 0 0 0 0 0 0 0 0 0 0 0 0 0 0 0 0 0 0 0 0 0
0.0610839 1.98831e-15 1.98812e-15 1.92579e-19 9.68555e-05 0.000487525 0 0 0 0 0 0 0 0 0 0 0 0 0 0 0 0 0 0 0 0 0 0 0 0 0 0 0 0 0 0 0 0 0 0 0 0 0 0 0 0 0 0
0.0642193 2.51281e-15 2.51259e-15 2.14556e-19 8.53849e-05 0.000421658 0 0 0 0 0 0 0 0 0 0 0 0 0 0 0 0 0 0 0 0 0 0 0 0 0 0 0 0 0 0 0 0 0 0 0 0 0 0 0 0 0 0
0.0675157 3.00572e-15 3.00546e-15 2.52128e-19 8.38828e-05 0.000355283 0 0 0 0 0 0 0 0 0 0 0 0 0 0 0 0 0 0 0 0 0 0 0 0 0 0 0 0 0 0 0 0 0 0 0 0 0 0 0 0 0 0
0.0709813 3.45337e-15 3.45311e-15 2.60265e-19 7.53654e-05 0.000297832 0 0 0 0 0 0 0 0 0 0 0 0 0 0 0 0 0 0 0 0 0 0 0 0 0 0 0 0 0 0 0 0 0 0 0 0 0 0 0 0 0 0
0.0746248 3.22636e-15 3.22613e-15 2.27259e-19 7.04382e-05 0.000256882 0 0 0 0 0 0 0 0 0 0 0 0 0 0 0 0 0 0 0 0 0 0 0 0 0 0 0 0 0 0 0 0 0 0 0 0 0 0 0 0 0 0
0.0784553 2.53533e-15 2.53516e-15 1.76287e-19 6.9532e-05 0.000229642 0 0 0 0 0 0 0 0 0 0 0 0 0 0 0 0 0 0 0 0 0 0 0 0 0 0 0 0 0 0 0 0 0 0 0 0 0 0 0 0 0 0
0.0824824 2.01244e-15 2.01232e-15 1.24007e-19 6.162e-05 0.000214667 0 0 0 0 0 0 0 0 0 0 0 0 0 0 0 0 0 0 0 0 0 0 0 0 0 0 0 0 0 0 0 0 0 0 0 0 0 0 0 0 0 0
0.0867162 1.68581e-15 1.68572e-15 9.5562e-20 5.66861e-05 0.000206124 0 0 0 0 0 0 0 0 0 0 0 0 0 0 0 0 0 0 0 0 0 0 0 0 0 0 0 0 0 0 0 0 0 0 0 0 0 0 0 0 0 0
0.0911674 1.47098e-15 1.4709e-15 8.01666e-20 5.44987e-05 0.000200151 0 0 0 0 0 0 0 0 0 0 0 0 0 0 0 0 0 0 0 0 0 0 0 0 0 0 0 0 0 0 0 0 0 0 0 0 0 0 0 0 0 0
0.095847 1.31644e-15 1.31638e-15 6.36122e-20 4.83214e-05 0.000211025 0 0 0 0 0 0 0 0 0 0 0 0 0 0 0 0 0 0 0 0 0 0 0 0 0 0 0 0 0 0 0 0 0 0 0 0 0 0 0 0 0 0
0.100767 1.15564e-15 1.15559e-15 4.3407e-20 3.75612e-05 0.000246132 0 0 0 0 0 0 0 0 0 0 0 0 0 0 0 0 0 0 0 0 0 0 0 0 0 0 0 0 0 0 0 0 0 0 0 0 0 0 0 0 0 0
0.105939 1.00755e-15 1.00752e-15 3.00756e-20 2.98502e-05 0.000265542 0 0 0 0 0 0 0 0 0 0 0 0 0 0 0 0 0 0 0 0 0 0 0 0 0 0 0 0 0 0 0 0 0 0 0 0 0 0 0 0 0 0
0.111377 8.64673e-16 8.64655e-16 1.83975e-20 2.12768e-05 0.000303911 0 0 0 0 0 0 0 0 0 0 0 0 0 0 0 0 0 0 0 0 0 0 0 0 0 0 0 0 0 0 0 0 0 0 0 0 0 0 0 0 0 0
0.117094 7.32891e-16 7.32879e-16 1.14708e-20 1.56515e-05 0.000278323 0 0 0 0 0 0 0 0 0 0 0 0 0 0 0 0 0 0 0 0 0 0 0 0 0 0 0 0 0 0 0 0 0 0 0 0 0 0 0 0 0 0
0.123105 6.16073e-16 6.16065e-16 7.47443e-21 1.21324e-05 0.000238783 0 0 0 0 0 0 0 0 0 0 0 0 0 0 0 0 0 0 0 0 0 0 0 0 0 0 0 0 0 0 0 0 0 0 0 0 0 0 0 0 0 0
0.129424 5.18233e-16 5.18228e-16 4.80823e-21 9.27812e-06 0.000200823 0 0 0 0 0 0 0 0 0 0 0 0 0 0 0 0 0 0 0 0 0 0 0 0 0 0 0 0 0 0 0 0 0 0 0 0 0 0 0 0 0 0
0.136067 4.6999e-16 4.69987e-16 3.11519e-21 6.62821e-06 0.000169913 0 0 0 1.4013e-45 0 0 0 0 0 0 0 0 0 0 0 0 0 0 0 0 0 0 0 0 0 0 0 0 0 0 0 0 0 0 0 0 0 0 0 0 0 0
0.143051 4.26572e-16 4.2657e-16 2.04616e-21 4.79675e-06 0.000144941 0 5.60519e-45 0 1.96182e-44 0 0 0 0 0 0 0 0 0 0 0 0 0 0 0 0 0 0 0 0 0 0 0 0 0 0 0 0 0 0 0 0 0 0 0 0 0 0
0.150394 4.02949e-16 4.02947e-16 1.39398e-21 3.45944e-06 0.000123727 0 9.94922e-44 0 3.96567e-43 0 0 0 0 0 0 0 0 0 0 0 0 0 0 0 0 0 0 0 0 0 0 0 0 0 0 0 0 0 0 0 0 0 0 0 0 0 0
0.158114 3.98275e-16 3.98274e-16 1.05422e-21 2.64696e-06 0.000105952 0 1.77545e-42 0 7.10038e-42 0 0 0 0 0 0 0 1.4013e-45 0 1.4013e-45 0 1.4013e-45 0 1.4013e-45 0 1.4013e-45 0 1.4013e-45 0 1.4013e-45 0 1.4013e-45 0 2.8026e-45 0 2.8026e-45 0 2.8026e-45 0 4.2039e-45 0 5.60519e-45 0 7.00649e-45 0 9.80909e-45 0 1.4013e-44
0.16623 4.14098e-16 4.14097e-16 9.73775e-22 2.35156e-06 9.10834e-05 0 2.89396e-41 0 1.15753e-40 0 1.96182e-44 0 2.94273e-44 0 3.92364e-44 0 4.90454e-44 0 5.88545e-44 0 6.86636e-44 0 7.9874e-44 0 8.96831e-44 0 9.94922e-44 0 1.12104e-43 0 1.24716e-43 0 1.4013e-43 0 1.61149e-43 0 1.87774e-43 0 2.2701e-43 0 2.8026e-43 0 3.60134e-43 0 4.77843e-43 0 6.31986e-43
0.174762 4.53678e-16 4.53677e-16 1.17327e-21 2.58613e-06 7.83173e-05 0 4.33754e-40 0 1.73448e-39 0 1.16308e-42 0 1.74462e-42 0 2.32616e-42 0 2.9091e-42 0 3.49063e-42 0 4.07778e-42 0 4.66773e-42 0 5.26888e-42 0 5.88826e-42 0 6.54547e-42 0 7.26153e-42 0 8.06167e-42 0 9.07201e-42 0 1.02393e-41 0 1.189e-41 0 1.40032e-41 0 1.69571e-41 0 2.1168e-41 0 2.64691e-41
0.183733 5.24182e-16 5.2418e-16 1.67534e-21 3.19611e-06 6.67028e-05 0 6.02904e-39 0 2.4087e-38 0 5.9174e-41 0 8.87807e-41 0 1.18401e-40 0 1.48035e-40 0 1.77668e-40 0 2.07487e-40 0 2.37456e-40 0 2.6784e-40 0 2.98887e-40 0 3.31268e-40 0 3.65669e-40 0 4.02796e-40 0 4.46661e-40 0 4.95342e-40 0 5.58738e-40 0 6.35633e-40 0 7.36796e-40 0 8.73539e-40 0 1.03991e-39
0.193164 6.48845e-16 6.48842e-16 2.66117e-21 4.10139e-06 5.55065e-05 0 7.96932e-38 0 3.17439e-37 0 2.66597e-39 0 3.99981e-39 0 5.33418e-39 0 6.66912e-39 0 8.00407e-39 0 9.34624e-39 0 1.06937e-38 0 1.20556e-38 0 1.3439e-38 0 1.48645e-38 0 1.63516e-38 0 1.79185e-38 0 1.96798e-38 0 2.15733e-38 0 2.38713e-38 0 2.65247e-38 0 2.9812e-38 0 3.40085e-38 0 3.89347e-38
0.203079 8.4987e-16 8.49866e-16 4.06135e-21 4.77879e-06 4.4511e-05 0 1.00388e-36 0 3.96226e-36 0 1.05986e-37 0 1.59011e-37 0 2.12055e-37 0 2.65121e-37 0 3.18185e-37 0 3.71502e-37 0 4.24986e-37 0 4.78912e-37 0 5.33465e-37 0 5.89197e-37 0 6.46615e-37 0 7.0612e-37 0 7.7065e-37 0 8.38442e-37 0 9.16219e-37 0 1.0024e-36 0 1.10348e-36 0 1.2255e-36 0 1.36371e-36
0.213503 1.04697e-15 1.04696e-15 4.9835e-21 4.75993e-06 3.42333e-05 0 1.10072e-35 0 4.23521e-35 0 3.33396e-36 0 5.00187e-36 0 6.67037e-36 0 8.33948e-36 0 1.00085e-35 0 1.16846e-35 0 1.33649e-35 0 1.5056e-35 0 1.67617e-35 0 1.84938e-35 0 2.0263e-35 0 2.20758e-35 0 2.3993e-35 0 2.5975e-35 0 2.81554e-35 0 3.04956e-35 0 3.31185e-35 0 3.61306e-35 0 3.94328e-35
0.224463 1.00543e-15 1.00543e-15 4.13995e-21 4.11758e-06 2.53457e-05 0 9.16504e-35 0 3.31719e-34 0 6.93594e-35 0 1.04057e-34 0 1.38767e-34 0 1.73488e-34 0 2.08208e-34 0 2.43057e-34 0 2.77976e-34 0 3.13073e-34 0 3.48397e-34 0 3.84116e-34 0 4.20384e-34 0 4.57262e-34 0 4.95592e-34 0 5.3479e-34 0 5.76639e-34 0 6.20529e-34 0 6.68034e-34 0 7.20417e-34 0 7.76304e-34
0.235984 7.76934e-16 7.76932e-16 2.80811e-21 3.61434e-06 1.80895e-05 0 6.43785e-34 0 2.07583e-33 0 9.92962e-34 0 1.48969e-33 0 1.98657e-33 0 2.48361e-33 0 2.98062e-33 0 3.47928e-33 0 3.97875e-33 0 4.48027e-33 0 4.98421e-33 0 5.49229e-33 0 6.00603e-33 0 6.52569e-33 0 7.05946e-33 0 7.60139e-33 0 8.16808e-33 0 8.75297e-33 0 9.37026e-33 0 1.00304e-32 0 1.07203e-32
0.248097 5.86806e-16 5.86804e-16 1.81747e-21 3.09723e-06 1.38567e-05 0 4.86958e-33 0 1.34589e-32 0 1.19733e-32 0 1.79627e-32 0 2.39538e-32 0 2.99468e-32 0 3.59394e-32 0 4.19498e-32 0 4.79682e-32 0 5.40065e-32 0 6.0067e-32 0 6.61642e-32 0 7.23113e-32 0 7.85075e-32 0 8.48206e-32 0 9.11996e-32 0 9.77765e-32 0 1.04492e-31 0 1.11456e-31 0 1.18744e-31 0 1.26248e-31
0.260832 4.69644e-16 4.69643e-16 1.24812e-21 2.65758e-06 1.44184e-05 0 4.18673e-32 0 1.00725e-31 0 1.32793e-31 0 1.99218e-31 0 2.65662e-31 0 3.32124e-31 0 3.98583e-31 0 4.65219e-31 0 5.31927e-31 0 5.98816e-31 0 6.65893e-31 0 7.33274e-31 0 8.01067e-31 0 8.69235e-31 0 9.38306e-31 0 1.00788e-30 0 1.07893e-30 0 1.15096e-30 0 1.22478e-30 0 1.30089e-30 0 1.37847e-30
0.274221 3.99491e-16 3.9949e-16 9.00219e-22 2.25341e-06 1.92793e-05 0 3.81574e-31 0 8.38842e-31 0 1.36807e-30 0 2.05239e-30 0 2.73688e-30 0 3.42155e-30 0 4.10619e-30 0 4.79247e-30 0 5.47937e-30 0 6.16781e-30 0 6.85774e-30 0 7.55004e-30 0 8.24554e-30 0 8.94373e-30 0 9.64849e-30 0 1.03569e-29 0 1.10756e-29 0 1.18009e-29 0 1.25385e-29 0 1.32912e-29 0 1.40534e-29
0.288297 3.55705e-16 3.55705e-16 6.70967e-22 1.8863e-06 2.58662e-05 0 3.42298e-30 0 7.17135e-30 0 1.29792e-29 0 1.94713e-29 0 2.5965e-29 0 3.24602e-29 0 3.89552e-29 0 4.54643e-29 0 5.19783e-29 0 5.85045e-29 0 6.50417e-29 0 7.1596e-29 0 7.81737e-29 0 8.47693e-29 0 9.14093e-29 0 9.80741e-29 0 1.04807e-28 0 1.11581e-28 0 1.18432e-28 0 1.25379e-28 0 1.32383e-28
0.303095 3.22251e-16 3.22251e-16 5.17038e-22 1.60446e-06 2.90022e-05 0 2.85129e-29 0 5.83435e-29 0 1.10911e-28 0 1.66386e-28 0 2.21875e-28 0 2.77376e-28 0 3.32875e-28 0 3.88483e-28 0 4.44127e-28 0 4.99859e-28 0 5.55664e-28 0 6.11583e-28 0 6.67657e-28 0 7.23839e-28 0 7.80295e-28 0 8.36908e-28 0 8.93933e-28 0 9.51182e-28 0 1.00889e-27 0 1.06715e-27 0 1.12572e-27
0.318653 2.81594e-16 2.81594e-16 4.02598e-22 1.42971e-06 3.02608e-05 0 2.068e-28 0 4.18386e-28 0 8.14089e-28 0 1.22127e-27 0 1.62854e-27 0 2.0359e-27 0 2.44325e-27 0 2.85133e-27 0 3.25962e-27 0 3.66848e-27 0 4.07775e-27 0 4.48768e-27 0 4.89851e-27 0 5.30991e-27 0 5.72278e-27 0 6.13651e-27 0 6.55242e-27 0 6.96939e-27 0 7.38874e-27 0 7.81085e-27 0 8.23446e-27
0.335009 2.47396e-16 2.47396e-16 3.17106e-22 1.28177e-06 2.9758e-05 0 1.35882e-27 0 2.73397e-27 0 5.38032e-27 0 8.07135e-27 0 1.07629e-26 0 1.3455e-26 0 1.61471e-26 0 1.88436e-26 0 2.15413e-26 0 2.42422e-26 0 2.69453e-26 0 2.96518e-26 0 3.23631e-26 0 3.50771e-26 0 3.77983e-26 0 4.0524e-26 0 4.32601e-26 0 4.60008e-26 0 4.87527e-26 0 5.15174e-26 0 5.42887e-26
0.352205 2.1591e-16 2.15909e-16 2.5285e-22 1.17109e-06 2.82363e-05 0 8.00847e-27 0 1.60688e-26 0 3.18042e-26 0 4.77112e-26 0 6.36211e-26 0 7.95342e-26 0 9.54469e-26 0 1.11384e-25 0 1.27327e-25 0 1.43286e-25 0 1.59256e-25 0 1.75242e-25 0 1.91251e-25 0 2.07272e-25 0 2.23324e-25 0 2.39398e-25 0 2.55517e-25 0 2.71654e-25 0 2.8784e-25 0 3.04078e-25 0 3.20344e-25
0.370284 1.87068e-16 1.87068e-16 2.03398e-22 1.08729e-06 2.63978e-05 0 4.2465e-26 0 8.50845e-26 0 1.68914e-25 0 2.53395e-25 0 3.37891e-25 0 4.22403e-25 0 5.06913e-25 0 5.9154e-25 0 6.76197e-25 0 7.6093e-25 0 8.45707e-25 0 9.30556e-25 0 1.01551e-24 0 1.1005e-24 0 1.18562e-24 0 1.27084e-24 0 1.35623e-24 0 1.44169e-24 0 1.52734e-24 0 1.61319e-24 0 1.69915e-24
0.389291 1.60828e-16 1.60827e-16 1.64876e-22 1.02517e-06 2.46111e-05 0 2.0333e-25 0 4.07092e-25 0 8.09542e-25 0 1.21442e-24 0 1.61937e-24 0 2.02439e-24 0 2.42941e-24 0 2.83493e-24 0 3.24059e-24 0 3.64657e-24 0 4.05272e-24 0 4.45916e-24 0 4.86601e-24 0 5.27301e-24 0 5.68047e-24 0 6.0883e-24 0 6.49681e-24 0 6.90548e-24 0 7.31487e-24 0 7.72498e-24 0 8.13544e-24
0.409273 1.37169e-16 1.37169e-16 1.34049e-22 9.77252e-07 2.28766e-05 0 8.82733e-25 0 1.76661e-24 0 3.51657e-24 0 5.2753e-24 0 7.03431e-24 0 8.79361e-24 0 1.05529e-23 0 1.23143e-23 0 1.40761e-23 0 1.58392e-23 0 1.76029e-23 0 1.93677e-23 0 2.11339e-23 0 2.29007e-23 0 2.4669e-23 0 2.64387e-23 0 2.82106e-23 0 2.9983e-23 0 3.17578e-23 0 3.3535e-23 0 3.53133e-23
0.430281 1.1593e-16 1.1593e-16 1.09094e-22 9.41031e-07 2.12288e-05 0 3.48547e-24 0 6.9738e-24 0 1.38906e-23 0 2.08376e-23 0 2.77856e-23 0 3.47347e-23 0 4.16839e-23 0 4.86405e-23 0 5.55989e-23 0 6.25617e-23 0 6.95266e-23 0 7.64949e-23 0 8.34684e-23 0 9.04433e-23 0 9.7423e-23 0 1.04407e-22 0 1.11399e-22 0 1.18391e-22 0 1.25391e-22 0 1.32399e-22 0 1.39409e-22
0.452368 9.69404e-17 9.69403e-17 8.87716e-23 9.15734e-07 1.95268e-05 0 1.25488e-23 0 2.51043e-23 0 5.00249e-23 0 7.50431e-23 0 1.00065e-22 0 1.2509e-22 0 1.50116e-22 0 1.75166e-22 0 2.00223e-22 0 2.25294e-22 0 2.5037e-22 0 2.75458e-22 0 3.00562e-22 0 3.2567e-22 0 3.50791e-22 0 3.75927e-22 0 4.01084e-22 0 4.26242e-22 0 4.51423e-22 0 4.76623e-22 0 5.01833e-22
0.475588 7.99662e-17 7.99662e-17 7.22828e-23 9.03917e-07 1.78967e-05 0 4.12365e-23 0 8.24883e-23 0 1.64424e-22 0 2.46654e-22 0 3.28894e-22 0 4.11146e-22 0 4.934e-22 0 5.75729e-22 0 6.58075e-22 0 7.40466e-22 0 8.22872e-22 0 9.0531e-22 0 9.87795e-22 0 1.07029e-21 0 1.15282e-21 0 1.23539e-21 0 1.31802e-21 0 1.40065e-21 0 1.48334e-21 0 1.56608e-21 0 1.64885e-21
0.5 6.45583e-17 6.45582e-17 5.90117e-23 9.14084e-07 1.6333e-05 0 1.23163e-22 0 2.46359e-22 0 4.91186e-22 0 7.36829e-22 0 9.82504e-22 0 1.22821e-21 0 1.47392e-21 0 1.71984e-21 0 1.96581e-21 0 2.2119e-21 0 2.45803e-21 0 2.70425e-21 0 2.95058e-21 0 3.19694e-21 0 3.44338e-21 0 3.68994e-21 0 3.93664e-21 0 4.18333e-21 0 4.43018e-21 0 4.67715e-21 0 4.92419e-21
0.525665 4.94303e-17 4.94302e-17 4.82288e-23 9.75694e-07 1.48544e-05 0 3.25165e-22 0 6.50395e-22 0 1.297e-21 0 1.94562e-21 0 2.59433e-21 0 3.24311e-21 0 3.89191e-21 0 4.54122e-21 0 5.19065e-21 0 5.84038e-21 0 6.49019e-21 0 7.14021e-21 0 7.79051e-21 0 8.44085e-21 0 9.09137e-21 0 9.74218e-21 0 1.03933e-20 0 1.10444e-20 0 1.16958e-20 0 1.23475e-20 0 1.29994e-20
0.552648 3.19072e-17 3.19072e-17 3.9431e-23 1.2358e-06 1.35075e-05 0 6.76844e-22 0 1.35379e-21 0 2.70015e-21 0 4.05047e-21 0 5.40095e-21 0 6.75159e-21 0 8.10225e-21 0 9.45393e-21 0 1.08058e-20 0 1.21583e-20 0 1.35109e-20 0 1.48639e-20 0 1.62174e-20 0 1.7571e-20 0 1.89249e-20 0 2.02794e-20 0 2.16344e-20 0 2.29893e-20 0 2.43449e-20 0 2.57009e-20 0 2.70572e-20
0.581015 1.86341e-17 1.86341e-17 3.23951e-23 1.73848e-06 1.22558e-05 0 1.19594e-21 0 2.39203e-21 0 4.77163e-21 0 7.15786e-21 0 9.54435e-21 0 1.19311e-20 0 1.43179e-20 0 1.67064e-20 0 1.90952e-20 0 2.1485e-20 0 2.3875e-20 0 2.62656e-20 0 2.86571e-20 0 3.10487e-20 0 3.34407e-20 0 3.58336e-20 0 3.82274e-20 0 4.06209e-20 0 4.30156e-20 0 4.54108e-20 0 4.78066e-20
0.610839 1.40046e-17 1.40045e-17 2.66223e-23 1.90097e-06 1.1122e-05 0 2.55931e-21 0 5.11888e-21 0 1.02125e-20 0 1.53196e-20 0 2.04272e-20 0 2.55354e-20 0 3.06437e-20 0 3.57554e-20 0 4.08677e-20 0 4.59819e-20 0 5.10966e-20 0 5.62125e-20 0 6.133e-20 0 6.64476e-20 0 7.15662e-20 0 7.66864e-20 0 8.18083e-20 0 8.69297e-20 0 9.20531e-20 0 9.71778e-20 0 1.02303e-19
0.642193 9.60914e-18 9.60912e-18 2.18747e-23 2.27645e-06 1.00934e-05 0 4.71963e-21 0 9.43968e-21 0 1.88351e-20 0 2.82542e-20 0 3.76741e-20 0 4.7095e-20 0 5.65162e-20 0 6.59431e-20 0 7.53713e-20 0 8.48027e-20 0 9.42348e-20 0 1.03669e-19 0 1.13106e-19 0 1.22543e-19 0 1.31982e-19 0 1.41423e-19 0 1.50867e-19 0 1.6031e-19 0 1.69757e-19 0 1.79206e-19 0 1.88656e-19
0.675157 3.73688e-18 3.73686e-18 1.79942e-23 4.8153e-06 9.16439e-06 0 4.66911e-21 0 9.33858e-21 0 1.86355e-20 0 2.79547e-20 0 3.72747e-20 0 4.65956e-20 0 5.59168e-20 0 6.52433e-20 0 7.4571e-20 0 8.39016e-20 0 9.32329e-20 0 1.02566e-19 0 1.11902e-19 0 1.21238e-19 0 1.30575e-19 0 1.39914e-19 0 1.49257e-19 0 1.58598e-19 0 1.67942e-19 0 1.77288e-19 0 1.86635e-19
0.709813 1.09838e-18 1.09837e-18 1.48272e-23 1.34992e-05 8.33109e-06 0 3.31327e-21 0 6.62675e-21 0 1.32254e-20 0 1.9839e-20 0 2.64532e-20 0 3.3068e-20 0 3.9683e-20 0 4.63016e-20 0 5.29209e-20 0 5.95422e-20 0 6.61639e-20 0 7.27869e-20 0 7.94115e-20 0 8.60362e-20 0 9.26616e-20 0 9.92888e-20 0 1.05918e-19 0 1.12546e-19 0 1.19176e-19 0 1.25807e-19 0 1.32439e-19
0.746248 3.76315e-19 3.76302e-19 1.22198e-23 3.24723e-05 7.5866e-06 0 2.60734e-21 0 5.21483e-21 0 1.04086e-20 0 1.56135e-20 0 2.0819e-20 0 2.60248e-20 0 3.12309e-20 0 3.64395e-20 0 4.16488e-20 0 4.68595e-20 0 5.20704e-20 0 5.72824e-20 0 6.24955e-20 0 6.77086e-20 0 7.29223e-20 0 7.81372e-20 0 8.33534e-20 0 8.8569e-20 0 9.37862e-20 0 9.9004e-20 0 1.04223e-19
0.784553 1.48805e-19 1.48795e-19 1.00678e-23 6.76574e-05 6.91044e-06 0 2.25847e-21 0 4.51707e-21 0 9.01671e-21 0 1.35256e-20 0 1.80349e-20 0 2.25446e-20 0 2.70544e-20 0 3.15663e-20 0 3.60788e-20 0 4.05924e-20 0 4.51062e-20 0 4.96208e-20 0 5.41364e-20 0 5.8652e-20 0 6.3168e-20 0 6.7685e-20 0 7.2203e-20 0 7.67205e-20 0 8.12393e-20 0 8.57586e-20 0 9.02785e-20
0.824824 6.49355e-20 6.49272e-20 8.29288e-24 0.000127709 6.30367e-06 0 2.06357e-21 0 4.12724e-21 0 8.2393e-21 0 1.23594e-20 0 1.64799e-20 0 2.06007e-20 0 2.47216e-20 0 2.88444e-20 0 3.29676e-20 0 3.70918e-20 0 4.12161e-20 0 4.53412e-20 0 4.9467e-20 0 5.35929e-20 0 5.77192e-20 0 6.18462e-20 0 6.59742e-20 0 7.01017e-20 0 7.42303e-20 0 7.83593e-20 0 8.24888e-20
0.867162 3.04583e-20 3.04515e-20 6.83338e-24 0.000224352 5.75769e-06 0 1.94139e-21 0 3.88287e-21 0 7.7521e-21 0 1.16286e-20 0 1.55054e-20 0 1.93824e-20 0 2.32596e-20 0 2.71385e-20 0 3.10177e-20 0 3.48978e-20 0 3.8778e-20 0 4.26589e-20 0 4.65405e-20 0 5.04221e-20 0 5.43039e-20 0 5.81866e-20 0 6.207e-20 0 6.5953e-20 0 6.98369e-20 0 7.37213e-20 0 7.7606e-20
0.911674 1.48966e-20 1.48909e-20 5.62778e-24 0.000377791 5.26375e-06 0 1.82802e-21 0 3.65611e-21 0 7.29997e-21 0 1.09504e-20 0 1.4601e-20 0 1.82519e-20 0 2.19029e-20 0 2.55554e-20 0 2.92082e-20 0 3.28618e-20 0 3.65155e-20 0 4.01698e-20 0 4.38247e-20 0 4.74796e-20 0 5.11348e-20 0 5.47906e-20 0 5.84472e-20 0 6.21033e-20 0 6.57603e-20 0 6.94176e-20 0 7.30754e-20
0.95847 7.53761e-21 7.53298e-21 4.63102e-24 0.000614388 4.82109e-06 0 1.71268e-21 0 3.42543e-21 0 6.83991e-21 0 1.02602e-20 0 1.36808e-20 0 1.71015e-20 0 2.05224e-20 0 2.39446e-20 0 2.73671e-20 0 3.07903e-20 0 3.42135e-20 0 3.76373e-20 0 4.10616e-20 0 4.4486e-20 0 4.79105e-20 0 5.13357e-20 0 5.47614e-20 0 5.81868e-20 0 6.1613e-20 0 6.50394e-20 0 6.84662e-20
1.00767 3.96772e-21 3.9639e-21 3.81107e-24 0.000960519 4.41911e-06 0 1.60843e-21 0 3.21691e-21 0 6.424e-21 0 9.63632e-21 0 1.28488e-20 0 1.60616e-20 0 1.92744e-20 0 2.24884e-20 0 2.57026e-20 0 2.89175e-20 0 3.21325e-20 0 3.53479e-20 0 3.85638e-20 0 4.17797e-20 0 4.49958e-20 0 4.82124e-20 0 5.14295e-20 0 5.46464e-20 0 5.78639e-20 0 6.10817e-20 0 6.42997e-20
1.05939 2.19467e-21 2.19154e-21 3.13498e-24 0.00142845 4.05453e-06 0 1.5321e-21 0 3.06426e-21 0 6.11959e-21 0 9.17968e-21 0 1.22399e-20 0 1.53004e-20 0 1.8361e-20 0 2.14226e-20 0 2.44844e-20 0 2.75468e-20 0 3.06093e-20 0 3.36722e-20 0 3.67355e-20 0 3.97988e-20 0 4.28623e-20 0 4.59262e-20 0 4.89907e-20 0 5.20549e-20 0 5.51196e-20 0 5.81846e-20 0 6.12499e-20
1.11377 1.30503e-21 1.30245e-21 2.57803e-24 0.00197546 3.7226e-06 0 1.51705e-21 0 3.03415e-21 0 6.05985e-21 0 9.09006e-21 0 1.21204e-20 0 1.5151e-20 0 1.81817e-20 0 2.12133e-20 0 2.42451e-20 0 2.72775e-20 0 3.031e-20 0 3.33428e-20 0 3.6376e-20 0 3.94093e-20 0 4.24427e-20 0 4.54765e-20 0 4.85108e-20 0 5.15449e-20 0 5.45795e-20 0 5.76143e-20 0 6.06493e-20
1.17094 8.67388e-22 8.65269e-22 2.11911e-24 0.0024431 3.41278e-06 0 1.62645e-21 0 3.25294e-21 0 6.49724e-21 0 9.74614e-21 0 1.29952e-20 0 1.62445e-20 0 1.94939e-20 0 2.27442e-20 0 2.59948e-20 0 2.92459e-20 0 3.24971e-20 0 3.57487e-20 0 3.90007e-20 0 4.22527e-20 0 4.55049e-20 0 4.87575e-20 0 5.20106e-20 0 5.52634e-20 0 5.85168e-20 0 6.17703e-20 0 6.50242e-20
1.23105 6.66784e-22 6.65041e-22 1.74269e-24 0.00261358 3.12911e-06 0 1.95712e-21 0 3.91429e-21 0 7.81864e-21 0 1.17283e-20 0 1.56381e-20 0 1.95482e-20 0 2.34584e-20 0 2.73697e-20 0 3.12813e-20 0 3.51935e-20 0 3.91058e-20 0 4.30185e-20 0 4.69317e-20 0 5.08449e-20 0 5.47583e-20 0 5.86721e-20 0 6.25865e-20 0 6.65007e-20 0 7.04154e-20 0 7.43304e-20 0 7.82457e-20
1.29424 5.88415e-22 5.86981e-22 1.43359e-24 0.00243635 2.86814e-06 0 2.62756e-21 0 5.25519e-21 0 1.04976e-20 0 1.57468e-20 0 2.09963e-20 0 2.62461e-20 0 3.1496e-20 0 3.67474e-20 0 4.19991e-20 0 4.72516e-20 0 5.25042e-20 0 5.77574e-20 0 6.30111e-20 0 6.82649e-20 0 7.35189e-20 0 7.87735e-20 0 8.40288e-20 0 8.92838e-20 0 9.45396e-20 0 9.97956e-20 0 1.05052e-19
