# 1.2426e-06 0 34 : grain size, compostion index, size index
# Heating and cooling timescale: 21.1451 1346.75
# Ratio of heating to cooling to determine stochastic cutoff: 100
# Equilibrium emission is recorded even for those grains in the stochastic regime.
# Emission spectrum was computed for: 
# Type: ISRF
# Scales: 0.25 0.5 1 1.5 2 2.5 3 3.5 4 4.5 5 5.5 6 6.5 7 7.5 8 8.5 9 9.5 10
# StochasticallyHeated: 1 1 1 1 1 1 1 1 1 1 1 1 1 1 1 1 1 1 1 1 1
# Temperature: -1
# Wavelength  CExt  CAbs  CSca  Albedo G EqEm1 StEm1 EqEm2 StEm2 EqEm3 StEm3 EqEm4 StEm4 EqEm5 StEm5 EqEm6 StEm6 EqEm7 StEm7 EqEm8 StEm8 EqEm9 StEm9 EqEm10 StEm10 EqEm11 StEm11 EqEm12 StEm12 EqEm13 StEm13 EqEm14 StEm14 EqEm15 StEm15 EqEm16 StEm16 EqEm17 StEm17 EqEm18 StEm18 EqEm19 StEm19 EqEm20 StEm20 EqEm21 StEm21
0.05 1.42072e-12 1.31371e-12 1.07015e-13 0.0753243 0.414587 0 0 0 0 0 0 0 0 0 0 0 0 0 0 0 0 0 0 0 0 0 0 0 0 0 0 0 0 0 0 0 0 0 0 0 0 0 0 0 0 0 0
0.0525665 1.84497e-12 1.67047e-12 1.74503e-13 0.0945832 0.380032 0 0 0 0 0 0 0 0 0 0 0 0 0 0 0 0 0 0 0 0 0 0 0 0 0 0 0 0 0 0 0 0 0 0 0 0 0 0 0 0 0 0
0.0552647 2.16522e-12 1.95461e-12 2.10605e-13 0.0972674 0.348607 0 0 0 0 0 0 0 0 0 0 0 0 0 0 0 0 0 0 0 0 0 0 0 0 0 0 0 0 0 0 0 0 0 0 0 0 0 0 0 0 0 0
0.0581015 2.40547e-12 2.1749e-12 2.30562e-13 0.0958494 0.318626 0 0 0 0 0 0 0 0 0 0 0 0 0 0 0 0 0 0 0 0 0 0 0 0 0 0 0 0 0 0 0 0 0 0 0 0 0 0 0 0 0 0
0.0610839 2.5765e-12 2.33783e-12 2.38675e-13 0.0926354 0.289994 0 0 0 0 0 0 0 0 0 0 0 0 0 0 0 0 0 0 0 0 0 0 0 0 0 0 0 0 0 0 0 0 0 0 0 0 0 0 0 0 0 0
0.0642193 2.69674e-12 2.4573e-12 2.39446e-13 0.0887908 0.262893 0 0 0 0 0 0 0 0 0 0 0 0 0 0 0 0 0 0 0 0 0 0 0 0 0 0 0 0 0 0 0 0 0 0 0 0 0 0 0 0 0 0
0.0675157 2.78765e-12 2.55091e-12 2.36736e-13 0.084923 0.237565 0 0 0 0 0 0 0 0 0 0 0 0 0 0 0 0 0 0 0 0 0 0 0 0 0 0 0 0 0 0 0 0 0 0 0 0 0 0 0 0 0 0
0.0709813 2.87234e-12 2.63892e-12 2.33419e-13 0.0812645 0.214226 0 0 0 0 0 0 0 0 0 0 0 0 0 0 0 0 0 0 0 0 0 0 0 0 0 0 0 0 0 0 0 0 0 0 0 0 0 0 0 0 0 0
0.0746248 2.96251e-12 2.7321e-12 2.30413e-13 0.0777761 0.192928 0 0 0 0 0 0 0 0 0 0 0 0 0 0 0 0 0 0 0 0 0 0 0 0 0 0 0 0 0 0 0 0 0 0 0 0 0 0 0 0 0 0
0.0784553 3.05218e-12 2.82572e-12 2.26464e-13 0.0741975 0.173577 0 0 0 0 0 0 0 0 0 0 0 0 0 0 0 0 0 0 0 0 0 0 0 0 0 0 0 0 0 0 0 0 0 0 0 0 0 0 0 0 0 0
0.0824824 3.13702e-12 2.91589e-12 2.21129e-13 0.07049 0.156048 0 0 0 0 0 0 0 0 0 0 0 0 0 0 0 0 0 0 0 0 0 0 0 0 0 0 0 0 0 0 0 0 0 0 0 0 0 0 0 0 0 0
0.0867162 3.21542e-12 3.00091e-12 2.14509e-13 0.0667128 0.140209 0 0 0 0 0 0 0 0 0 0 0 0 0 0 0 0 0 0 0 0 0 0 0 0 0 0 0 0 0 0 0 0 0 0 0 0 0 0 0 0 0 0
0.0911674 3.28813e-12 3.08118e-12 2.06942e-13 0.0629361 0.125944 0 0 0 0 0 0 0 0 0 0 0 0 0 0 0 0 0 0 0 0 0 0 0 0 0 0 0 0 0 0 0 0 0 0 0 0 0 0 0 0 0 0
0.095847 3.35492e-12 3.15629e-12 1.98627e-13 0.0592049 0.113129 0 0 0 0 0 0 0 0 0 0 0 0 0 0 0 0 0 0 0 0 0 0 0 0 0 0 0 0 0 0 0 0 0 0 0 0 0 0 0 0 0 0
0.100767 3.41311e-12 3.22357e-12 1.89533e-13 0.0555308 0.101651 0 0 0 0 0 0 0 0 0 0 0 0 0 0 0 0 0 0 0 0 0 0 0 0 0 0 0 0 0 0 0 0 0 0 0 0 0 0 0 0 0 0
0.105939 3.45655e-12 3.27719e-12 1.79364e-13 0.0518911 0.09142 0 0 0 0 0 0 0 0 0 0 0 0 0 0 0 0 0 0 0 0 0 0 0 0 0 0 0 0 0 0 0 0 0 0 0 0 0 0 0 0 0 0
0.111377 3.45613e-12 3.29017e-12 1.65966e-13 0.0480207 0.0823009 0 0 0 0 0 0 0 0 0 0 0 0 0 0 0 0 0 0 0 0 0 0 0 0 0 0 0 0 0 0 0 0 0 0 0 0 0 0 0 0 0 0
0.117094 3.40582e-12 3.25622e-12 1.49597e-13 0.0439239 0.0741364 0 0 0 0 0 0 0 0 0 0 0 0 0 0 0 0 0 0 0 0 0 0 0 0 0 0 0 0 0 0 0 0 0 0 0 0 0 0 0 0 0 0
0.123105 3.3484e-12 3.21394e-12 1.34453e-13 0.0401545 0.0668144 0 0 0 0 0 0 0 0 0 0 0 0 0 0 0 0 0 0 0 0 0 0 0 0 0 0 0 0 0 0 0 0 0 0 0 0 0 0 0 0 0 0
0.129424 3.26849e-12 3.14875e-12 1.19731e-13 0.0366321 0.060335 0 0 0 0 0 0 0 0 0 0 0 0 0 0 0 0 0 0 0 0 0 0 0 0 0 0 0 0 0 0 0 0 0 0 0 0 0 0 0 0 0 0
0.136067 3.12217e-12 3.01978e-12 1.02396e-13 0.0327965 0.0545636 0 0 0 0 0 0 0 0 0 0 0 0 0 0 0 0 0 0 0 0 0 0 0 0 0 0 0 0 0 0 0 0 0 0 0 0 0 0 0 0 0 0
0.143051 2.98699e-12 2.89952e-12 8.74735e-14 0.0292848 0.0493033 0 0 0 0 0 0 0 0 0 0 0 0 0 0 0 0 0 0 0 0 0 0 0 0 0 0 0 0 0 0 0 0 0 0 0 0 0 0 0 0 0 0
0.150394 2.80867e-12 2.73536e-12 7.33103e-14 0.0261014 0.0447479 0 0 0 0 0 0 0 0 0 0 0 0 0 0 0 0 0 0 0 0 0 0 0 0 0 0 0 0 0 0 0 0 0 0 0 0 0 0 0 0 0 0
0.158114 2.48781e-12 2.43418e-12 5.3627e-14 0.0215559 0.0405369 0 0 0 0 0 0 0 0 0 0 0 0 0 0 0 0 0 0 0 0 0 0 0 0 0 0 0 0 0 0 0 0 0 0 0 0 0 0 0 0 0 0
0.16623 2.32435e-12 2.28345e-12 4.08949e-14 0.0175941 0.0362295 0 0 0 0 0 0 0 0 0 0 0 0 0 0 0 0 0 0 0 0 0 0 0 0 0 0 0 0 0 0 0 0 0 0 0 0 0 0 0 0 0 0
0.174762 2.32584e-12 2.28998e-12 3.58655e-14 0.0154205 0.0322767 0 0 0 0 0 0 0 0 0 0 0 0 0 0 0 0 0 0 0 0 0 0 0 0 0 0 0 0 0 0 0 0 0 0 0 0 0 0 0 0 0 0
0.183733 2.39414e-12 2.36031e-12 3.38338e-14 0.0141319 0.028739 0 0 0 0 0 0 0 0 0 0 0 0 0 0 0 0 0 0 0 0 0 0 0 0 0 0 0 0 0 0 0 0 0 0 0 0 0 0 0 0 0 0
0.193164 2.54566e-12 2.51124e-12 3.44176e-14 0.0135201 0.0255129 0 0 0 0 0 0 0 0 0 0 0 0 0 0 0 0 0 0 0 0 0 0 0 0 0 0 0 0 0 0 0 0 0 0 0 0 0 0 0 0 0 0
0.203079 2.74966e-12 2.71308e-12 3.65761e-14 0.013302 0.0226991 0 0 0 0 0 0 0 0 0 0 0 0 0 0 0 0 0 0 0 0 0 0 0 0 0 0 0 0 0 0 0 0 0 0 0 0 0 0 0 0 0 0
0.213503 2.89081e-12 2.85382e-12 3.69923e-14 0.0127965 0.0202676 0 0 0 0 0 0 0 0 0 0 0 0 0 0 0 0 0 0 0 0 0 0 0 0 0 0 0 0 0 0 0 0 0 0 0 0 0 0 0 0 0 0
0.224463 2.98953e-12 2.9532e-12 3.6323e-14 0.0121501 0.0181199 0 0 0 0 0 0 0 0 0 0 0 0 0 0 0 0 0 0 0 0 0 0 0 0 0 0 0 0 0 0 0 0 0 0 0 0 0 0 0 0 0 0
0.235984 3.06934e-12 3.03414e-12 3.52011e-14 0.0114686 0.0161781 0 0 0 0 0 0 0 0 0 0 0 0 0 0 0 0 0 0 0 0 0 0 0 0 0 0 0 0 0 0 0 0 0 0 0 0 0 0 0 0 0 0
0.248097 3.16879e-12 3.13406e-12 3.47267e-14 0.010959 0.0144026 0 0 0 0 0 0 0 0 0 0 0 0 0 0 0 0 0 0 0 0 0 0 0 0 0 0 0 0 0 0 0 0 0 0 0 0 0 0 0 0 0 0
0.260832 3.19947e-12 3.1662e-12 3.32749e-14 0.0104001 0.0128876 0 0 0 0 0 0 0 0 0 0 0 0 0 0 0 0 0 0 0 0 0 0 0 0 0 0 0 0 0 0 0 0 0 0 0 0 0 0 0 0 0 0
0.274221 3.16013e-12 3.12921e-12 3.0918e-14 0.00978378 0.0115852 0 0 0 0 0 0 0 0 0 0 0 0 0 0 0 0 0 0 0 0 0 0 0 0 0 0 0 0 0 0 0 0 0 0 0 0 0 0 0 0 0 0
0.288297 3.06506e-12 3.03716e-12 2.78977e-14 0.00910186 0.0104526 0 0 0 0 0 0 0 0 0 0 0 0 0 0 0 0 0 0 0 0 0 0 0 0 0 0 0 0 0 0 0 0 0 0 0 0 0 0 0 0 0 0
0.303095 2.92926e-12 2.90453e-12 2.47237e-14 0.00844026 0.009472 0 0 0 0 0 0 0 0 0 0 0 0 0 0 0 0 0 0 0 0 0 0 0 0 0 0 0 0 0 0 0 0 0 0 0 0 0 0 0 0 0 0
0.318653 2.76887e-12 2.74735e-12 2.15273e-14 0.00777475 0.00861095 0 0 0 0 0 0 0 0 0 0 0 0 0 0 0 0 0 0 0 0 0 0 0 0 0 0 0 0 0 0 0 0 0 0 0 0 0 0 0 0 0 0
0.335009 2.59596e-12 2.57743e-12 1.85276e-14 0.00713709 0.007851 0 0 0 0 0 0 0 0 0 0 0 0 0 0 0 0 0 0 0 0 0 0 0 0 0 0 0 0 0 0 0 0 0 0 0 0 0 0 0 0 0 0
0.352205 2.41701e-12 2.40122e-12 1.57909e-14 0.00653325 0.0071801 0 0 0 0 0 0 0 0 0 0 0 0 0 0 0 0 0 0 0 0 0 0 0 0 0 0 0 0 0 0 0 0 0 0 0 0 0 0 0 0 0 0
0.370284 2.24215e-12 2.22876e-12 1.33884e-14 0.00597121 0.00657715 0 0 0 0 0 0 0 0 0 0 0 0 0 0 0 0 0 0 0 0 0 0 0 0 0 0 0 0 0 0 0 0 0 0 0 0 0 0 0 0 0 0
0.389291 2.07224e-12 2.06095e-12 1.12924e-14 0.00544938 0.00603714 0 0 0 0 0 0 0 0 0 0 0 0 0 0 0 0 0 0 0 0 0 0 0 0 0 0 0 0 0 0 0 0 0 0 0 0 0 0 0 0 0 0
0.409273 1.91129e-12 1.90179e-12 9.50102e-15 0.00497099 0.00554794 0 0 0 0 0 0 0 0 0 0 0 0 0 0 0 0 0 0 0 0 0 0 0 0 0 0 0 0 0 0 0 0 0 0 0 0 0 0 0 0 0 0
0.430281 1.75743e-12 1.74946e-12 7.97231e-15 0.00453635 0.00510895 0 0 0 0 0 0 0 0 0 0 0 0 0 0 0 0 0 0 0 0 0 0 0 0 0 0 0 0 0 0 0 0 0 0 0 0 0 0 0 0 0 0
0.452368 1.60866e-12 1.602e-12 6.66171e-15 0.00414116 0.00472124 0 0 0 0 0 0 0 0 0 0 0 0 0 0 0 0 0 0 0 0 0 0 0 0 0 0 0 0 0 0 0 0 0 0 0 0 0 0 0 0 0 0
0.475588 1.46765e-12 1.4621e-12 5.55127e-15 0.00378242 0.00437566 0 0 0 0 0 0 0 0 0 0 0 0 0 0 0 0 0 0 0 0 0 0 0 0 0 0 0 0 0 0 0 0 0 0 0 0 0 0 0 0 0 0
0.5 1.33238e-12 1.32778e-12 4.60022e-15 0.00345262 0.00407518 0 0 0 0 0 0 0 0 0 0 0 0 0 0 0 0 0 0 0 0 0 0 0 0 0 0 0 0 0 0 0 0 0 0 0 0 0 0 0 0 0 0
0.525665 1.20644e-12 1.20264e-12 3.79503e-15 0.00314565 0.00380848 0 0 0 0 0 0 0 0 0 0 0 0 0 0 0 0 0 0 0 0 0 0 0 0 0 0 0 0 0 0 0 0 0 0 0 0 0 0 0 0 0 0
0.552648 1.09141e-12 1.08829e-12 3.12016e-15 0.00285884 0.00356704 0 0 0 0 0 0 0 0 0 0 0 0 0 0 0 0 0 0 0 0 0 0 0 0 0 0 0 0 0 0 0 0 0 0 0 0 0 0 0 0 0 0
0.581015 9.87476e-13 9.84915e-13 2.56037e-15 0.00259284 0.00334461 0 0 0 0 0 0 0 0 0 0 0 0 0 0 0 0 0 0 0 0 0 0 0 0 0 0 0 0 0 0 0 0 0 0 0 0 0 0 0 0 0 0
0.610839 8.93914e-13 8.91814e-13 2.09996e-15 0.00234917 0.00313749 0 0 0 0 0 0 0 0 0 0 0 0 0 0 0 0 0 0 0 0 0 0 0 0 0 0 0 0 0 0 0 0 0 0 0 0 0 0 0 0 0 0
0.642193 8.09944e-13 8.08222e-13 1.72167e-15 0.00212566 0.00294325 0 0 0 0 0 0 0 0 0 0 0 0 0 0 0 0 0 0 0 0 0 0 0 0 0 0 0 0 0 0 0 0 0 0 0 0 0 0 0 0 0 0
0.675157 7.34729e-13 7.33317e-13 1.412e-15 0.0019218 0.00275991 0 0 0 0 0 0 0 0 0 0 0 0 0 0 0 0 0 0 0 0 0 0 0 0 0 0 0 0 0 0 0 0 0 0 0 0 0 0 0 0 0 0
0.709813 6.6635e-13 6.65192e-13 1.1581e-15 0.00173798 0.00258941 0 0 0 0 0 0 0 0 0 0 0 0 0 0 0 0 0 0 0 0 0 0 0 0 0 0 0 0 0 0 0 0 0 0 0 0 0 0 0 0 0 0
0.746248 6.04148e-13 6.03199e-13 9.4946e-16 0.00157157 0.00243076 0 0 0 0 0 0 0 0 0 0 0 0 0 0 0 0 0 0 0 0 0 0 0 0 0 0 0 0 0 0 0 0 0 0 0 0 0 0 0 0 0 0
0.784553 5.46541e-13 5.45763e-13 7.77634e-16 0.00142283 0.00228628 0 0 0 0 0 0 0 0 0 0 0 0 0 0 0 0 0 0 0 0 0 0 0 0 0 0 0 0 0 0 0 0 0 0 0 0 0 0 0 0 0 0
0.824824 4.9368e-13 4.93045e-13 6.35008e-16 0.00128627 0.00215279 0 0 0 0 0 0 0 0 0 0 0 0 0 0 0 0 0 0 0 0 0 0 0 0 0 0 0 0 0 0 0 0 0 0 0 0 0 0 0 0 0 0
0.867162 4.4768e-13 4.47162e-13 5.17485e-16 0.00115593 0.00201975 0 0 0 0 0 0 0 0 0 0 0 0 0 0 0 0 0 0 0 0 0 0 0 0 0 0 0 0 0 0 0 0 0 0 0 0 0 0 0 0 0 0
0.911674 4.08268e-13 4.07846e-13 4.2204e-16 0.00103373 0.00188545 0 0 0 0 0 0 0 0 0 0 0 0 0 0 0 0 0 0 0 0 0 0 0 0 0 0 0 0 0 0 0 0 0 0 0 0 0 0 0 0 0 0
0.95847 3.74305e-13 3.7396e-13 3.45408e-16 0.000922798 0.00175268 0 0 0 0 0 0 0 0 0 0 0 0 0 0 0 0 0 0 0 0 0 0 0 0 0 0 0 0 0 0 0 0 0 0 0 0 0 0 0 0 0 0
1.00767 3.42958e-13 3.42675e-13 2.83164e-16 0.000825651 0.00162984 0 0 0 0 0 0 0 0 0 0 0 0 0 0 0 0 0 0 0 0 0 0 0 0 0 0 0 0 0 0 0 0 0 0 0 0 0 0 0 0 0 0
1.05939 3.14396e-13 3.14164e-13 2.32108e-16 0.000738267 0.00151454 0 0 0 0 0 0 0 0 0 0 0 0 0 0 0 0 0 0 0 0 0 0 0 0 0 0 0 0 0 0 0 0 0 0 0 0 0 0 0 0 0 0
1.11377 2.88404e-13 2.88214e-13 1.90279e-16 0.000659766 0.00140629 0 0 0 0 0 0 0 0 0 0 0 0 0 0 0 0 0 0 0 0 0 0 0 0 0 0 0 0 0 0 0 0 0 0 0 0 0 0 0 0 0 0
1.17094 2.64734e-13 2.64578e-13 1.56126e-16 0.000589746 0.00130498 0 0 0 0 0 0 0 0 0 0 0 0 0 0 0 0 0 0 0 0 0 0 0 0 0 0 0 0 0 0 0 0 0 0 0 0 0 0 0 0 0 0
1.23105 2.43191e-13 2.43063e-13 1.2815e-16 0.000526953 0.0012101 0 0 0 0 0 0 0 0 0 0 0 0 0 0 0 0 0 0 0 0 0 0 0 0 0 0 0 0 0 0 0 0 0 0 0 0 0 0 0 0 0 0
1.29424 2.23267e-13 2.23162e-13 1.05148e-16 0.000470953 0.00112208 0 0 0 0 0 0 0 0 0 0 0 0 0 0 0 0 0 0 0 0 0 0 0 0 0 0 0 0 0 0 0 0 0 0 0 0 0 0 0 0 0 0
1.36067 2.05078e-13 2.04992e-13 8.61279e-17 0.000419977 0.00103908 0 0 0 0 0 0 0 0 0 0 0 0 0 0 0 0 0 0 0 0 0 0 0 0 0 0 0 0 0 0 0 0 0 0 0 0 0 0 0 0 0 0
1.43051 1.89671e-13 1.896e-13 7.05994e-17 0.00037222 0.000957749 0 0 0 0 0 0 0 0 0 0 0 0 0 0 0 0 0 0 0 0 0 0 0 0 0 0 0 0 0 0 0 0 0 0 0 0 0 0 0 0 0 0
1.50394 1.75703e-13 1.75645e-13 5.80191e-17 0.000330211 0.000882568 0 0 0 0 0 0 0 0 0 0 0 0 0 0 0 0 0 0 0 0 0 0 0 0 0 0 0 0 0 0 0 0 0 0 0 0 0 0 0 0 0 0
1.58114 1.6253e-13 1.62483e-13 4.77022e-17 0.000293497 0.000814094 0 0 0 0 0 0 0 0 0 0 0 0 0 0 0 0 0 0 0 0 0 0 0 0 0 0 0 0 0 0 0 0 0 0 0 0 0 0 0 0 0 0
1.6623 1.5014e-13 1.50101e-13 3.91969e-17 0.000261069 0.000751268 0 0 0 0 0 0 0 0 0 0 0 0 0 0 0 0 0 0 0 0 0 0 0 0 0 0 0 0 0 0 0 0 0 0 0 0 0 0 0 0 0 0
1.74763 1.38816e-13 1.38784e-13 3.21843e-17 0.000231849 0.000692537 0 0 0 0 0 0 0 0 0 0 0 0 0 0 0 0 0 0 0 0 0 0 0 0 0 0 0 0 0 0 0 0 0 0 0 0 0 0 0 0 0 0
1.83733 1.29095e-13 1.29068e-13 2.64437e-17 0.000204839 0.00063627 0 0 0 0 0 0 0 0 0 0 0 0 0 0 0 0 0 0 0 0 0 0 0 0 0 0 0 0 0 0 0 0 0 0 0 0 0 0 0 0 0 0
1.93164 1.19827e-13 1.19805e-13 2.17651e-17 0.000181637 0.000585753 0 0 0 0 0 0 0 0 0 0 0 0 0 0 0 0 0 0 0 0 0 0 0 0 0 0 0 0 0 0 0 0 0 0 0 0 0 0 0 0 0 0
2.03079 1.10922e-13 1.10904e-13 1.78905e-17 0.000161288 0.000539684 0 0 0 0 0 0 0 0 0 0 0 0 0 0 0 0 0 0 0 0 0 0 0 0 0 0 0 0 0 0 0 0 0 0 0 0 0 0 0 0 0 0
2.13503 1.03002e-13 1.02988e-13 1.4699e-17 0.000142705 0.000496143 0 0 0 0 0 0 0 0 0 0 0 0 0 0 0 0 0 0 0 0 0 0 0 0 0 0 0 0 0 0 0 0 0 0 0 0 0 0 0 0 0 0
2.24463 9.57767e-14 9.57647e-14 1.20785e-17 0.000126111 0.000455765 0 0 0 0 0 0 0 0 0 0 0 0 0 0 0 0 0 0 0 0 0 0 0 0 0 0 0 0 0 0 0 0 0 0 0 0 0 0 0 0 0 0
2.35984 8.93059e-14 8.9296e-14 9.92988e-18 0.00011119 0.000418108 0 0 0 0 0 0 0 0 0 0 0 0 0 0 0 0 0 0 0 0 0 0 0 0 0 0 0 0 0 0 0 0 0 0 0 0 0 0 0 0 0 0
2.48097 8.3131e-14 8.31228e-14 8.16942e-18 9.82717e-05 0.000384106 0 0 0 0 0 0 0 0 0 0 0 0 0 0 0 0 0 0 0 0 0 0 0 0 0 0 0 0 0 0 0 0 0 0 0 0 0 0 0 0 0 0
2.60832 7.75217e-14 7.7515e-14 6.70321e-18 8.64688e-05 0.000351867 0 0 0 0 0 0 0 0 0 0 0 0 0 0 0 0 0 0 0 0 0 0 0 0 0 0 0 0 0 0 0 0 0 0 0 0 0 0 0 0 0 0
2.74221 7.30608e-14 7.30552e-14 5.52032e-18 7.5558e-05 0.000321306 0 0 0 0 0 0 0 0 0 0 0 0 0 0 0 0 0 0 0 0 0 0 0 0 0 0 0 0 0 0 0 0 0 0 0 0 0 0 0 0 0 0
2.88297 6.82068e-14 6.82022e-14 4.54663e-18 6.66595e-05 0.000294968 0 0 0 0 0 0 0 0 0 0 0 0 0 0 0 0 0 0 0 0 0 0 0 0 0 0 0 0 0 0 0 0 0 0 0 0 0 0 0 0 0 0
3.03095 6.4058e-14 6.40543e-14 3.73945e-18 5.8376e-05 0.000269653 0 0 0 0 0 0 0 0 0 0 0 0 0 0 0 0 0 0 0 0 0 0 0 0 0 0 0 0 0 0 0 0 0 0 0 0 0 0 0 0 0 0
3.18653 6.0296e-14 6.0293e-14 3.08475e-18 5.116e-05 0.000246778 0 0 0 0 0 0 0 0 0 0 0 0 0 0 0 0 0 0 0 0 0 0 0 0 0 0 0 0 0 0 0 0 0 0 0 0 0 0 0 0 0 0
3.35009 5.59349e-14 5.59323e-14 2.54223e-18 4.54498e-05 0.000227513 0 0 0 0 0 0 0 0 0 0 0 0 0 0 0 0 0 0 0 0 0 0 0 0 0 0 0 0 0 0 0 0 0 0 0 0 0 0 0 1.4013e-45 0 1.4013e-45
3.52205 5.27182e-14 5.27161e-14 2.09083e-18 3.96604e-05 0.000207637 0 0 0 0 0 0 0 0 0 0 0 0 0 0 0 0 0 0 0 0 0 0 0 0 0 1.4013e-45 0 1.4013e-45 0 2.8026e-45 0 5.60519e-45 0 1.12104e-44 0 1.96182e-44 0 3.36312e-44 0 5.74532e-44 0 9.3887e-44
3.70284 4.94738e-14 4.94721e-14 1.72298e-18 3.48262e-05 0.000190253 0 0 0 0 0 0 0 0 0 0 0 0 0 0 0 0 0 1.4013e-45 0 4.2039e-45 0 8.40779e-45 0 2.10195e-44 0 4.34403e-44 0 8.68805e-44 0 1.69557e-43 0 3.13891e-43 0 5.61921e-43 0 9.76705e-43 0 1.65633e-42 0 2.73393e-42 0 4.41269e-42
3.89291 4.62191e-14 4.62176e-14 1.42071e-18 3.07387e-05 0.000174868 0 0 0 0 0 0 0 0 0 0 0 1.4013e-45 0 7.00649e-45 0 2.38221e-44 0 7.00649e-44 0 1.79366e-43 0 4.23192e-43 0 9.36067e-43 0 1.94921e-42 0 3.85357e-42 0 7.32459e-42 0 1.336e-41 0 2.35712e-41 0 4.0405e-41 0 6.76169e-41 0 1.10114e-40 0 1.75465e-40
4.09273 4.33849e-14 4.33837e-14 1.1706e-18 2.69816e-05 0.000160231 0 0 0 0 0 0 0 2.8026e-45 0 1.82169e-44 0 8.68805e-44 0 3.27904e-43 0 1.03836e-42 0 2.89508e-42 0 7.27554e-42 0 1.68226e-41 0 3.6452e-41 0 7.44356e-41 0 1.4467e-40 0 2.7036e-40 0 4.85518e-40 0 8.43943e-40 0 1.42618e-39 0 2.35399e-39 1.4013e-45 3.78382e-39 2.8026e-45 5.95434e-39
4.30281 4.07209e-14 4.072e-14 9.62402e-19 2.36341e-05 0.000146571 0 0 0 0 0 8.40779e-45 0 1.09301e-43 0 7.21669e-43 0 3.3435e-42 0 1.22291e-41 0 3.76697e-41 0 1.02397e-40 0 2.51406e-40 0 5.69144e-40 0 1.20919e-39 0 2.42437e-39 0 4.63184e-39 0 8.51567e-39 1.4013e-45 1.50599e-38 5.60519e-45 2.57988e-38 1.68156e-44 4.29929e-38 4.48416e-44 7.001e-38 1.20512e-43 1.11105e-37 2.85865e-43 1.72702e-37
4.52368 3.80487e-14 3.8048e-14 7.91295e-19 2.07969e-05 0.000134417 0 0 0 7.00649e-45 0 3.3491e-43 0 3.89281e-42 0 2.45942e-41 0 1.09715e-40 0 3.88687e-40 0 1.16447e-39 0 3.08729e-39 0 7.41085e-39 0 1.6434e-38 0 3.42474e-38 2.8026e-45 6.74456e-38 1.26117e-44 1.26712e-37 4.90454e-44 2.29262e-37 1.65353e-43 3.99405e-37 5.05869e-43 6.74504e-37 1.41671e-42 1.10877e-36 3.65178e-42 1.78179e-36 9.23456e-42 2.79246e-36 2.10083e-41 4.2886e-36
4.75588 3.56691e-14 3.56685e-14 6.5128e-19 1.82589e-05 0.000123168 0 9.80909e-45 0 2.63444e-43 0 1.09189e-41 0 1.19499e-40 0 7.22121e-40 0 3.10598e-39 0 1.06665e-38 0 3.11e-38 0 8.04656e-38 1.4013e-45 1.88939e-37 1.26117e-44 4.10596e-37 6.30584e-44 8.39642e-37 2.9147e-43 1.62482e-36 1.12244e-42 3.00283e-36 3.90402e-42 5.34854e-36 1.23468e-41 9.18176e-36 3.57429e-41 1.52903e-35 9.51846e-41 2.47998e-35 2.34277e-40 3.93398e-35 5.66211e-40 6.09011e-35 1.23746e-39 9.24318e-35
5 3.32116e-14 3.32111e-14 5.35595e-19 1.61267e-05 0.000113204 0 3.13891e-43 0 8.03084e-42 0 3.04448e-40 0 3.14538e-39 0 1.81985e-38 0 7.55385e-38 0 2.51649e-37 1.4013e-45 7.14516e-37 2.10195e-44 1.8051e-36 1.68156e-43 4.14803e-36 1.01594e-42 8.83773e-36 4.8597e-42 1.77414e-35 2.07196e-41 3.37475e-35 7.46276e-41 6.13724e-35 2.4415e-40 1.07649e-34 7.30067e-40 1.82153e-34 2.00651e-39 2.99203e-34 5.0939e-39 4.7895e-34 1.19982e-38 7.50159e-34 2.77748e-38 1.14739e-33 5.84284e-38 1.72137e-33
5.25665 3.12059e-14 3.12054e-14 4.39212e-19 1.40747e-05 0.000103269 0 9.05099e-42 0 2.13828e-40 0 7.42612e-39 0 7.25305e-38 0 4.0222e-37 0 1.61254e-36 1.26117e-44 5.21492e-36 1.80768e-43 1.44279e-35 1.73341e-42 3.5609e-35 1.22011e-41 8.01183e-35 6.73758e-41 1.67424e-34 2.98733e-40 3.30067e-34 1.18662e-39 6.17378e-34 4.01482e-39 1.10517e-33 1.23963e-38 1.90956e-33 3.51376e-38 3.18582e-33 9.19207e-38 5.16305e-33 2.22981e-37 8.15892e-33 5.03694e-37 1.26207e-32 1.11919e-36 1.90771e-32 2.27043e-36 2.82966e-32
5.52648 2.95317e-14 2.95313e-14 3.60034e-19 1.21914e-05 9.38098e-05 0 2.27974e-40 0 4.98605e-39 0 1.59018e-37 0 1.47037e-36 1.4013e-45 7.82353e-36 4.62428e-44 3.03194e-35 1.01314e-42 9.52504e-35 1.2983e-41 2.56928e-34 1.11192e-40 6.19809e-34 7.11299e-40 1.36602e-33 3.61339e-39 2.80095e-33 1.48976e-38 5.42488e-33 5.5322e-38 9.9812e-33 1.76363e-37 1.75933e-32 5.15379e-37 2.99535e-32 1.3884e-36 4.92851e-32 3.4655e-36 7.8826e-32 8.05063e-36 1.23001e-31 1.74764e-35 1.87955e-31 3.73473e-35 2.80831e-31 7.31921e-35 4.11931e-31
5.81015 2.86214e-14 2.86212e-14 2.94393e-19 1.02857e-05 8.39336e-05 0 5.13057e-39 0 1.04098e-37 0 3.05569e-36 0 2.67867e-35 8.68805e-44 1.36887e-34 3.54388e-42 5.13216e-34 6.72609e-41 1.56726e-33 7.61334e-40 4.12398e-33 5.87136e-39 9.72901e-33 3.43058e-38 2.10128e-32 1.60978e-37 4.22927e-32 6.19343e-37 8.05022e-32 2.15722e-36 1.45743e-31 6.49861e-36 2.53028e-31 1.80219e-35 4.24614e-31 4.6257e-35 6.89223e-31 1.10416e-34 1.08816e-30 2.46163e-34 1.67706e-30 5.14528e-34 2.53217e-30 1.05953e-33 3.74063e-30 2.00934e-33 5.42715e-30
6.10839 2.8358e-14 2.83577e-14 2.42846e-19 8.56358e-06 7.47002e-05 0 1.03517e-37 0 1.95246e-36 0 5.2867e-35 5.46506e-44 4.39957e-34 6.51324e-42 2.16145e-33 2.23227e-40 7.84579e-33 3.67025e-39 2.33051e-32 3.69025e-38 5.98541e-32 2.57575e-37 1.38152e-31 1.38071e-36 2.92531e-31 6.0079e-36 5.78165e-31 2.1643e-35 1.08194e-30 7.09281e-35 1.92802e-30 2.0247e-34 3.29791e-30 5.34213e-34 5.45648e-30 1.30949e-33 8.73955e-30 2.99578e-33 1.36241e-29 6.42245e-33 2.07436e-29 1.29495e-32 3.09546e-29 2.5742e-32 4.52202e-29 4.73164e-32 6.49076e-29
6.42193 2.71089e-14 2.71087e-14 2.03117e-19 7.49263e-06 6.8535e-05 0 1.77603e-36 0 3.12034e-35 4.2039e-45 7.81043e-34 4.04415e-42 6.17852e-33 3.79451e-40 2.92094e-32 1.09445e-38 1.02728e-31 1.56956e-37 2.96994e-31 1.40993e-36 7.44877e-31 8.95049e-36 1.68291e-30 4.42022e-35 3.49504e-30 1.79012e-34 6.7856e-30 6.05762e-34 1.24882e-29 1.87342e-33 2.19114e-29 5.08085e-33 3.69376e-29 1.27855e-32 6.02712e-29 2.99981e-32 9.52813e-29 6.59102e-32 1.46696e-28 1.36136e-31 2.20705e-28 2.65251e-31 3.25575e-28 5.09892e-31 4.70438e-28 9.09786e-31 6.68177e-28
6.75157 2.55613e-14 2.55611e-14 1.67727e-19 6.56177e-06 6.27637e-05 0 2.66142e-35 0 4.36452e-34 3.48923e-43 1.01203e-32 2.34462e-40 7.61977e-32 1.76248e-38 3.46959e-31 4.314e-37 1.18315e-30 5.43241e-36 3.33118e-30 4.38392e-35 8.16298e-30 2.54286e-34 1.80607e-29 1.1616e-33 3.6802e-29 4.39377e-33 7.02133e-29 1.4009e-32 1.27126e-28 4.10016e-32 2.19683e-28 1.05912e-31 3.6508e-28 2.54777e-31 5.87644e-28 5.73395e-31 9.1715e-28 1.21233e-30 1.39491e-27 2.41692e-30 2.07423e-27 4.55829e-30 3.02543e-27 8.48721e-30 4.32486e-27 1.47214e-29 6.07955e-27
