# 2.2387e-06 0 72 : grain size, compostion index, size index
# Heating and cooling timescale: 4.74862 4172.08
# Ratio of heating to cooling to determine stochastic cutoff: 100
# Equilibrium emission is recorded even for those grains in the stochastic regime.
# Emission spectrum was computed for: 
# Type: IRSF
# Scales: 0.25 0.5 1 1.5 2 2.5 3 3.5 4 4.5 5 5.5 6 6.5 7 7.5 8 8.5 9 9.5 10
# StochasticallyHeated: 1 1 1 0 0 0 0 0 0 0 0 0 0 0 0 0 0 0 0 0 0
# Temperature: -1
# Wavelength  CExt  CAbs  CSca  Albedo G EqEm1 StEm1 EqEm2 StEm2 EqEm3 StEm3 EqEm4 StEm4 EqEm5 StEm5 EqEm6 StEm6 EqEm7 StEm7 EqEm8 StEm8 EqEm9 StEm9 EqEm10 StEm10 EqEm11 StEm11 EqEm12 StEm12 EqEm13 StEm13 EqEm14 StEm14 EqEm15 StEm15 EqEm16 StEm16 EqEm17 StEm17 EqEm18 StEm18 EqEm19 StEm19 EqEm20 StEm20 EqEm21 StEm21
0.05 1.17392e-11 6.53971e-12 5.1995e-12 0.442917 0.00576547 0 0 0 0 0 0 0 0 0 0 0 0 0 0 0 0 0 0 0 0 0 0 0 0 0 0 0 0 0 0 0 0 0 0 0 0 0 0 0 0 0 0
0.0525665 1.29753e-11 7.22831e-12 5.74698e-12 0.442917 0.00637255 0 0 0 0 0 0 0 0 0 0 0 0 0 0 0 0 0 0 0 0 0 0 0 0 0 0 0 0 0 0 0 0 0 0 0 0 0 0 0 0 0 0
0.0552647 1.43415e-11 7.98941e-12 6.35211e-12 0.442917 0.00704355 0 0 0 0 0 0 0 0 0 0 0 0 0 0 0 0 0 0 0 0 0 0 0 0 0 0 0 0 0 0 0 0 0 0 0 0 0 0 0 0 0 0
0.0581015 1.58516e-11 8.83066e-12 7.02095e-12 0.442917 0.0077852 0 0 0 0 0 0 0 0 0 0 0 0 0 0 0 0 0 0 0 0 0 0 0 0 0 0 0 0 0 0 0 0 0 0 0 0 0 0 0 0 0 0
0.0610839 1.75207e-11 9.76049e-12 7.76023e-12 0.442917 0.00860494 0 0 0 0 0 0 0 0 0 0 0 0 0 0 0 0 0 0 0 0 0 0 0 0 0 0 0 0 0 0 0 0 0 0 0 0 0 0 0 0 0 0
0.0642193 1.93656e-11 1.07882e-11 8.57734e-12 0.442917 0.009511 0 0 0 0 0 0 0 0 0 0 0 0 0 0 0 0 0 0 0 0 0 0 0 0 0 0 0 0 0 0 0 0 0 0 0 0 0 0 0 0 0 0
0.0675157 2.14047e-11 1.19242e-11 9.48049e-12 0.442917 0.0105125 0 0 0 0 0 0 0 0 0 0 0 0 0 0 0 0 0 0 0 0 0 0 0 0 0 0 0 0 0 0 0 0 0 0 0 0 0 0 0 0 0 0
0.0709813 2.36585e-11 1.31797e-11 1.04787e-11 0.442917 0.0116194 0 0 0 0 0 0 0 0 0 0 0 0 0 0 0 0 0 0 0 0 0 0 0 0 0 0 0 0 0 0 0 0 0 0 0 0 0 0 0 0 0 0
0.0746248 2.61496e-11 1.45675e-11 1.15821e-11 0.442917 0.0128428 0 0 0 0 0 0 0 0 0 0 0 0 0 0 0 0 0 0 0 0 0 0 0 0 0 0 0 0 0 0 0 0 0 0 0 0 0 0 0 0 0 0
0.0784553 2.8903e-11 1.61014e-11 1.28016e-11 0.442917 0.0141951 0 0 0 0 0 0 0 0 0 0 0 0 0 0 0 0 0 0 0 0 0 0 0 0 0 0 0 0 0 0 0 0 0 0 0 0 0 0 0 0 0 0
0.0824824 3.19463e-11 1.77968e-11 1.41496e-11 0.442917 0.0156898 0 0 0 0 0 0 0 0 0 0 0 0 0 0 0 0 0 0 0 0 0 0 0 0 0 0 0 0 0 0 0 0 0 0 0 0 0 0 0 0 0 0
0.0867162 3.53102e-11 1.96707e-11 1.56395e-11 0.442917 0.0173419 0 0 0 0 0 0 0 0 0 0 0 0 0 0 0 0 0 0 0 0 0 0 0 0 0 0 0 0 0 0 0 0 0 0 0 0 0 0 0 0 0 0
0.0911674 3.90282e-11 2.17419e-11 1.72862e-11 0.442917 0.0191679 0 0 0 0 0 0 0 0 0 0 0 0 0 0 0 0 0 0 0 0 0 0 0 0 0 0 0 0 0 0 0 0 0 0 0 0 0 0 0 0 0 0
0.095847 4.31376e-11 2.40312e-11 1.91064e-11 0.442917 0.0211862 0 0 0 0 0 0 0 0 0 0 0 0 0 0 0 0 0 0 0 0 0 0 0 0 0 0 0 0 0 0 0 0 0 0 0 0 0 0 0 0 0 0
0.100767 4.69411e-11 2.61702e-11 2.07708e-11 0.442487 0.0235692 0 0 0 0 0 0 0 0 0 0 0 0 0 0 0 0 0 0 0 0 0 0 0 0 0 0 0 0 0 0 0 0 0 0 0 0 0 0 0 0 0 0
0.105939 4.62527e-11 2.62504e-11 2.00022e-11 0.432456 0.0256046 0 0 0 0 0 0 0 0 0 0 0 0 0 0 0 0 0 0 0 0 0 0 0 0 0 0 0 0 0 0 0 0 0 0 0 0 0 0 0 0 0 0
0.111377 4.69596e-11 2.6363e-11 2.05966e-11 0.438603 0.0289403 0 0 0 0 0 0 0 0 0 0 0 0 0 0 0 0 0 0 0 0 0 0 0 0 0 0 0 0 0 0 0 0 0 0 0 0 0 0 0 0 0 0
0.117094 4.61117e-11 2.48363e-11 2.12753e-11 0.461387 0.0274507 0 0 0 0 0 0 0 0 0 0 0 0 0 0 0 0 0 0 0 0 0 0 0 0 0 0 0 0 0 0 0 0 0 0 0 0 0 0 0 0 0 0
0.123105 3.49771e-11 1.86417e-11 1.63354e-11 0.467031 0.0236555 0 0 0 0 0 0 0 0 0 0 0 0 0 0 0 0 0 0 0 0 0 0 0 0 0 0 0 0 0 0 0 0 0 0 0 0 0 0 0 0 0 0
0.129424 2.45521e-11 1.35935e-11 1.09586e-11 0.446342 0.0199126 0 0 0 0 0 0 0 0 0 0 0 0 0 0 0 0 0 0 0 0 0 0 0 0 0 0 0 0 0 0 0 0 0 0 0 0 0 0 0 0 0 0
0.136067 1.8309e-11 1.11377e-11 7.17138e-12 0.391685 0.0168557 0 0 0 0 0 0 0 0 0 0 0 0 0 0 0 0 0 0 0 0 0 0 0 0 0 0 0 0 0 0 0 0 0 0 0 0 0 0 0 0 0 0
0.143051 1.47213e-11 1.00941e-11 4.62724e-12 0.314323 0.0143876 0 0 0 0 0 0 0 0 0 0 0 0 0 0 0 0 0 0 0 0 0 0 0 0 0 0 0 0 0 0 0 0 0 0 0 0 0 0 0 0 0 0
0.150394 1.28481e-11 9.88886e-12 2.95919e-12 0.230322 0.0122986 0 0 0 0 0 0 0 0 0 0 0 0 0 0 0 0 0 0 0 0 0 0 0 0 0 0 0 0 0 0 0 0 0 0 0 0 0 0 0 0 0 0
0.158114 1.22808e-11 1.0349e-11 1.93183e-12 0.157305 0.01055 0 0 0 0 0 0 0 0 0 0 0 0 0 0 0 0 0 0 0 0 0 0 0 0 0 0 0 0 0 0 0 0 0 0 0 0 0 0 0 0 0 0
0.16623 1.28256e-11 1.14235e-11 1.40215e-12 0.109324 0.00908216 0 0 0 0 0 0 0 0 0 0 0 0 0 0 0 0 0 0 0 0 0 0 0 0 0 0 0 0 0 0 0 0 0 0 0 0 0 0 0 0 0 0
0.174762 1.42198e-11 1.29839e-11 1.23581e-12 0.0869082 0.00782097 0 0 0 0 0 0 0 0 0 0 0 0 0 0 0 0 0 0 0 0 0 0 0 0 0 0 0 0 0 0 0 0 0 0 0 0 0 0 0 0 0 0
0.183733 1.65605e-11 1.51959e-11 1.36463e-12 0.0824025 0.00667218 0 0 0 0 0 0 0 0 0 0 0 0 0 0 0 0 0 0 0 0 0 0 0 0 0 0 0 0 0 0 0 0 0 0 0 0 0 0 0 0 0 0
0.193164 2.06069e-11 1.86926e-11 1.91422e-12 0.0928923 0.00556038 0 0 0 0 0 0 0 0 0 0 0 0 0 0 0 0 0 0 0 0 0 0 0 0 0 0 0 0 0 0 0 0 0 0 0 0 0 0 0 0 0 0
0.203079 2.67637e-11 2.37513e-11 3.01244e-12 0.112557 0.00446034 0 0 0 0 0 0 0 0 0 0 0 0 0 0 0 0 0 0 0 0 0 0 0 0 0 0 0 0 0 0 0 0 0 0 0 0 0 0 0 0 0 0
0.213503 3.41187e-11 2.95238e-11 4.59488e-12 0.134674 0.00342932 0 0 0 0 0 0 0 0 0 0 0 0 0 0 0 0 0 0 0 0 0 0 0 0 0 0 0 0 0 0 0 0 0 0 0 0 0 0 0 0 0 0
0.224463 3.9046e-11 3.30207e-11 6.02529e-12 0.154313 0.00254317 0 0 0 0 0 0 0 0 0 0 0 0 0 0 0 0 0 0 0 0 0 0 0 0 0 0 0 0 0 0 0 0 0 0 0 0 0 0 0 0 0 0
0.235984 3.76948e-11 3.13677e-11 6.32708e-12 0.16785 0.00182186 0 0 0 0 0 0 0 0 0 0 0 0 0 0 0 0 0 0 0 0 0 0 0 0 0 0 0 0 0 0 0 0 0 0 0 0 0 0 0 0 0 0
0.248097 3.13789e-11 2.59147e-11 5.46415e-12 0.174135 0.00138916 0 0 0 0 0 0 0 0 0 0 0 0 0 0 0 0 0 0 0 0 0 0 0 0 0 0 0 0 0 0 0 0 0 0 0 0 0 0 0 0 0 0
0.260832 2.41159e-11 1.99467e-11 4.16915e-12 0.17288 0.00141961 0 0 0 0 0 0 0 0 0 0 0 0 0 0 0 0 0 0 0 0 0 0 0 0 0 0 0 0 0 0 0 0 0 0 0 0 0 0 0 0 0 0
0.274221 1.82699e-11 1.52721e-11 2.99779e-12 0.164084 0.00187131 0 0 0 0 0 0 0 0 0 0 0 0 0 0 0 0 0 0 0 0 0 0 0 0 0 0 0 0 0 0 0 0 0 0 0 0 0 0 0 0 0 0
0.288297 1.40377e-11 1.19213e-11 2.11632e-12 0.15076 0.00251556 0 0 0 0 0 0 0 0 0 0 0 0 0 0 0 0 0 0 0 0 0 0 0 0 0 0 0 0 0 0 0 0 0 0 0 0 0 0 0 0 0 0
0.303095 1.10146e-11 9.51076e-12 1.50382e-12 0.13653 0.0028362 0 0 0 0 0 0 0 0 0 0 0 0 0 0 0 0 0 0 0 0 0 0 0 0 0 0 0 0 0 0 0 0 0 0 0 0 0 0 0 0 0 0
0.318653 9.00471e-12 7.91329e-12 1.09141e-12 0.121205 0.00297223 0 0 0 0 0 0 0 0 0 0 0 0 0 0 0 0 0 0 0 0 0 0 0 0 0 0 0 0 0 0 0 0 0 0 0 0 0 0 0 0 0 0
0.335009 7.77551e-12 6.96039e-12 8.15113e-13 0.104831 0.00293231 0 0 0 0 0 0 0 0 0 0 0 0 0 0 0 0 0 0 0 0 0 0 0 0 0 0 0 0 0 0 0 0 0 0 0 0 0 0 0 0 0 0
0.352205 7.02481e-12 6.39771e-12 6.27095e-13 0.0892687 0.00278811 0 0 0 0 0 0 0 0 0 0 0 0 0 0 0 0 0 0 0 0 0 0 0 0 0 0 0 0 0 0 0 0 0 0 0 0 0 0 0 0 0 0
0.370284 6.52186e-12 6.0265e-12 4.95362e-13 0.0759541 0.00261033 0 0 0 0 0 0 0 0 0 0 0 0 0 0 0 0 0 0 0 0 0 0 0 0 0 0 0 0 0 0 0 0 0 0 0 0 0 0 0 0 0 0
0.389291 6.12102e-12 5.72169e-12 3.99328e-13 0.0652388 0.00243645 0 0 0 0 0 0 0 0 0 0 0 0 0 0 0 0 0 0 0 0 0 0 0 0 0 0 0 0 0 0 0 0 0 0 0 0 0 0 0 0 0 0
0.409273 5.74395e-12 5.418e-12 3.25943e-13 0.0567455 0.00226652 0 0 0 0 0 0 0 0 0 0 0 0 0 0 0 0 0 0 0 0 0 0 0 0 0 0 0 0 0 0 0 0 0 0 0 0 0 0 0 0 0 0
0.430281 5.36313e-12 5.09554e-12 2.6759e-13 0.0498944 0.00210471 0 0 0 0 0 0 0 0 0 0 0 0 0 0 0 0 0 0 0 0 0 0 0 0 0 0 0 0 0 0 0 0 0 0 0 0 0 0 0 0 0 0
0.452368 4.9804e-12 4.76044e-12 2.19958e-13 0.0441648 0.00193723 0 0 0 0 0 0 0 0 0 0 0 0 0 0 0 0 0 0 0 0 0 0 0 0 0 0 0 0 0 0 0 0 0 0 0 0 0 0 0 0 0 0
0.475588 4.60996e-12 4.4293e-12 1.80665e-13 0.0391902 0.00177642 0 0 0 0 0 0 0 0 0 0 0 0 0 0 0 0 0 0 0 0 0 0 0 0 0 0 0 0 0 0 0 0 0 0 0 0 0 0 0 0 0 0
0.5 4.26529e-12 4.11706e-12 1.48229e-13 0.0347524 0.00162159 0 0 0 0 0 0 0 0 0 0 0 0 0 0 0 0 0 0 0 0 0 0 0 0 0 0 0 0 0 0 0 0 0 0 0 0 0 0 0 0 0 0
0.525665 3.95437e-12 3.83283e-12 1.21543e-13 0.0307363 0.0014751 0 0 0 0 0 0 0 0 0 0 0 0 0 0 0 0 0 0 0 0 0 0 0 0 0 0 0 0 0 0 0 0 0 0 0 0 0 0 0 0 0 0
0.552648 3.67978e-12 3.58009e-12 9.9686e-14 0.0270902 0.00134175 0 0 0 0 0 0 0 0 0 0 0 0 0 0 0 0 0 0 0 0 0 0 0 0 0 0 0 0 0 0 0 0 0 0 0 0 0 0 0 0 0 0
0.581015 3.43957e-12 3.35771e-12 8.18605e-14 0.0237996 0.00121775 0 0 0 0 0 0 0 0 0 0 0 0 0 0 0 0 0 0 0 0 0 0 0 0 0 0 0 0 0 0 0 0 0 0 0 0 0 0 0 0 0 0
0.610839 3.22947e-12 3.16213e-12 6.73379e-14 0.0208511 0.00110516 0 0 0 0 0 0 0 0 0 0 0 0 0 0 0 0 0 0 0 0 0 0 0 0 0 0 0 0 0 0 0 0 0 0 0 0 0 0 0 0 0 0
0.642193 3.04414e-12 2.98862e-12 5.55173e-14 0.0182374 0.00100302 0 0 0 0 0 0 0 0 0 0 0 0 0 0 0 0 0 0 0 0 0 0 0 0 0 0 0 0 0 0 0 0 0 0 0 0 0 0 0 0 0 0
0.675157 2.87807e-12 2.83219e-12 4.58816e-14 0.0159418 0.000910957 0 0 0 0 0 0 0 0 0 0 0 0 0 0 0 0 0 0 0 0 0 0 0 0 0 0 0 0 0 0 0 0 0 0 0 0 0 0 0 0 0 0
0.709813 2.72638e-12 2.68838e-12 3.8007e-14 0.0139405 0.00082817 0 0 0 0 0 0 0 0 0 0 0 0 0 0 0 0 0 0 0 0 0 0 0 0 0 0 0 0 0 0 0 0 0 0 0 0 0 0 0 0 0 0
0.746248 2.58496e-12 2.55341e-12 3.15507e-14 0.0122055 0.000754183 0 0 0 0 0 0 0 0 0 0 0 0 0 0 0 0 0 0 0 0 0 0 0 0 0 0 0 0 0 0 0 0 0 0 0 0 0 0 0 0 0 0
0.784553 2.45041e-12 2.42418e-12 2.62387e-14 0.0107079 0.000686995 0 0 0 0 0 0 0 0 0 0 0 0 0 0 0 0 0 0 0 0 0 0 0 0 0 0 0 0 0 0 0 0 0 0 0 0 0 0 0 0 0 0
0.824824 2.32076e-12 2.29891e-12 2.18527e-14 0.00941617 0.000626788 0 0 0 0 0 0 0 0 0 0 0 0 0 0 0 0 0 0 0 0 0 0 0 0 0 0 0 0 0 0 0 0 0 0 0 0 0 0 0 0 0 0
0.867162 2.19423e-12 2.17602e-12 1.82162e-14 0.00830187 0.000572518 0 0 0 0 0 0 0 0 0 0 0 0 0 0 0 0 0 0 0 0 0 0 0 0 0 0 0 0 0 0 0 0 0 0 0 0 0 0 0 0 0 0
0.911674 2.07021e-12 2.05501e-12 1.51937e-14 0.00733921 0.000523427 0 0 0 0 0 0 0 0 0 0 0 0 0 0 0 0 0 0 0 0 0 0 0 0 0 0 0 0 0 0 0 0 0 0 0 0 0 0 0 0 0 0
0.95847 1.94866e-12 1.93598e-12 1.26744e-14 0.00650418 0.00047944 0 0 0 0 0 0 0 0 0 0 0 0 0 0 0 0 0 0 0 0 0 0 0 0 0 0 0 0 0 0 0 0 0 0 0 0 0 0 0 0 0 0
1.00767 1.83142e-12 1.82085e-12 1.05722e-14 0.00577268 0.0004395 0 0 0 0 0 0 0 0 0 0 0 0 0 0 0 0 0 0 0 0 0 0 0 0 0 0 0 0 0 0 0 0 0 0 0 0 0 0 0 0 0 0
1.05939 1.72104e-12 1.71223e-12 8.81448e-15 0.0051216 0.000403275 0 0 0 0 0 0 0 0 0 0 0 0 0 0 0 0 0 0 0 0 0 0 0 0 0 0 0 0 0 0 0 0 0 0 0 0 0 0 0 0 0 0
1.11377 1.59796e-12 1.59061e-12 7.34119e-15 0.00459412 0.000370298 0 0 0 0 0 0 0 0 0 0 0 0 0 0 0 0 0 0 0 0 0 0 0 0 0 0 0 0 0 0 0 0 0 0 0 0 0 0 0 0 0 0
1.17094 1.4863e-12 1.48019e-12 6.11191e-15 0.00411217 0.000339515 0 0 0 0 0 0 0 0 0 0 0 0 0 0 0 0 0 0 0 0 0 0 0 0 0 0 0 0 0 0 0 0 0 0 0 0 0 0 0 0 0 0
1.23105 1.38035e-12 1.37526e-12 5.08208e-15 0.00368174 0.000311294 0 0 0 0 0 0 0 0 0 0 0 0 0 0 0 0 0 0 0 0 0 0 0 0 0 0 0 0 0 0 0 0 0 0 0 0 0 0 0 0 0 0
1.29424 1.27788e-12 1.27366e-12 4.22203e-15 0.00330393 0.000285362 0 0 0 0 0 0 0 0 0 0 0 0 0 0 0 0 0 0 0 0 0 0 0 0 0 0 0 0 0 0 0 0 0 0 0 0 0 0 0 0 0 0
1.36067 1.17916e-12 1.17566e-12 3.50379e-15 0.00297142 0.000261742 0 0 0 0 0 0 0 0 0 0 0 0 0 0 0 0 0 0 0 0 0 0 0 0 0 0 0 0 0 0 0 0 0 0 0 0 0 0 0 0 0 0
1.43051 1.08628e-12 1.08338e-12 2.90401e-15 0.00267335 0.000240209 0 0 0 0 0 0 0 0 0 0 0 0 0 0 0 0 0 0 0 0 0 0 0 0 0 0 0 0 0 0 0 0 0 0 0 0 0 0 0 0 0 0
1.50394 9.99163e-13 9.96759e-13 2.40475e-15 0.00240676 0.000220279 0 0 0 0 0 0 0 0 0 0 0 0 0 0 0 0 0 0 0 0 0 0 0 0 0 0 0 0 0 0 0 0 0 0 0 0 0 0 0 0 0 0
1.58114 9.17615e-13 9.15626e-13 1.98957e-15 0.0021682 0.000201732 0 0 0 0 0 0 0 0 0 0 0 0 0 0 0 0 0 0 0 0 0 0 0 0 0 0 0 0 0 0 0 0 0 0 0 0 0 0 0 0 0 0
1.6623 8.41458e-13 8.39813e-13 1.64438e-15 0.0019542 0.000184534 0 0 0 0 0 0 0 0 0 0 0 0 0 0 0 0 0 0 0 0 0 0 0 0 0 0 0 0 0 0 0 0 0 0 0 0 0 0 0 0 0 0
1.74763 7.70624e-13 7.69266e-13 1.35796e-15 0.00176216 0.000169005 0 0 0 0 0 0 0 0 0 0 0 0 0 0 0 0 0 0 0 0 0 0 0 0 0 0 0 0 0 0 0 0 0 0 0 0 0 0 0 0 0 0
1.83733 7.04921e-13 7.038e-13 1.12049e-15 0.00158953 0.000154804 0 0 0 0 0 0 0 0 0 0 0 0 0 0 0 0 0 0 0 0 0 0 0 0 0 0 0 0 0 0 0 0 0 0 0 0 0 0 0 0 0 0
1.93164 6.44155e-13 6.43231e-13 9.23813e-16 0.00143415 0.000141793 0 0 0 0 0 0 0 0 0 0 0 0 0 0 0 0 0 0 0 0 0 0 0 0 0 0 0 0 0 0 0 0 0 0 0 0 0 0 0 0 0 0
2.03079 5.88185e-13 5.87424e-13 7.61099e-16 0.00129398 0.000129725 0 0 0 0 0 0 0 0 0 0 0 0 0 0 0 0 0 0 0 0 0 0 0 0 0 0 0 0 0 0 0 0 0 0 0 0 0 0 0 0 0 0
2.13503 5.36715e-13 5.36088e-13 6.26723e-16 0.0011677 0.000118657 0 0 0 0 0 0 0 0 0 0 0 0 0 0 0 0 0 0 0 0 0 0 0 0 0 0 0 0 0 0 0 0 0 0 0 0 0 0 0 0 0 0
2.24463 4.89415e-13 4.88899e-13 5.15727e-16 0.00105376 0.000108569 0 0 0 0 0 0 0 0 0 0 0 0 0 0 0 0 0 0 0 0 0 0 0 0 0 0 0 0 0 0 0 0 0 0 0 0 0 0 0 0 0 0
2.35984 4.46065e-13 4.45641e-13 4.24181e-16 0.000950939 9.92926e-05 0 0 0 0 0 0 0 0 0 0 0 0 0 0 0 0 0 0 0 0 0 0 0 0 0 0 0 0 0 0 0 0 0 0 0 0 0 0 0 0 0 0
2.48097 4.06399e-13 4.0605e-13 3.48721e-16 0.000858077 9.07218e-05 0 0 0 0 0 0 0 0 0 0 0 0 0 0 0 0 0 0 0 0 0 0 0 0 0 0 0 0 0 0 0 0 0 0 0 0 0 0 0 0 0 0
2.60832 3.7016e-13 3.69874e-13 2.86558e-16 0.000774146 8.27967e-05 0 0 0 0 0 0 0 0 0 0 0 0 0 0 0 0 0 0 0 0 0 0 0 0 0 0 0 0 0 0 0 0 0 0 0 0 0 0 0 0 0 0
2.74221 3.37102e-13 3.36867e-13 2.35409e-16 0.000698332 7.55862e-05 0 0 0 0 0 0 0 0 0 0 0 0 0 0 0 0 0 0 0 0 0 0 0 0 0 0 0 0 0 0 0 0 0 0 0 0 0 0 0 0 0 0
2.88297 3.06933e-13 3.0674e-13 1.93278e-16 0.000629707 6.90729e-05 0 0 0 0 0 0 0 0 0 0 0 0 0 0 0 0 0 0 0 0 0 0 0 0 0 0 0 0 0 0 0 0 0 0 0 0 0 0 0 0 0 0
3.03095 2.79489e-13 2.7933e-13 1.58683e-16 0.000567761 6.31538e-05 0 0 0 0 0 0 0 0 0 0 0 0 0 0 0 0 0 0 0 0 0 0 0 0 0 0 0 0 0 0 0 0 0 0 0 0 0 0 0 0 0 0
3.18653 2.54503e-13 2.54373e-13 1.30216e-16 0.000511647 5.76567e-05 0 0 0 0 0 0 0 0 0 0 0 0 0 0 0 0 0 0 0 0 0 0 0 0 0 0 0 0 0 0 0 0 0 0 0 0 0 0 0 0 0 0
3.35009 2.31827e-13 2.3172e-13 1.0683e-16 0.000460818 5.2603e-05 0 0 0 0 0 0 0 0 0 0 0 0 0 0 0 0 0 0 0 0 0 0 0 0 0 0 0 0 0 0 0 0 0 0 0 0 0 0 0 0 0 0
3.52205 2.11134e-13 2.11047e-13 8.76338e-17 0.000415062 4.80102e-05 0 0 0 0 0 0 0 0 0 0 0 0 0 0 0 0 0 0 0 0 0 0 0 0 0 0 0 0 0 0 0 0 0 0 0 0 0 0 0 0 0 0
3.70284 1.9238e-13 1.92308e-13 7.18666e-17 0.000373566 4.38066e-05 0 0 0 0 0 0 0 0 0 0 0 0 0 0 0 0 0 0 0 0 0 0 0 0 0 0 0 0 0 0 0 0 0 0 0 0 0 0 0 0 0 0
3.89291 1.7536e-13 1.75302e-13 5.89233e-17 0.000336013 3.9926e-05 0 0 0 0 0 0 0 0 0 0 0 0 0 0 0 0 0 0 0 0 0 0 0 0 0 0 0 0 0 0 0 0 0 0 0 0 0 0 0 0 0 0
4.09273 1.59921e-13 1.59873e-13 4.8306e-17 0.000302062 3.62643e-05 0 0 0 0 0 0 0 0 0 0 0 0 0 0 0 0 0 0 0 0 0 0 0 0 0 0 0 0 0 0 0 0 0 0 0 0 0 0 0 0 0 0
4.30281 1.45916e-13 1.45876e-13 3.95971e-17 0.00027137 3.29535e-05 0 0 0 0 0 0 0 0 0 0 0 0 0 0 0 0 0 0 0 0 0 0 0 0 0 0 0 0 0 0 0 0 0 0 0 0 1.4013e-45 0 2.8026e-45 0 7.00649e-45 0
4.52368 1.33224e-13 1.33191e-13 3.24569e-17 0.000243627 2.99416e-05 0 0 0 0 0 0 0 0 0 0 0 0 0 0 0 0 0 0 0 0 0 0 0 0 0 0 0 0 1.4013e-45 0 4.2039e-45 0 1.26117e-44 0 3.92364e-44 0 1.079e-43 0 2.83062e-43 0 7.03452e-43 0
4.75588 1.21725e-13 1.21699e-13 2.66022e-17 0.000218543 2.71796e-05 0 0 0 0 0 0 0 0 0 0 0 0 0 0 0 0 0 0 0 0 0 0 1.4013e-45 0 7.00649e-45 0 2.8026e-44 0 1.079e-43 0 3.62936e-43 0 1.13785e-42 0 3.25662e-42 0 8.54792e-42 0 2.1318e-41 0 5.06401e-41 0
5 1.11313e-13 1.11291e-13 2.17997e-17 0.000195841 2.45398e-05 0 0 0 0 0 0 0 0 0 0 0 0 0 0 0 0 0 0 2.8026e-45 0 2.38221e-44 0 1.27518e-43 0 5.84341e-43 0 2.34017e-42 0 8.419e-42 0 2.65434e-41 0 7.88062e-41 0 2.1432e-40 0 5.36601e-40 0 1.27981e-39 0 2.91443e-39 0
5.25665 1.01965e-13 1.01947e-13 1.78638e-17 0.000175197 2.21678e-05 0 0 0 0 0 0 0 0 0 0 0 0 0 0 4.2039e-45 0 4.06377e-44 0 3.15292e-43 0 1.96042e-42 0 9.711e-42 0 4.12192e-41 0 1.54183e-40 0 5.21077e-40 0 1.55329e-39 0 4.37297e-39 0 1.13258e-38 0 2.71141e-38 0 6.1981e-38 0 1.35587e-37 0
5.52648 9.33867e-14 9.33721e-14 1.4637e-17 0.000156735 2.00489e-05 0 0 0 0 0 1.4013e-45 0 0 0 0 1.4013e-45 0 2.24208e-44 0 3.29305e-43 0 3.20197e-42 0 2.25777e-41 0 1.28095e-40 0 5.86994e-40 0 2.32177e-39 0 8.14307e-39 0 2.59317e-38 0 7.32862e-38 0 1.96155e-37 0 4.84968e-37 0 1.11258e-36 0 2.44265e-36 0 5.14306e-36 0
5.81015 8.57225e-14 8.57105e-14 1.1993e-17 0.000139905 1.8115e-05 0 0 0 0 0 3.92364e-44 0 0 1.4013e-45 0 8.12753e-44 0 1.78666e-42 0 2.31943e-41 0 2.01424e-40 0 1.29115e-39 0 6.73006e-39 0 2.86314e-38 0 1.05894e-37 0 3.49328e-37 0 1.05127e-36 0 2.82408e-36 0 7.20408e-36 0 1.70411e-35 0 3.75412e-35 0 7.93169e-35 0 1.61042e-34 0
6.10839 7.92696e-14 7.92597e-14 9.82983e-18 0.000124005 1.63023e-05 0 0 0 2.8026e-45 0 1.81608e-42 1.4013e-45 0 1.41531e-43 0 6.07183e-42 0 1.14623e-40 0 1.31276e-39 0 1.02583e-38 0 6.00547e-38 0 2.8879e-37 0 1.14473e-36 0 3.97192e-36 0 1.2361e-35 0 3.52512e-35 0 9.02365e-35 0 2.199e-34 0 4.98758e-34 0 1.05719e-33 0 2.15352e-33 0 4.22382e-33 0
6.42193 7.22848e-14 7.22767e-14 8.03316e-18 0.000111132 1.48144e-05 0 0 0 1.33123e-43 0 6.98379e-41 8.68805e-44 0 9.9338e-42 0 3.56021e-40 0 5.82317e-39 0 5.92067e-38 0 4.18473e-37 0 2.24733e-36 0 1.00092e-35 0 3.70955e-35 0 1.21126e-34 0 3.56629e-34 0 9.66312e-34 0 2.36263e-33 0 5.51254e-33 0 1.2013e-32 0 2.45462e-32 0 4.82941e-32 0 9.16571e-32 0
6.75157 6.68e-14 6.67934e-14 6.5891e-18 9.86393e-05 1.32279e-05 0 2.10195e-44 0 5.24086e-42 7.00649e-45 2.30774e-39 6.21336e-42 0 5.66776e-40 0 1.70551e-38 0 2.43377e-37 0 2.20961e-36 0 1.41954e-35 0 7.02269e-35 0 2.9078e-34 0 1.0109e-33 0 3.11553e-33 0 8.70191e-33 0 2.24584e-32 0 5.25654e-32 0 1.17677e-31 0 2.46873e-31 0 4.87141e-31 0 9.27288e-31 0 1.70569e-30 0
7.09813 6.16646e-14 6.16592e-14 5.39799e-18 8.75379e-05 1.18448e-05 0 8.18358e-43 0 1.75084e-40 5.61921e-43 6.50289e-38 3.56497e-40 0 2.60903e-38 0 6.64873e-37 0 8.333e-36 0 6.793e-35 0 3.9852e-34 0 1.8235e-33 0 7.04434e-33 0 2.30442e-32 0 6.72235e-32 0 1.78576e-31 0 4.40032e-31 0 9.88037e-31 0 2.12655e-30 0 4.30277e-30 0 8.2133e-30 0 1.51505e-29 0 2.70515e-29 0
7.46248 5.76284e-14 5.76239e-14 4.42163e-18 7.67266e-05 1.05694e-05 0 2.72623e-41 0 5.06803e-39 3.6089e-41 1.59348e-36 1.67221e-38 0 9.92401e-37 0 2.15917e-35 0 2.39187e-34 0 1.75998e-33 0 9.47065e-33 0 4.02337e-32 0 1.45501e-31 0 4.49219e-31 0 1.2437e-30 0 3.14994e-30 0 7.42746e-30 0 1.60316e-29 0 3.32375e-29 0 6.49764e-29 0 1.20176e-28 0 2.15152e-28 0 3.73435e-28 0
7.84553 5.36225e-14 5.36189e-14 3.62182e-18 6.75429e-05 9.34187e-06 0 7.76625e-40 3.36312e-44 1.25763e-37 1.85583e-39 3.35941e-35 6.37239e-37 0 3.09823e-35 0 5.79971e-34 0 5.71298e-33 0 3.8134e-32 0 1.89017e-31 0 7.48238e-31 0 2.54132e-30 0 7.42586e-30 0 1.95619e-29 0 4.73471e-29 0 1.07064e-28 0 2.2257e-28 0 4.45303e-28 0 8.42499e-28 0 1.51214e-27 0 2.6313e-27 0 4.4458e-27 0
8.24824 4.88775e-14 4.88745e-14 2.96648e-18 6.06922e-05 8.19911e-06 0 1.87103e-38 2.38501e-42 2.64762e-36 7.59241e-38 6.0295e-34 1.96036e-35 0 7.8848e-34 0 1.27928e-32 0 1.12698e-31 0 6.85667e-31 0 3.14312e-30 0 1.16339e-29 0 3.72235e-29 0 1.03221e-28 0 2.59355e-28 0 6.0122e-28 0 1.30642e-27 0 2.62052e-27 0 5.06842e-27 0 9.29536e-27 0 1.62138e-26 0 2.74612e-26 0 4.52248e-26 0
8.67162 4.53785e-14 4.53761e-14 2.42969e-18 5.35428e-05 7.20916e-06 2.8026e-45 3.98637e-37 1.35258e-40 4.9443e-35 2.59556e-36 9.63215e-33 5.11006e-34 0 1.71611e-32 0 2.43015e-31 0 1.92508e-30 0 1.0724e-29 0 4.56373e-29 0 1.58465e-28 0 4.79035e-28 0 1.26384e-27 0 3.03586e-27 0 6.75449e-27 0 1.41314e-26 0 2.73988e-26 0 5.13131e-26 0 9.13613e-26 0 1.55091e-25 0 2.56003e-25 0 4.11458e-25 0
9.11674 4.18233e-14 4.18213e-14 1.98996e-18 4.75801e-05 6.32492e-06 1.70958e-43 7.36082e-36 6.15436e-39 8.02579e-34 7.29687e-35 1.34195e-31 1.10999e-32 0 3.13998e-31 0 3.90675e-30 0 2.79735e-29 0 1.43297e-28 0 5.68187e-28 0 1.85657e-27 0 5.31724e-27 0 1.33795e-26 0 3.07927e-26 0 6.58874e-26 0 1.32967e-25 0 2.49603e-25 0 4.53359e-25 0 7.84773e-25 0 1.29821e-24 0 2.09112e-24 0 3.28396e-24 0
9.5847 3.88971e-14 3.88955e-14 1.62978e-18 4.18997e-05 5.52644e-06 1.07059e-41 1.20372e-34 2.30755e-37 1.15707e-32 1.73061e-33 1.66586e-30 2.05986e-31 0 4.94962e-30 0 5.44507e-29 0 3.54155e-28 0 1.67511e-27 0 6.20996e-27 0 1.91514e-26 0 5.21034e-26 0 1.25329e-25 0 2.76941e-25 0 5.70968e-25 0 1.11343e-24 0 2.02683e-24 0 3.57564e-24 0 6.02589e-24 0 9.72636e-24 0 1.53065e-23 0 2.35138e-23 0
