# 0.000257326 0 85 : grain size, compostion index, size index
# Heating and cooling timescale: 3.67108e-05 2.2092e+09
# Ratio of heating to cooling to determine stochastic cutoff: 100
# Equilibrium emission is recorded even for those grains in the stochastic regime.
# Emission spectrum was computed for: 
# Type: ISRF
# Scales: 0.25 0.5 1 1.5 2 2.5 3 3.5 4 4.5 5 5.5 6 6.5 7 7.5 8 8.5 9 9.5 10
# StochasticallyHeated: 0 0 0 0 0 0 0 0 0 0 0 0 0 0 0 0 0 0 0 0 0
# Temperature: -1
# Wavelength  CExt  CAbs  CSca  Albedo G EqEm1 StEm1 EqEm2 StEm2 EqEm3 StEm3 EqEm4 StEm4 EqEm5 StEm5 EqEm6 StEm6 EqEm7 StEm7 EqEm8 StEm8 EqEm9 StEm9 EqEm10 StEm10 EqEm11 StEm11 EqEm12 StEm12 EqEm13 StEm13 EqEm14 StEm14 EqEm15 StEm15 EqEm16 StEm16 EqEm17 StEm17 EqEm18 StEm18 EqEm19 StEm19 EqEm20 StEm20 EqEm21 StEm21
0.05 4.19654e-07 1.9779e-07 2.21864e-07 0.528683 0.989721 0 0 0 0 0 0 0 0 0 0 0 0 0 0 0 0 0 0 0 0 0 0 0 0 0 0 0 0 0 0 0 0 0 0 0 0 0 0 0 0 0 0
0.0525665 4.20671e-07 1.94172e-07 2.26499e-07 0.538423 0.983109 0 0 0 0 0 0 0 0 0 0 0 0 0 0 0 0 0 0 0 0 0 0 0 0 0 0 0 0 0 0 0 0 0 0 0 0 0 0 0 0 0 0
0.0552647 4.21304e-07 1.93221e-07 2.28084e-07 0.541375 0.979522 0 0 0 0 0 0 0 0 0 0 0 0 0 0 0 0 0 0 0 0 0 0 0 0 0 0 0 0 0 0 0 0 0 0 0 0 0 0 0 0 0 0
0.0581015 4.21815e-07 1.92889e-07 2.28925e-07 0.542715 0.977031 0 0 0 0 0 0 0 0 0 0 0 0 0 0 0 0 0 0 0 0 0 0 0 0 0 0 0 0 0 0 0 0 0 0 0 0 0 0 0 0 0 0
0.0610839 4.22255e-07 1.92795e-07 2.2946e-07 0.543416 0.975169 0 0 0 0 0 0 0 0 0 0 0 0 0 0 0 0 0 0 0 0 0 0 0 0 0 0 0 0 0 0 0 0 0 0 0 0 0 0 0 0 0 0
0.0642193 4.22656e-07 1.92713e-07 2.29943e-07 0.544044 0.973537 0 0 0 0 0 0 0 0 0 0 0 0 0 0 0 0 0 0 0 0 0 0 0 0 0 0 0 0 0 0 0 0 0 0 0 0 0 0 0 0 0 0
0.0675157 4.23042e-07 1.92516e-07 2.30526e-07 0.544925 0.97182 0 0 0 0 0 0 0 0 0 0 0 0 0 0 0 0 0 0 0 0 0 0 0 0 0 0 0 0 0 0 0 0 0 0 0 0 0 0 0 0 0 0
0.0709813 4.23436e-07 1.92192e-07 2.31244e-07 0.546114 0.969853 0 0 0 0 0 0 0 0 0 0 0 0 0 0 0 0 0 0 0 0 0 0 0 0 0 0 0 0 0 0 0 0 0 0 0 0 0 0 0 0 0 0
0.0746248 4.23852e-07 1.91793e-07 2.32059e-07 0.547499 0.967629 0 0 0 0 0 0 0 0 0 0 0 0 0 0 0 0 0 0 0 0 0 0 0 0 0 0 0 0 0 0 0 0 0 0 0 0 0 0 0 0 0 0
0.0784553 4.24287e-07 1.91403e-07 2.32885e-07 0.548884 0.965308 0 0 0 0 0 0 0 0 0 0 0 0 0 0 0 0 0 0 0 0 0 0 0 0 0 0 0 0 0 0 0 0 0 0 0 0 0 0 0 0 0 0
0.0824824 4.24738e-07 1.91039e-07 2.33699e-07 0.550218 0.96295 0 0 0 0 0 0 0 0 0 0 0 0 0 0 0 0 0 0 0 0 0 0 0 0 0 0 0 0 0 0 0 0 0 0 0 0 0 0 0 0 0 0
0.0867162 4.25205e-07 1.90692e-07 2.34512e-07 0.551528 0.960542 0 0 0 0 0 0 0 0 0 0 0 0 0 0 0 0 0 0 0 0 0 0 0 0 0 0 0 0 0 0 0 0 0 0 0 0 0 0 0 0 0 0
0.0911674 4.2569e-07 1.90361e-07 2.3533e-07 0.552819 0.958075 0 0 0 0 0 0 0 0 0 0 0 0 0 0 0 0 0 0 0 0 0 0 0 0 0 0 0 0 0 0 0 0 0 0 0 0 0 0 0 0 0 0
0.095847 4.26198e-07 1.90053e-07 2.36145e-07 0.554073 0.955556 0 0 0 0 0 0 0 0 0 0 0 0 0 0 0 0 0 0 0 0 0 0 0 0 0 0 0 0 0 0 0 0 0 0 0 0 0 0 0 0 0 0
0.100767 4.26729e-07 1.89797e-07 2.36932e-07 0.555228 0.953042 0 0 0 0 0 0 0 0 0 0 0 0 0 0 0 0 0 0 0 0 0 0 0 0 0 0 0 0 0 0 0 0 0 0 0 0 0 0 0 0 0 0
0.105939 4.27293e-07 1.89692e-07 2.37601e-07 0.556061 0.950735 0 0 0 0 0 0 0 0 0 0 0 0 0 0 0 0 0 0 0 0 0 0 0 0 0 0 0 0 0 0 0 0 0 0 0 0 0 0 0 0 0 0
0.111377 4.27856e-07 1.89803e-07 2.38053e-07 0.556386 0.949003 0 0 0 0 0 0 0 0 0 0 0 0 0 0 0 0 0 0 0 0 0 0 0 0 0 0 0 0 0 0 0 0 0 0 0 0 0 0 0 0 0 0
0.117094 4.28395e-07 1.90049e-07 2.38346e-07 0.556369 0.947814 0 0 0 0 0 0 0 0 0 0 0 0 0 0 0 0 0 0 0 0 0 0 0 0 0 0 0 0 0 0 0 0 0 0 0 0 0 0 0 0 0 0
0.123105 4.28953e-07 1.90209e-07 2.38744e-07 0.556573 0.946416 0 0 0 0 0 0 0 0 0 0 0 0 0 0 0 0 0 0 0 0 0 0 0 0 0 0 0 0 0 0 0 0 0 0 0 0 0 0 0 0 0 0
0.129424 4.2954e-07 1.90529e-07 2.39011e-07 0.556436 0.945311 0 0 0 0 0 0 0 0 0 0 0 0 0 0 0 0 0 0 0 0 0 0 0 0 0 0 0 0 0 0 0 0 0 0 0 0 0 0 0 0 0 0
0.136067 4.30081e-07 1.91189e-07 2.38892e-07 0.555458 0.945387 0 0 0 0 0 0 0 0 0 0 0 0 0 0 0 0 0 0 0 0 0 0 0 0 0 0 0 0 0 0 0 0 0 0 0 0 0 0 0 0 0 0
0.143051 4.30614e-07 1.91639e-07 2.38975e-07 0.554963 0.945063 0 0 0 0 0 0 0 0 0 0 0 0 0 0 0 0 0 0 0 0 0 0 0 0 0 0 0 0 0 0 0 0 0 0 0 0 0 0 0 0 0 0
0.150394 4.31195e-07 1.92545e-07 2.38651e-07 0.553463 0.945681 0 0 0 0 0 0 0 0 0 0 0 0 0 0 0 0 0 0 0 0 0 0 0 0 0 0 0 0 0 0 0 0 0 0 0 0 0 0 0 0 0 0
0.158114 4.31459e-07 1.94397e-07 2.37062e-07 0.549444 0.950178 0 0 0 0 0 0 0 0 0 0 0 0 0 0 0 0 0 0 0 0 0 0 0 0 0 0 0 0 0 0 0 0 0 0 0 0 0 0 0 0 0 0
0.16623 4.31503e-07 1.9464e-07 2.36863e-07 0.548925 0.951562 0 0 0 0 0 0 0 0 0 0 0 0 0 0 0 0 0 0 0 0 0 0 0 0 0 0 0 0 0 0 0 0 0 0 0 0 0 0 0 0 0 0
0.174762 4.31789e-07 1.93288e-07 2.385e-07 0.552355 0.948163 0 0 0 0 0 0 0 0 0 0 0 0 0 0 0 0 0 0 0 0 0 0 0 0 0 0 0 0 0 0 0 0 0 0 0 0 0 0 0 0 0 0
0.183733 4.32314e-07 1.91203e-07 2.41111e-07 0.557722 0.942114 0 0 0 0 0 0 0 0 0 0 0 0 0 0 0 0 0 0 0 0 0 0 0 0 0 0 0 0 0 0 0 0 0 0 0 0 0 0 0 0 0 0
0.193164 4.33115e-07 1.88176e-07 2.44939e-07 0.565528 0.932597 0 0 0 0 0 0 0 0 0 0 0 0 0 0 0 0 0 0 0 0 0 0 0 0 0 0 0 0 0 0 0 0 0 0 0 0 0 0 0 0 0 0
0.203079 4.34279e-07 1.85231e-07 2.49048e-07 0.573475 0.921328 0 0 0 0 0 0 0 0 0 0 0 0 0 0 0 0 0 0 0 0 0 0 0 0 0 0 0 0 0 0 0 0 0 0 0 0 0 0 0 0 0 0
0.213503 4.3546e-07 1.83151e-07 2.52309e-07 0.579408 0.911929 0 0 0 0 0 0 0 0 0 0 0 0 0 0 0 0 0 0 0 0 0 0 0 0 0 0 0 0 0 0 0 0 0 0 0 0 0 0 0 0 0 0
0.224463 4.36658e-07 1.81477e-07 2.55181e-07 0.584395 0.903485 0 0 0 0 0 0 0 0 0 0 0 0 0 0 0 0 0 0 0 0 0 0 0 0 0 0 0 0 0 0 0 0 0 0 0 0 0 0 0 0 0 0
0.235984 4.37882e-07 1.79797e-07 2.58085e-07 0.589394 0.895009 0 0 0 0 0 0 0 0 0 0 0 0 0 0 0 0 0 0 0 0 0 0 0 0 0 0 0 0 0 0 0 0 0 0 0 0 0 0 0 0 0 0
0.248097 4.39281e-07 1.77803e-07 2.61478e-07 0.59524 0.885002 0 0 0 0 0 0 0 0 0 0 0 0 0 0 0 0 0 0 0 0 0 0 0 0 0 0 0 0 0 0 0 0 0 0 0 0 0 0 0 0 0 0
0.260832 4.40761e-07 1.76508e-07 2.64253e-07 0.599537 0.876505 0 0 0 0 0 0 0 0 0 0 0 0 0 0 0 0 0 0 0 0 0 0 0 0 0 0 0 0 0 0 0 0 0 0 0 0 0 0 0 0 0 0
0.274221 4.42266e-07 1.75716e-07 2.66551e-07 0.602692 0.869358 0 0 0 0 0 0 0 0 0 0 0 0 0 0 0 0 0 0 0 0 0 0 0 0 0 0 0 0 0 0 0 0 0 0 0 0 0 0 0 0 0 0
0.288297 4.43749e-07 1.75279e-07 2.6847e-07 0.605004 0.863443 0 0 0 0 0 0 0 0 0 0 0 0 0 0 0 0 0 0 0 0 0 0 0 0 0 0 0 0 0 0 0 0 0 0 0 0 0 0 0 0 0 0
0.303095 4.45266e-07 1.75101e-07 2.70165e-07 0.60675 0.85819 0 0 0 0 0 0 0 0 0 0 0 0 0 0 0 0 0 0 0 0 0 0 0 0 0 0 0 0 0 0 0 0 0 0 0 0 0 0 0 0 0 0
0.318653 4.46775e-07 1.75116e-07 2.71659e-07 0.608044 0.853637 0 0 0 0 0 0 0 0 0 0 0 0 0 0 0 0 0 0 0 0 0 0 0 0 0 0 0 0 0 0 0 0 0 0 0 0 0 0 0 0 0 0
0.335009 4.483e-07 1.75253e-07 2.73047e-07 0.609072 0.849476 0 0 0 0 0 0 0 0 0 0 0 0 0 0 0 0 0 0 0 0 0 0 0 0 0 0 0 0 0 0 0 0 0 0 0 0 0 0 0 0 0 0
0.352205 4.49837e-07 1.75505e-07 2.74331e-07 0.609846 0.845673 0 0 0 0 0 0 0 0 0 0 0 0 0 0 0 0 0 0 0 0 0 0 0 0 0 0 0 0 0 0 0 0 0 0 0 0 0 0 0 0 0 0
0.370284 4.51401e-07 1.75778e-07 2.75623e-07 0.610595 0.841939 0 0 0 0 0 0 0 0 0 0 0 0 0 0 0 0 0 0 0 0 0 0 0 0 0 0 0 0 0 0 0 0 0 0 0 0 0 0 0 0 0 0
0.389291 4.52986e-07 1.76096e-07 2.7689e-07 0.611255 0.838335 0 0 0 0 0 0 0 0 0 0 0 0 0 0 0 0 0 0 0 0 0 0 0 0 0 0 0 0 0 0 0 0 0 0 0 0 0 0 0 0 0 0
0.409273 4.54602e-07 1.76401e-07 2.78201e-07 0.611966 0.834674 0 0 0 0 0 0 0 0 0 0 0 0 0 0 0 0 0 0 0 0 0 0 0 0 0 0 0 0 0 0 0 0 0 0 0 0 0 0 0 0 0 0
0.430281 4.56251e-07 1.76715e-07 2.79536e-07 0.61268 0.830981 0 0 0 0 0 0 0 0 0 0 0 0 0 0 0 0 0 0 0 0 0 0 0 0 0 0 0 0 0 0 0 0 0 0 0 0 0 0 0 0 0 0
0.452368 4.57914e-07 1.77089e-07 2.80826e-07 0.613271 0.827409 0 0 0 0 0 0 0 0 0 0 0 0 0 0 0 0 0 0 0 0 0 0 0 0 0 0 0 0 0 0 0 0 0 0 0 0 0 0 0 0 0 0
0.475588 4.59588e-07 1.77484e-07 2.82104e-07 0.613819 0.823865 0 0 0 0 0 0 0 0 0 0 0 0 0 0 0 0 0 0 0 0 0 0 0 0 0 0 0 0 0 0 0 0 0 0 0 0 0 0 0 0 0 0
0.5 4.61234e-07 1.77997e-07 2.83237e-07 0.614086 0.820665 0 0 0 0 0 0 0 0 0 0 0 0 0 0 0 0 0 0 0 0 0 0 0 0 0 0 0 0 0 0 0 0 0 0 0 0 0 0 0 0 0 0
0.525665 4.62845e-07 1.78609e-07 2.84236e-07 0.614107 0.817813 0 0 0 0 0 0 0 0 0 0 0 0 0 0 0 0 0 0 0 0 0 0 0 0 0 0 0 0 0 0 0 0 0 0 0 0 0 0 0 0 0 0
0.552648 4.64422e-07 1.79306e-07 2.85116e-07 0.613915 0.815285 0 0 0 0 0 0 0 0 0 0 0 0 0 0 0 0 0 0 0 0 0 0 0 0 0 0 0 0 0 0 0 0 0 0 0 0 0 0 0 0 0 0
0.581015 4.65975e-07 1.80054e-07 2.85921e-07 0.613597 0.812962 0 0 0 0 0 0 0 0 0 0 0 0 0 0 0 0 0 0 0 0 0 0 0 0 0 0 0 0 0 0 0 0 0 0 0 0 0 0 0 0 0 0
0.610839 4.67521e-07 1.80811e-07 2.8671e-07 0.613257 0.810693 0 0 0 0 0 0 0 0 0 0 0 0 0 0 0 0 0 0 0 0 0 0 0 0 0 0 0 0 0 0 0 0 0 0 0 0 0 0 0 0 0 0
0.642193 4.69061e-07 1.81582e-07 2.87479e-07 0.612882 0.808489 0 0 0 0 0 0 0 0 0 0 0 0 0 0 0 0 0 0 0 0 0 0 0 0 0 0 0 0 0 0 0 0 0 0 0 0 0 0 0 0 0 0
0.675157 4.70603e-07 1.82349e-07 2.88254e-07 0.61252 0.806273 0 0 0 0 0 0 0 0 0 0 0 0 0 0 0 0 0 0 0 0 0 0 0 0 0 0 0 0 0 0 0 0 0 0 0 0 0 0 0 0 0 0
0.709813 4.72146e-07 1.83111e-07 2.89036e-07 0.612174 0.804023 0 0 0 0 0 0 0 0 0 0 0 0 0 0 0 0 0 0 0 0 0 0 0 0 0 0 0 0 0 0 0 0 0 0 0 0 0 0 0 0 0 0
0.746248 4.73683e-07 1.8389e-07 2.89793e-07 0.611787 0.801807 0 0 0 0 0 0 0 0 0 0 0 0 0 0 0 0 0 0 0 0 0 0 0 0 0 0 0 0 0 0 0 0 0 0 0 0 0 0 0 0 0 0
0.784553 4.75191e-07 1.84699e-07 2.90493e-07 0.611317 0.799656 0 0 0 0 0 0 0 0 0 0 0 0 0 0 0 0 0 0 0 0 0 0 0 0 0 0 0 0 0 0 0 0 0 0 0 0 0 0 0 0 0 0
0.824824 4.76655e-07 1.85647e-07 2.91007e-07 0.61052 0.79791 0 0 0 0 0 0 0 0 0 0 0 0 0 0 0 0 0 0 0 0 0 0 0 0 0 0 0 0 0 0 0 0 0 0 0 0 0 0 0 0 0 0
0.867162 4.78126e-07 1.8676e-07 2.91365e-07 0.609391 0.796616 0 0 0 0 0 0 0 0 0 0 0 0 0 0 0 0 0 0 0 0 0 0 0 0 0 0 0 0 0 0 0 0 0 0 0 0 0 0 0 0 0 0
0.911674 4.79663e-07 1.87925e-07 2.91738e-07 0.608214 0.795381 0 0 0 0 0 0 0 0 0 0 0 0 0 0 0 0 0 0 0 0 0 0 0 0 0 0 0 0 0 0 0 0 0 0 0 0 0 0 0 0 0 0
0.95847 4.813e-07 1.88997e-07 2.92303e-07 0.607319 0.793741 0 0 0 0 0 0 0 0 0 0 0 0 0 0 0 0 0 0 0 0 0 0 0 0 0 0 0 0 0 0 0 0 0 0 0 0 0 0 0 0 0 0
1.00767 4.82972e-07 1.90003e-07 2.92969e-07 0.606595 0.791788 0 0 0 0 0 0 0 0 0 0 0 0 0 0 0 0 0 0 0 0 0 0 0 0 0 0 0 0 0 0 0 0 0 0 0 0 0 0 0 0 0 0
1.05939 4.84669e-07 1.9105e-07 2.93619e-07 0.605814 0.789833 0 0 0 0 0 0 0 0 0 0 0 0 0 0 0 0 0 0 0 0 0 0 0 0 0 0 0 0 0 0 0 0 0 0 0 0 0 0 0 0 0 0
1.11377 4.86401e-07 1.92129e-07 2.94272e-07 0.604999 0.787839 0 0 0 0 0 0 0 0 0 0 0 0 0 0 0 0 0 0 0 0 0 0 0 0 0 0 0 0 0 0 0 0 0 0 0 0 0 0 0 0 0 0
1.17094 4.88175e-07 1.93194e-07 2.94981e-07 0.604252 0.785667 0 0 0 0 0 0 0 0 0 0 0 0 0 0 0 0 0 0 0 0 0 0 0 0 0 0 0 0 0 0 0 0 0 0 0 0 0 0 0 0 0 0
1.23105 4.89989e-07 1.94284e-07 2.95705e-07 0.603493 0.783419 0 0 0 0 0 0 0 0 0 0 0 0 0 0 0 0 0 0 0 0 0 0 0 0 0 0 0 0 0 0 0 0 0 0 0 0 0 0 0 0 0 0
1.29424 4.91823e-07 1.95426e-07 2.96398e-07 0.60265 0.781164 0 0 0 0 0 0 0 0 0 0 0 0 0 0 0 0 0 0 0 0 0 0 0 0 0 0 0 0 0 0 0 0 0 0 0 0 0 0 0 0 0 0
1.36067 4.9369e-07 1.96724e-07 2.96966e-07 0.601523 0.779153 0 0 0 0 0 0 0 0 0 0 0 0 0 0 0 0 0 0 0 0 0 0 0 0 0 0 0 0 0 0 0 0 0 0 0 0 0 0 0 0 0 0
1.43051 4.95678e-07 1.98098e-07 2.97579e-07 0.600348 0.777115 0 0 0 0 0 0 0 0 0 0 0 0 0 0 0 0 0 0 0 0 0 0 0 0 0 0 0 0 0 0 0 0 0 0 0 0 0 0 0 0 0 0
1.50394 4.9774e-07 1.99364e-07 2.98376e-07 0.599462 0.774576 0 0 0 0 0 0 0 0 0 0 0 0 0 0 0 0 0 0 0 0 0 0 0 0 0 0 0 0 0 0 0 0 0 0 0 0 0 0 0 0 0 0
1.58114 4.99838e-07 2.0062e-07 2.99218e-07 0.59863 0.771831 0 0 0 0 0 0 0 0 0 0 0 0 0 0 0 0 0 0 0 0 0 0 0 0 0 0 0 0 0 0 0 0 0 0 0 0 0 0 0 0 0 0
1.6623 5.01946e-07 2.01931e-07 3.00015e-07 0.597704 0.769038 0 0 0 0 0 0 0 0 0 0 0 0 0 0 0 0 0 0 0 0 0 0 0 0 0 0 0 0 0 0 0 0 0 0 0 0 0 0 0 0 0 0
1.74763 5.04128e-07 2.03365e-07 3.00763e-07 0.596601 0.766308 0 0 0 0 0 0 0 0 0 0 0 0 0 0 0 0 0 0 0 0 0 0 0 0 0 0 0 0 0 0 0 0 0 0 0 0 0 0 0 0 0 0
1.83733 5.06412e-07 2.04848e-07 3.01564e-07 0.595491 0.763434 0 0 0 0 0 0 0 0 0 0 0 0 0 0 0 0 0 0 0 0 0 0 0 0 0 0 0 0 0 0 0 0 0 0 0 0 0 0 0 0 0 0
1.93164 5.08754e-07 2.06236e-07 3.02518e-07 0.594625 0.760094 0 0 0 0 0 0 0 0 0 0 0 0 0 0 0 0 0 0 0 0 0 0 0 0 0 0 0 0 0 0 0 0 0 0 0 0 0 0 0 0 0 0
2.03079 5.11073e-07 2.07718e-07 3.03355e-07 0.593566 0.756747 0 0 0 0 0 0 0 0 0 0 0 0 0 0 0 0 0 0 0 0 0 0 0 0 0 0 0 0 0 0 0 0 0 0 0 0 0 0 0 0 0 0
2.13503 5.13523e-07 2.09335e-07 3.04188e-07 0.592356 0.753445 0 0 0 0 0 0 0 0 0 0 0 0 0 0 0 0 0 0 0 0 0 0 0 0 0 0 0 0 0 0 0 0 0 0 0 0 0 0 0 0 0 0
2.24463 5.16033e-07 2.11027e-07 3.05006e-07 0.591059 0.749937 0 0 0 0 0 0 0 0 0 0 0 0 0 0 0 0 0 0 0 0 0 0 0 0 0 0 0 0 0 0 0 0 0 0 0 0 0 0 0 0 0 0
2.35984 5.18606e-07 2.12719e-07 3.05887e-07 0.589826 0.746215 0 0 0 0 0 0 0 0 0 0 0 0 0 0 0 0 0 0 0 0 0 0 0 0 0 0 0 0 0 0 0 0 0 0 0 0 0 0 0 0 0 0
2.48097 5.21303e-07 2.14463e-07 3.06841e-07 0.588603 0.742227 0 0 0 0 0 0 0 0 0 0 0 0 0 0 0 0 0 0 0 0 0 0 0 0 0 0 0 0 0 0 0 0 0 0 0 0 0 0 0 0 0 0
2.60832 5.23995e-07 2.16483e-07 3.07511e-07 0.58686 0.738427 0 0 0 0 0 0 0 0 0 0 0 0 0 0 0 0 0 0 0 0 0 0 0 0 0 0 0 0 0 0 0 0 0 0 0 0 0 0 0 0 0 0
2.74221 5.26902e-07 2.18293e-07 3.08609e-07 0.585704 0.733913 0 0 0 0 0 0 0 0 0 0 0 0 0 0 0 0 0 0 0 0 0 0 0 0 0 0 0 0 0 0 0 0 0 0 0 0 0 0 0 0 0 0
2.88297 5.29873e-07 2.20167e-07 3.09706e-07 0.58449 0.729119 0 0 0 0 0 0 0 0 0 0 0 0 0 0 0 0 0 0 0 0 0 0 0 0 0 0 0 0 0 0 0 0 0 0 0 0 0 0 0 0 0 0
3.03095 5.32832e-07 2.22241e-07 3.10591e-07 0.582906 0.724196 0 0 0 0 0 0 0 0 0 0 0 0 0 0 0 0 0 0 0 0 0 0 0 0 0 0 0 0 0 0 0 0 0 0 0 0 0 0 0 0 0 0
3.18653 5.35799e-07 2.23925e-07 3.11874e-07 0.582073 0.718292 0 0 0 0 0 0 0 0 0 0 0 0 0 0 0 0 0 0 0 0 0 0 0 0 0 0 0 0 0 0 0 0 0 0 0 0 0 0 0 0 0 0
3.35009 5.38887e-07 2.25745e-07 3.13142e-07 0.58109 0.712374 0 0 0 0 0 0 0 0 0 0 0 0 0 0 0 0 0 0 0 0 0 0 0 0 0 0 0 0 0 0 0 0 0 0 0 0 0 0 0 0 0 0
3.52205 5.42288e-07 2.28205e-07 3.14082e-07 0.579181 0.706854 0 0 0 0 0 0 0 0 0 0 0 0 0 0 0 0 0 0 0 0 0 0 0 0 0 0 0 0 0 0 0 0 0 0 0 0 0 0 0 0 0 0
3.70284 5.45267e-07 2.30135e-07 3.15132e-07 0.57794 0.699858 0 0 0 0 0 0 0 0 0 0 0 0 0 0 0 0 0 0 0 0 0 0 0 0 0 0 0 0 0 0 0 0 0 0 0 0 0 0 0 0 0 0
3.89291 5.48277e-07 2.3181e-07 3.16466e-07 0.577202 0.692156 0 0 0 0 0 0 0 0 0 0 0 0 0 0 0 0 0 0 0 0 0 0 0 0 0 0 0 0 0 0 0 0 0 0 0 0 0 0 0 0 0 0
4.09273 5.51957e-07 2.34036e-07 3.17921e-07 0.575988 0.685034 0 0 0 0 0 0 0 0 0 0 0 0 0 0 0 0 0 0 0 0 0 0 0 0 0 0 0 0 0 0 0 0 0 0 0 0 0 0 0 0 0 0
4.30281 5.55813e-07 2.36908e-07 3.18905e-07 0.573763 0.678304 0 0 0 0 0 0 0 0 0 0 0 0 0 0 0 0 0 0 0 0 0 0 0 0 0 0 0 0 0 0 0 0 0 0 0 0 0 0 0 0 0 0
4.52368 5.59027e-07 2.39498e-07 3.19529e-07 0.571581 0.670164 0 0 0 0 0 0 0 0 0 0 0 0 0 0 0 0 0 0 0 0 0 0 0 0 0 0 0 0 0 0 0 0 0 0 0 0 0 0 0 0 0 0
4.75588 5.61851e-07 2.41541e-07 3.2031e-07 0.570098 0.66022 0 0 0 0 0 0 0 0 0 0 0 0 0 0 0 0 0 0 0 0 0 0 0 0 0 0 0 0 0 0 0 0 0 0 0 0 0 0 0 0 0 0
5 5.65006e-07 2.43618e-07 3.21388e-07 0.568822 0.649804 0 0 0 0 0 0 0 0 0 0 0 0 0 0 0 0 0 0 0 0 0 0 0 0 0 0 0 0 0 0 0 0 0 0 0 0 0 0 0 0 0 0
5.25665 5.69362e-07 2.46935e-07 3.22427e-07 0.566295 0.640911 0 0 0 0 0 0 0 0 0 0 0 0 0 0 0 0 0 0 0 0 0 0 0 0 0 0 0 0 0 0 0 0 0 0 0 0 0 0 0 0 0 0
5.52648 5.74356e-07 2.5113e-07 3.23226e-07 0.562763 0.632825 0 0 0 0 0 0 0 0 0 0 0 0 0 0 0 0 0 0 0 0 0 0 0 0 0 0 0 0 0 0 0 0 0 0 0 0 0 0 0 0 0 0
5.81015 5.79349e-07 2.5616e-07 3.23189e-07 0.557848 0.624869 0 0 0 0 0 0 0 0 0 0 0 0 0 0 0 0 0 0 0 0 0 0 0 0 0 0 0 0 0 0 0 0 0 0 0 0 0 0 0 0 0 0
6.10839 5.83291e-07 2.59413e-07 3.23878e-07 0.555259 0.612667 0 0 0 0 0 0 0 0 0 0 0 0 0 0 0 0 0 0 0 0 0 0 0 0 0 0 0 0 0 0 0 0 0 0 0 0 0 0 0 0 0 0
6.42193 5.85156e-07 2.5879e-07 3.26366e-07 0.557742 0.593004 0 0 0 0 0 0 0 0 0 0 0 0 0 0 0 0 0 0 0 0 0 0 0 0 0 0 0 0 0 0 0 0 0 0 0 0 0 0 0 0 0 0
6.75157 5.87919e-07 2.59852e-07 3.28067e-07 0.558013 0.574152 0 0 0 0 0 0 0 0 0 0 0 0 0 0 0 0 0 0 0 0 0 0 0 0 0 0 0 0 0 0 0 0 0 0 0 0 0 0 0 0 0 0
7.09813 5.9294e-07 2.6191e-07 3.31029e-07 0.558285 0.556244 0 0 0 0 0 0 0 0 0 0 0 0 0 0 0 0 0 0 0 0 0 0 0 0 0 0 0 0 0 0 0 0 0 0 0 0 0 0 0 0 0 0
7.46248 5.98687e-07 2.63187e-07 3.355e-07 0.560393 0.537812 0 0 0 0 0 0 0 0 0 0 0 0 0 0 0 0 0 0 0 0 0 0 0 0 0 0 0 0 0 0 0 0 0 0 0 0 0 0 0 0 0 0
7.84553 6.04626e-07 2.65798e-07 3.38827e-07 0.560392 0.522014 0 0 0 0 0 0 0 0 0 0 0 0 0 0 0 0 0 0 0 0 0 0 0 0 0 0 0 0 0 0 0 0 0 0 0 0 0 0 1.4013e-45 0 1.4013e-45 0
8.24824 6.09046e-07 2.67974e-07 3.41072e-07 0.56001 0.505744 0 0 0 0 0 0 0 0 0 0 0 0 0 0 0 0 0 0 0 0 0 0 0 0 0 0 0 0 0 0 1.4013e-45 0 7.00649e-45 0 1.96182e-44 0 5.74532e-44 0 1.48538e-43 0 3.6714e-43 0
8.67162 6.10702e-07 2.6992e-07 3.40782e-07 0.558017 0.48763 0 0 0 0 0 0 0 0 0 0 0 0 0 0 0 0 0 0 0 0 0 0 1.4013e-45 0 7.00649e-45 0 2.8026e-44 0 1.09301e-43 0 3.69943e-43 0 1.13785e-42 0 3.28604e-42 0 8.9613e-42 0 2.22989e-41 0 5.27056e-41 0
9.11674 6.09333e-07 2.70892e-07 3.38441e-07 0.555428 0.464487 0 0 0 0 0 0 0 0 0 0 0 0 0 0 0 0 0 0 5.60519e-45 0 4.34403e-44 0 2.35418e-43 0 1.10422e-42 0 4.49537e-42 0 1.63391e-41 0 5.24394e-41 0 1.5243e-40 0 4.18154e-40 0 1.08561e-39 0 2.58389e-39 0 5.85614e-39 0
9.5847 6.06183e-07 2.70927e-07 3.35256e-07 0.55306 0.434375 0 0 0 0 0 0 0 0 0 0 0 0 0 0 1.12104e-44 0 1.30321e-43 0 1.06639e-42 0 6.67438e-42 0 3.35541e-41 0 1.45907e-40 0 5.54532e-40 0 1.89273e-39 0 5.73823e-39 0 1.58332e-38 0 4.13465e-38 0 1.02458e-37 0 2.33754e-37 0 5.09035e-37 0
10.0767 6.03531e-07 2.71242e-07 3.32289e-07 0.550574 0.397994 0 0 0 0 0 0 0 0 0 0 4.2039e-45 0 1.26117e-43 0 1.91698e-42 0 1.89778e-41 0 1.39496e-40 0 7.9877e-40 0 3.71095e-39 0 1.50192e-38 0 5.34792e-38 0 1.71916e-37 0 4.93727e-37 0 1.29646e-36 0 3.23053e-36 0 7.6584e-36 0 1.67828e-35 0 3.51843e-35 0
10.5939 6.03082e-07 2.729e-07 3.30182e-07 0.547491 0.357612 0 0 0 0 0 0 0 0 1.4013e-44 0 7.56701e-43 0 1.82505e-41 0 2.41996e-40 0 2.14251e-39 0 1.42871e-38 0 7.51277e-38 0 3.23813e-37 0 1.22408e-36 0 4.09659e-36 0 1.24392e-35 0 3.39309e-35 0 8.49953e-35 0 2.02559e-34 0 4.60376e-34 0 9.70963e-34 0 1.96333e-33 0
11.1377 6.04869e-07 2.74011e-07 3.30858e-07 0.546992 0.31299 0 0 0 0 0 0 1.26117e-44 0 2.17482e-42 0 9.85239e-41 0 2.0357e-39 0 2.37928e-38 0 1.89373e-37 0 1.15109e-36 0 5.58173e-36 0 2.24019e-35 0 7.93607e-35 0 2.50382e-34 0 7.20148e-34 0 1.87045e-33 0 4.47997e-33 0 1.02333e-32 0 2.23445e-32 0 4.54398e-32 0 8.87762e-32 0
11.7094 6.08659e-07 2.74788e-07 3.33871e-07 0.548535 0.266033 0 0 0 0 1.4013e-45 0 1.97583e-42 0 2.6554e-40 0 9.9881e-39 0 1.78009e-37 0 1.8452e-36 0 1.32718e-35 0 7.38673e-35 0 3.31617e-34 0 1.24362e-33 0 4.14178e-33 0 1.23544e-32 0 3.37473e-32 0 8.36614e-32 0 1.92014e-31 0 4.2127e-31 0 8.85431e-31 0 1.73928e-30 0 3.28874e-30 0
12.3105 6.15116e-07 2.78186e-07 3.36931e-07 0.547751 0.222067 0 0 0 0 2.29813e-43 0 2.41815e-40 0 2.55803e-38 0 8.06017e-37 0 1.24803e-35 0 1.1541e-34 0 7.53864e-34 0 3.85847e-33 0 1.60975e-32 0 5.65952e-32 0 1.77734e-31 0 5.02609e-31 0 1.30719e-30 0 3.1001e-30 0 6.83232e-30 0 1.44256e-29 0 2.92401e-29 0 5.55749e-29 0 1.01866e-28 0
12.9424 6.24978e-07 2.84634e-07 3.40344e-07 0.54457 0.183009 0 0 0 0 3.11242e-41 0 2.33785e-38 0 1.96969e-36 0 5.24416e-35 0 7.10334e-34 0 5.89269e-33 0 3.51213e-32 0 1.65986e-31 0 6.45841e-31 0 2.13545e-30 0 6.34181e-30 0 1.70464e-29 0 4.23131e-29 0 9.62053e-29 0 2.04003e-28 0 4.15294e-28 0 8.13239e-28 0 1.49796e-27 0 2.66566e-27 0
13.6067 6.3305e-07 2.88834e-07 3.44215e-07 0.543741 0.143406 0 0 2.24208e-44 0 3.26206e-39 0 1.77338e-36 0 1.20329e-34 0 2.72935e-33 0 3.25528e-32 0 2.43544e-31 0 1.3304e-30 0 5.82843e-30 0 2.12225e-29 0 6.61916e-29 0 1.86401e-28 0 4.77419e-28 0 1.13361e-27 0 2.47613e-27 0 5.06141e-27 0 9.95218e-27 0 1.88595e-26 0 3.3718e-26 0 5.8337e-26 0
14.3051 6.42708e-07 2.97742e-07 3.44966e-07 0.536738 0.111943 0 0 3.35191e-42 0 2.73573e-37 0 1.09354e-34 0 6.03916e-33 0 1.17619e-31 0 1.24292e-30 0 8.42872e-30 0 4.23803e-29 0 1.72746e-28 0 5.90544e-28 0 1.74236e-27 0 4.66476e-27 0 1.14114e-26 0 2.59758e-26 0 5.46147e-26 0 1.07807e-25 0 2.05097e-25 0 3.76719e-25 0 6.54678e-25 0 1.10277e-24 0
15.0394 6.51139e-07 3.07366e-07 3.43773e-07 0.527956 0.0845351 1.4013e-45 0 3.89752e-40 0 1.83103e-35 0 5.46296e-33 0 2.48035e-31 0 4.17882e-30 0 3.93575e-29 0 2.43084e-28 0 1.12957e-27 0 4.29896e-27 0 1.38402e-26 0 3.87336e-26 0 9.8832e-26 0 2.3144e-25 0 5.06088e-25 0 1.02615e-24 0 1.95943e-24 0 3.61245e-24 0 6.44122e-24 0 1.08958e-23 0 1.78921e-23 0
