# 0.000137403 1 79 : grain size, compostion index, size index
# Heating and cooling timescale: 0.00017903 2.13453e+10
# Ratio of heating to cooling to determine stochastic cutoff: 100
# Equilibrium emission is recorded even for those grains in the stochastic regime.
# Emission spectrum was computed for: 
# Type: ISRF
# Scales: 0.25 0.5 1 1.5 2 2.5 3 3.5 4 4.5 5 5.5 6 6.5 7 7.5 8 8.5 9 9.5 10
# StochasticallyHeated: 0 0 0 0 0 0 0 0 0 0 0 0 0 0 0 0 0 0 0 0 0
# Temperature: -1
# Wavelength  CExt  CAbs  CSca  Albedo G EqEm1 StEm1 EqEm2 StEm2 EqEm3 StEm3 EqEm4 StEm4 EqEm5 StEm5 EqEm6 StEm6 EqEm7 StEm7 EqEm8 StEm8 EqEm9 StEm9 EqEm10 StEm10 EqEm11 StEm11 EqEm12 StEm12 EqEm13 StEm13 EqEm14 StEm14 EqEm15 StEm15 EqEm16 StEm16 EqEm17 StEm17 EqEm18 StEm18 EqEm19 StEm19 EqEm20 StEm20 EqEm21 StEm21
0.05 1.21505e-07 5.12464e-08 7.02582e-08 0.578235 0.932488 0 0 0 0 0 0 0 0 0 0 0 0 0 0 0 0 0 0 0 0 0 0 0 0 0 0 0 0 0 0 0 0 0 0 0 0 0 0 0 0 0 0
0.0525665 1.21658e-07 5.08684e-08 7.07893e-08 0.581872 0.926818 0 0 0 0 0 0 0 0 0 0 0 0 0 0 0 0 0 0 0 0 0 0 0 0 0 0 0 0 0 0 0 0 0 0 0 0 0 0 0 0 0 0
0.0552647 1.21828e-07 5.019e-08 7.16378e-08 0.588025 0.91817 0 0 0 0 0 0 0 0 0 0 0 0 0 0 0 0 0 0 0 0 0 0 0 0 0 0 0 0 0 0 0 0 0 0 0 0 0 0 0 0 0 0
0.0581015 1.22045e-07 4.91461e-08 7.28993e-08 0.597313 0.904752 0 0 0 0 0 0 0 0 0 0 0 0 0 0 0 0 0 0 0 0 0 0 0 0 0 0 0 0 0 0 0 0 0 0 0 0 0 0 0 0 0 0
0.0610839 1.22314e-07 4.81371e-08 7.41769e-08 0.606446 0.889722 0 0 0 0 0 0 0 0 0 0 0 0 0 0 0 0 0 0 0 0 0 0 0 0 0 0 0 0 0 0 0 0 0 0 0 0 0 0 0 0 0 0
0.0642193 1.22604e-07 4.75045e-08 7.50996e-08 0.612538 0.877505 0 0 0 0 0 0 0 0 0 0 0 0 0 0 0 0 0 0 0 0 0 0 0 0 0 0 0 0 0 0 0 0 0 0 0 0 0 0 0 0 0 0
0.0675157 1.22901e-07 4.72383e-08 7.56625e-08 0.615638 0.868889 0 0 0 0 0 0 0 0 0 0 0 0 0 0 0 0 0 0 0 0 0 0 0 0 0 0 0 0 0 0 0 0 0 0 0 0 0 0 0 0 0 0
0.0709813 1.23198e-07 4.72692e-08 7.59288e-08 0.616315 0.863454 0 0 0 0 0 0 0 0 0 0 0 0 0 0 0 0 0 0 0 0 0 0 0 0 0 0 0 0 0 0 0 0 0 0 0 0 0 0 0 0 0 0
0.0746248 1.23491e-07 4.75454e-08 7.59454e-08 0.614988 0.860795 0 0 0 0 0 0 0 0 0 0 0 0 0 0 0 0 0 0 0 0 0 0 0 0 0 0 0 0 0 0 0 0 0 0 0 0 0 0 0 0 0 0
0.0784553 1.23763e-07 4.80895e-08 7.56735e-08 0.611439 0.861379 0 0 0 0 0 0 0 0 0 0 0 0 0 0 0 0 0 0 0 0 0 0 0 0 0 0 0 0 0 0 0 0 0 0 0 0 0 0 0 0 0 0
0.0824824 1.23989e-07 4.89971e-08 7.49914e-08 0.604825 0.866683 0 0 0 0 0 0 0 0 0 0 0 0 0 0 0 0 0 0 0 0 0 0 0 0 0 0 0 0 0 0 0 0 0 0 0 0 0 0 0 0 0 0
0.0867162 1.24162e-07 4.94131e-08 7.47485e-08 0.602026 0.869536 0 0 0 0 0 0 0 0 0 0 0 0 0 0 0 0 0 0 0 0 0 0 0 0 0 0 0 0 0 0 0 0 0 0 0 0 0 0 0 0 0 0
0.0911674 1.24441e-07 4.91554e-08 7.52856e-08 0.60499 0.863217 0 0 0 0 0 0 0 0 0 0 0 0 0 0 0 0 0 0 0 0 0 0 0 0 0 0 0 0 0 0 0 0 0 0 0 0 0 0 0 0 0 0
0.095847 1.2473e-07 4.93147e-08 7.54151e-08 0.604628 0.859962 0 0 0 0 0 0 0 0 0 0 0 0 0 0 0 0 0 0 0 0 0 0 0 0 0 0 0 0 0 0 0 0 0 0 0 0 0 0 0 0 0 0
0.100767 1.24974e-07 4.96539e-08 7.53204e-08 0.602687 0.859415 0 0 0 0 0 0 0 0 0 0 0 0 0 0 0 0 0 0 0 0 0 0 0 0 0 0 0 0 0 0 0 0 0 0 0 0 0 0 0 0 0 0
0.105939 1.25159e-07 5.03062e-08 7.48528e-08 0.598062 0.863071 0 0 0 0 0 0 0 0 0 0 0 0 0 0 0 0 0 0 0 0 0 0 0 0 0 0 0 0 0 0 0 0 0 0 0 0 0 0 0 0 0 0
0.111377 1.25322e-07 5.09447e-08 7.43771e-08 0.593489 0.867857 0 0 0 0 0 0 0 0 0 0 0 0 0 0 0 0 0 0 0 0 0 0 0 0 0 0 0 0 0 0 0 0 0 0 0 0 0 0 0 0 0 0
0.117094 1.25502e-07 5.14132e-08 7.40893e-08 0.590341 0.870818 0 0 0 0 0 0 0 0 0 0 0 0 0 0 0 0 0 0 0 0 0 0 0 0 0 0 0 0 0 0 0 0 0 0 0 0 0 0 0 0 0 0
0.123105 1.25695e-07 5.17821e-08 7.39131e-08 0.588034 0.872636 0 0 0 0 0 0 0 0 0 0 0 0 0 0 0 0 0 0 0 0 0 0 0 0 0 0 0 0 0 0 0 0 0 0 0 0 0 0 0 0 0 0
0.129424 1.25899e-07 5.207e-08 7.38287e-08 0.586414 0.873452 0 0 0 0 0 0 0 0 0 0 0 0 0 0 0 0 0 0 0 0 0 0 0 0 0 0 0 0 0 0 0 0 0 0 0 0 0 0 0 0 0 0
0.136067 1.26111e-07 5.22673e-08 7.38435e-08 0.585545 0.873077 0 0 0 0 0 0 0 0 0 0 0 0 0 0 0 0 0 0 0 0 0 0 0 0 0 0 0 0 0 0 0 0 0 0 0 0 0 0 0 0 0 0
0.143051 1.26326e-07 5.23167e-08 7.40095e-08 0.58586 0.870656 0 0 0 0 0 0 0 0 0 0 0 0 0 0 0 0 0 0 0 0 0 0 0 0 0 0 0 0 0 0 0 0 0 0 0 0 0 0 0 0 0 0
0.150394 1.26487e-07 5.262e-08 7.38667e-08 0.583988 0.871624 0 0 0 0 0 0 0 0 0 0 0 0 0 0 0 0 0 0 0 0 0 0 0 0 0 0 0 0 0 0 0 0 0 0 0 0 0 0 0 0 0 0
0.158114 1.26647e-07 5.32782e-08 7.33688e-08 0.579317 0.877662 0 0 0 0 0 0 0 0 0 0 0 0 0 0 0 0 0 0 0 0 0 0 0 0 0 0 0 0 0 0 0 0 0 0 0 0 0 0 0 0 0 0
0.16623 1.26856e-07 5.40374e-08 7.28182e-08 0.574024 0.885079 0 0 0 0 0 0 0 0 0 0 0 0 0 0 0 0 0 0 0 0 0 0 0 0 0 0 0 0 0 0 0 0 0 0 0 0 0 0 0 0 0 0
0.174762 1.27107e-07 5.47586e-08 7.23484e-08 0.569193 0.891809 0 0 0 0 0 0 0 0 0 0 0 0 0 0 0 0 0 0 0 0 0 0 0 0 0 0 0 0 0 0 0 0 0 0 0 0 0 0 0 0 0 0
0.183733 1.27384e-07 5.54412e-08 7.19429e-08 0.564771 0.897805 0 0 0 0 0 0 0 0 0 0 0 0 0 0 0 0 0 0 0 0 0 0 0 0 0 0 0 0 0 0 0 0 0 0 0 0 0 0 0 0 0 0
0.193164 1.2769e-07 5.6068e-08 7.1622e-08 0.560905 0.902854 0 0 0 0 0 0 0 0 0 0 0 0 0 0 0 0 0 0 0 0 0 0 0 0 0 0 0 0 0 0 0 0 0 0 0 0 0 0 0 0 0 0
0.203079 1.28096e-07 5.65912e-08 7.15046e-08 0.558212 0.906859 0 0 0 0 0 0 0 0 0 0 0 0 0 0 0 0 0 0 0 0 0 0 0 0 0 0 0 0 0 0 0 0 0 0 0 0 0 0 0 0 0 0
0.213503 1.28628e-07 5.67921e-08 7.1836e-08 0.558478 0.908991 0 0 0 0 0 0 0 0 0 0 0 0 0 0 0 0 0 0 0 0 0 0 0 0 0 0 0 0 0 0 0 0 0 0 0 0 0 0 0 0 0 0
0.224463 1.29013e-07 5.67375e-08 7.22758e-08 0.56022 0.909201 0 0 0 0 0 0 0 0 0 0 0 0 0 0 0 0 0 0 0 0 0 0 0 0 0 0 0 0 0 0 0 0 0 0 0 0 0 0 0 0 0 0
0.235984 1.28276e-07 5.68772e-08 7.13984e-08 0.556602 0.908544 0 0 0 0 0 0 0 0 0 0 0 0 0 0 0 0 0 0 0 0 0 0 0 0 0 0 0 0 0 0 0 0 0 0 0 0 0 0 0 0 0 0
0.248097 1.2961e-07 5.7223e-08 7.23865e-08 0.558497 0.910952 0 0 0 0 0 0 0 0 0 0 0 0 0 0 0 0 0 0 0 0 0 0 0 0 0 0 0 0 0 0 0 0 0 0 0 0 0 0 0 0 0 0
0.260832 1.299e-07 5.7455e-08 7.24447e-08 0.557697 0.910992 0 0 0 0 0 0 0 0 0 0 0 0 0 0 0 0 0 0 0 0 0 0 0 0 0 0 0 0 0 0 0 0 0 0 0 0 0 0 0 0 0 0
0.274221 1.2998e-07 5.75635e-08 7.24162e-08 0.557135 0.910169 0 0 0 0 0 0 0 0 0 0 0 0 0 0 0 0 0 0 0 0 0 0 0 0 0 0 0 0 0 0 0 0 0 0 0 0 0 0 0 0 0 0
0.288297 1.30276e-07 5.76006e-08 7.26749e-08 0.557855 0.909398 0 0 0 0 0 0 0 0 0 0 0 0 0 0 0 0 0 0 0 0 0 0 0 0 0 0 0 0 0 0 0 0 0 0 0 0 0 0 0 0 0 0
0.303095 1.32005e-07 5.77274e-08 7.42775e-08 0.562688 0.910083 0 0 0 0 0 0 0 0 0 0 0 0 0 0 0 0 0 0 0 0 0 0 0 0 0 0 0 0 0 0 0 0 0 0 0 0 0 0 0 0 0 0
0.318653 1.29353e-07 5.76373e-08 7.17154e-08 0.554418 0.904465 0 0 0 0 0 0 0 0 0 0 0 0 0 0 0 0 0 0 0 0 0 0 0 0 0 0 0 0 0 0 0 0 0 0 0 0 0 0 0 0 0 0
0.335009 1.33327e-07 5.76107e-08 7.57165e-08 0.5679 0.906492 0 0 0 0 0 0 0 0 0 0 0 0 0 0 0 0 0 0 0 0 0 0 0 0 0 0 0 0 0 0 0 0 0 0 0 0 0 0 0 0 0 0
0.352205 1.33104e-07 5.75727e-08 7.55314e-08 0.567461 0.904184 0 0 0 0 0 0 0 0 0 0 0 0 0 0 0 0 0 0 0 0 0 0 0 0 0 0 0 0 0 0 0 0 0 0 0 0 0 0 0 0 0 0
0.370284 1.29831e-07 5.75035e-08 7.23273e-08 0.557089 0.89707 0 0 0 0 0 0 0 0 0 0 0 0 0 0 0 0 0 0 0 0 0 0 0 0 0 0 0 0 0 0 0 0 0 0 0 0 0 0 0 0 0 0
0.389291 1.33903e-07 5.7573e-08 7.63296e-08 0.570038 0.899165 0 0 0 0 0 0 0 0 0 0 0 0 0 0 0 0 0 0 0 0 0 0 0 0 0 0 0 0 0 0 0 0 0 0 0 0 0 0 0 0 0 0
0.409273 1.37154e-07 5.70978e-08 8.00564e-08 0.583696 0.899338 0 0 0 0 0 0 0 0 0 0 0 0 0 0 0 0 0 0 0 0 0 0 0 0 0 0 0 0 0 0 0 0 0 0 0 0 0 0 0 0 0 0
0.430281 1.33295e-07 5.704e-08 7.62551e-08 0.572077 0.889091 0 0 0 0 0 0 0 0 0 0 0 0 0 0 0 0 0 0 0 0 0 0 0 0 0 0 0 0 0 0 0 0 0 0 0 0 0 0 0 0 0 0
0.452368 1.30038e-07 5.64176e-08 7.36206e-08 0.566146 0.8789 0 0 0 0 0 0 0 0 0 0 0 0 0 0 0 0 0 0 0 0 0 0 0 0 0 0 0 0 0 0 0 0 0 0 0 0 0 0 0 0 0 0
0.475588 1.35168e-07 5.64213e-08 7.87468e-08 0.582584 0.882559 0 0 0 0 0 0 0 0 0 0 0 0 0 0 0 0 0 0 0 0 0 0 0 0 0 0 0 0 0 0 0 0 0 0 0 0 0 0 0 0 0 0
0.5 1.40983e-07 5.60684e-08 8.49146e-08 0.602304 0.887638 0 0 0 0 0 0 0 0 0 0 0 0 0 0 0 0 0 0 0 0 0 0 0 0 0 0 0 0 0 0 0 0 0 0 0 0 0 0 0 0 0 0
0.525665 1.40269e-07 5.55803e-08 8.46882e-08 0.603758 0.883368 0 0 0 0 0 0 0 0 0 0 0 0 0 0 0 0 0 0 0 0 0 0 0 0 0 0 0 0 0 0 0 0 0 0 0 0 0 0 0 0 0 0
0.552648 1.33958e-07 5.50944e-08 7.88637e-08 0.588719 0.868686 0 0 0 0 0 0 0 0 0 0 0 0 0 0 0 0 0 0 0 0 0 0 0 0 0 0 0 0 0 0 0 0 0 0 0 0 0 0 0 0 0 0
0.581015 1.30145e-07 5.46214e-08 7.55241e-08 0.580305 0.852813 0 0 0 0 0 0 0 0 0 0 0 0 0 0 0 0 0 0 0 0 0 0 0 0 0 0 0 0 0 0 0 0 0 0 0 0 0 0 0 0 0 0
0.610839 1.33519e-07 5.41494e-08 7.93699e-08 0.594445 0.84808 0 0 0 0 0 0 0 0 0 0 0 0 0 0 0 0 0 0 0 0 0 0 0 0 0 0 0 0 0 0 0 0 0 0 0 0 0 0 0 0 0 0
0.642193 1.41694e-07 5.34195e-08 8.82745e-08 0.622994 0.853977 0 0 0 0 0 0 0 0 0 0 0 0 0 0 0 0 0 0 0 0 0 0 0 0 0 0 0 0 0 0 0 0 0 0 0 0 0 0 0 0 0 0
0.675157 1.48172e-07 5.26261e-08 9.55455e-08 0.64483 0.857367 0 0 0 0 0 0 0 0 0 0 0 0 0 0 0 0 0 0 0 0 0 0 0 0 0 0 0 0 0 0 0 0 0 0 0 0 0 0 0 0 0 0
0.709813 1.48554e-07 5.22646e-08 9.62896e-08 0.648178 0.845662 0 0 0 0 0 0 0 0 0 0 0 0 0 0 0 0 0 0 0 0 0 0 0 0 0 0 0 0 0 0 0 0 0 0 0 0 0 0 0 0 0 0
0.746248 1.43288e-07 5.23673e-08 9.09206e-08 0.634531 0.82753 0 0 0 0 0 0 0 0 0 0 0 0 0 0 0 0 0 0 0 0 0 0 0 0 0 0 0 0 0 0 0 0 0 0 0 0 0 0 0 0 0 0
0.784553 1.36283e-07 5.21702e-08 8.41127e-08 0.617192 0.809636 0 0 0 0 0 0 0 0 0 0 0 0 0 0 0 0 0 0 0 0 0 0 0 0 0 0 0 0 0 0 0 0 0 0 0 0 0 0 0 0 0 0
0.824824 1.30685e-07 5.06459e-08 8.00387e-08 0.612457 0.7849 0 0 0 0 0 0 0 0 0 0 0 0 0 0 0 0 0 0 0 0 0 0 0 0 0 0 0 0 0 0 0 0 0 0 0 0 0 0 0 0 0 0
0.867162 1.29402e-07 4.97625e-08 7.96393e-08 0.615442 0.787303 0 0 0 0 0 0 0 0 0 0 0 0 0 0 0 0 0 0 0 0 0 0 0 0 0 0 0 0 0 0 0 0 0 0 0 0 0 0 0 0 0 0
0.911674 1.36836e-07 4.95168e-08 8.73191e-08 0.63813 0.79862 0 0 0 0 0 0 0 0 0 0 0 0 0 0 0 0 0 0 0 0 0 0 0 0 0 0 0 0 0 0 0 0 0 0 0 0 0 0 0 0 0 0
0.95847 1.50524e-07 4.99597e-08 1.00565e-07 0.668096 0.822384 0 0 0 0 0 0 0 0 0 0 0 0 0 0 0 0 0 0 0 0 0 0 0 0 0 0 0 0 0 0 0 0 0 0 0 0 0 0 0 0 0 0
1.00767 1.59176e-07 4.88101e-08 1.10366e-07 0.693357 0.829439 0 0 0 0 0 0 0 0 0 0 0 0 0 0 0 0 0 0 0 0 0 0 0 0 0 0 0 0 0 0 0 0 0 0 0 0 0 0 0 0 0 0
1.05939 1.65821e-07 4.83153e-08 1.17506e-07 0.70863 0.846934 0 0 0 0 0 0 0 0 0 0 0 0 0 0 0 0 0 0 0 0 0 0 0 0 0 0 0 0 0 0 0 0 0 0 0 0 0 0 0 0 0 0
1.11377 1.71543e-07 4.88475e-08 1.22696e-07 0.715247 0.823957 0 0 0 0 0 0 0 0 0 0 0 0 0 0 0 0 0 0 0 0 0 0 0 0 0 0 0 0 0 0 0 0 0 0 0 0 0 0 0 0 0 0
1.17094 1.6388e-07 4.92638e-08 1.14616e-07 0.699391 0.82358 0 0 0 0 0 0 0 0 0 0 0 0 0 0 0 0 0 0 0 0 0 0 0 0 0 0 0 0 0 0 0 0 0 0 0 0 0 0 0 0 0 0
1.23105 1.60678e-07 4.84369e-08 1.12241e-07 0.698547 0.775486 0 0 0 0 0 0 0 0 0 0 0 0 0 0 0 0 0 0 0 0 0 0 0 0 0 0 0 0 0 0 0 0 0 0 0 0 0 0 0 0 0 0
1.29424 1.44642e-07 4.91551e-08 9.54865e-08 0.660159 0.731444 0 0 0 0 0 0 0 0 0 0 0 0 0 0 0 0 0 0 0 0 0 0 0 0 0 0 0 0 0 0 0 0 0 0 0 0 0 0 0 0 0 0
1.36067 1.37398e-07 4.64805e-08 9.09171e-08 0.661708 0.679744 0 0 0 0 0 0 0 0 0 0 0 0 0 0 0 0 0 0 0 0 0 0 0 0 0 0 0 0 0 0 0 0 0 0 0 0 0 0 0 0 0 0
1.43051 1.26183e-07 4.7995e-08 7.81884e-08 0.619641 0.601358 0 0 0 0 0 0 0 0 0 0 0 0 0 0 0 0 0 0 0 0 0 0 0 0 0 0 0 0 0 0 0 0 0 0 0 0 0 0 0 0 0 0
1.50394 1.19084e-07 4.38816e-08 7.52022e-08 0.631507 0.529869 0 0 0 0 0 0 0 0 0 0 0 0 0 0 0 0 0 0 0 0 0 0 0 0 0 0 0 0 0 0 0 0 0 0 0 0 0 0 0 0 0 0
1.58114 1.2645e-07 4.50082e-08 8.14413e-08 0.644062 0.520742 0 0 0 0 0 0 0 0 0 0 0 0 0 0 0 0 0 0 0 0 0 0 0 0 0 0 0 0 0 0 0 0 0 0 0 0 0 0 0 0 0 0
1.6623 1.28356e-07 4.73994e-08 8.09568e-08 0.63072 0.471181 0 0 0 0 0 0 0 0 0 0 0 0 0 0 0 0 0 0 0 0 0 0 0 0 0 0 0 0 0 0 0 0 0 0 0 0 0 0 0 0 0 0
1.74763 1.36671e-07 3.99365e-08 9.67341e-08 0.70779 0.525019 0 0 0 0 0 0 0 0 0 0 0 0 0 0 0 0 0 0 0 0 0 0 0 0 0 0 0 0 0 0 0 0 0 0 0 0 0 0 0 0 0 0
1.83733 1.59048e-07 4.32655e-08 1.15783e-07 0.727972 0.562484 0 0 0 0 0 0 0 0 0 0 0 0 0 0 0 0 0 0 0 0 0 0 0 0 0 0 0 0 0 0 0 0 0 0 0 0 0 0 0 0 0 0
1.93164 1.66183e-07 4.38383e-08 1.22344e-07 0.736204 0.565589 0 0 0 0 0 0 0 0 0 0 0 0 0 0 0 0 0 0 0 0 0 0 0 0 0 0 0 0 0 0 0 0 0 0 0 0 0 0 0 0 0 0
2.03079 1.77326e-07 3.677e-08 1.40556e-07 0.792642 0.62599 0 0 0 0 0 0 0 0 0 0 0 0 0 0 0 0 0 0 0 0 0 0 0 0 0 0 0 0 0 0 0 0 0 0 0 0 0 0 0 0 0 0
2.13503 2.07418e-07 3.82744e-08 1.69144e-07 0.815472 0.653361 0 0 0 0 0 0 0 0 0 0 0 0 0 0 0 0 0 0 0 0 0 0 0 0 0 0 0 0 0 0 0 0 0 0 0 0 0 0 0 0 0 0
2.24463 2.23113e-07 4.14613e-08 1.81651e-07 0.814169 0.646642 0 0 0 0 0 0 0 0 0 0 0 0 0 0 0 0 0 0 0 0 0 0 0 0 0 0 0 0 0 0 0 0 0 0 0 0 0 0 0 0 0 0
2.35984 2.15864e-07 3.55802e-08 1.80284e-07 0.835173 0.661206 0 0 0 0 0 0 0 0 0 0 0 0 0 0 0 0 0 0 0 0 0 0 0 0 0 0 0 0 0 0 0 0 0 0 0 0 0 0 0 0 0 0
2.48097 2.30387e-07 3.27705e-08 1.97616e-07 0.857759 0.699429 0 0 0 0 0 0 0 0 0 0 0 0 0 0 0 0 0 0 0 0 0 0 0 0 0 0 0 0 0 0 0 0 0 0 0 0 0 0 0 0 0 0
2.60832 2.52141e-07 3.45922e-08 2.17549e-07 0.862806 0.710855 0 0 0 0 0 0 0 0 0 0 0 0 0 0 0 0 0 0 0 0 0 0 0 0 0 0 0 0 0 0 0 0 0 0 0 0 0 0 0 0 0 0
2.74221 2.559e-07 3.59938e-08 2.19906e-07 0.859344 0.696066 0 0 0 0 0 0 0 0 0 0 0 0 0 0 0 0 0 0 0 0 0 0 0 0 0 0 0 0 0 0 0 0 0 0 0 0 0 0 0 0 0 0
2.88297 2.37364e-07 3.18704e-08 2.05494e-07 0.865732 0.675393 0 0 0 0 0 0 0 0 0 0 0 0 0 0 0 0 0 0 0 0 0 0 0 0 0 0 0 0 0 0 0 0 0 0 0 0 0 0 0 0 0 0
3.03095 2.29197e-07 2.82989e-08 2.00898e-07 0.87653 0.6792 0 0 0 0 0 0 0 0 0 0 0 0 0 0 0 0 0 0 0 0 0 0 0 0 0 0 0 0 0 0 0 0 0 0 0 0 0 0 0 0 0 0
3.18653 2.33345e-07 2.81027e-08 2.05242e-07 0.879566 0.696364 0 0 0 0 0 0 0 0 0 0 0 0 0 0 0 0 0 0 0 0 0 0 0 0 0 0 0 0 0 0 0 0 0 0 0 0 0 0 0 0 0 0
3.35009 2.36386e-07 2.95447e-08 2.06842e-07 0.875015 0.708325 0 0 0 0 0 0 0 0 0 0 0 0 0 0 0 0 0 0 0 0 0 0 0 0 0 0 0 0 0 0 0 0 0 0 0 0 0 0 0 0 0 0
3.52205 2.25793e-07 2.98375e-08 1.95955e-07 0.867855 0.703414 0 0 0 0 0 0 0 0 0 0 0 0 0 0 0 0 0 0 0 0 0 0 0 0 0 0 0 0 0 0 0 0 0 0 0 0 0 0 0 0 0 0
3.70284 2.02279e-07 2.73052e-08 1.74974e-07 0.865012 0.67637 0 0 0 0 0 0 0 0 0 0 0 0 0 0 0 0 0 0 0 0 0 0 0 0 0 0 0 0 0 0 0 0 0 0 0 0 0 0 0 0 0 0
3.89291 1.80484e-07 2.39389e-08 1.56545e-07 0.867363 0.639459 0 0 0 0 0 0 0 0 0 0 0 0 0 0 0 0 0 0 0 0 0 0 0 0 0 0 0 0 0 0 0 0 0 0 0 0 0 0 0 0 0 0
4.09273 1.66366e-07 2.1737e-08 1.44629e-07 0.869342 0.610113 0 0 0 0 0 0 0 0 0 0 0 0 0 0 0 0 0 0 0 0 0 0 0 0 0 0 0 0 0 0 0 0 0 0 0 0 0 0 0 0 0 0
4.30281 1.57243e-07 2.09172e-08 1.36326e-07 0.866976 0.596366 0 0 0 0 0 0 0 0 0 0 0 0 0 0 0 0 0 0 0 0 0 0 0 0 0 0 0 0 0 0 0 0 0 0 0 0 0 0 0 0 0 0
4.52368 1.48261e-07 2.09769e-08 1.27284e-07 0.858514 0.597942 0 0 0 0 0 0 0 0 0 0 0 0 0 0 0 0 0 0 0 0 0 0 0 0 0 0 0 0 0 0 0 0 0 0 0 0 0 0 0 0 0 0
4.75588 1.35401e-07 2.10497e-08 1.14352e-07 0.844539 0.607922 0 0 0 0 0 0 0 0 0 0 0 0 0 0 0 0 0 0 0 0 0 0 0 0 0 0 0 0 0 0 0 0 0 0 0 0 0 0 0 0 0 0
5 1.17718e-07 2.04317e-08 9.7286e-08 0.826435 0.61446 0 0 0 0 0 0 0 0 0 0 0 0 0 0 0 0 0 0 0 0 0 0 0 0 0 0 0 0 0 0 0 0 0 0 0 0 0 0 0 0 0 0
5.25665 9.83027e-08 1.90596e-08 7.92431e-08 0.806114 0.604026 0 0 0 0 0 0 0 0 0 0 0 0 0 0 0 0 0 0 0 0 0 0 0 0 0 0 0 0 0 0 0 0 0 0 0 0 0 0 0 0 0 0
5.52648 8.0927e-08 1.74085e-08 6.35184e-08 0.784886 0.570939 0 0 0 0 0 0 0 0 0 0 0 0 0 0 0 0 0 0 0 0 0 0 0 0 0 0 0 0 0 0 0 0 0 0 0 0 0 0 0 0 0 0
5.81015 6.6607e-08 1.59697e-08 5.06373e-08 0.76024 0.520266 0 0 0 0 0 0 0 0 0 0 0 0 0 0 0 0 0 0 0 0 0 0 0 0 0 0 0 0 0 0 0 0 0 0 0 0 0 0 0 0 0 0
6.10839 5.51413e-08 1.48841e-08 4.02573e-08 0.730074 0.462114 0 0 0 0 0 0 0 0 0 0 0 0 0 0 0 0 0 0 0 0 0 0 0 0 0 0 0 0 0 0 0 0 0 0 0 0 0 0 0 0 0 0
6.42193 4.55181e-08 1.39688e-08 3.15493e-08 0.693116 0.404569 0 0 0 0 0 0 0 0 0 0 0 0 0 0 0 0 0 0 0 0 0 0 0 0 0 0 0 0 0 0 0 0 0 0 0 0 0 0 0 0 0 0
6.75157 3.67397e-08 1.30305e-08 2.37092e-08 0.645329 0.351194 0 0 0 0 0 0 0 0 0 0 0 0 0 0 0 0 0 0 0 0 0 0 0 0 0 0 0 0 0 0 0 0 0 0 0 0 0 0 0 0 0 0
7.09813 2.85442e-08 1.22737e-08 1.62705e-08 0.57001 0.303059 0 0 0 0 0 0 0 0 0 0 0 0 0 0 0 0 0 0 0 0 0 0 0 0 0 0 0 0 0 0 0 0 0 0 1.4013e-45 0 2.8026e-45 0 7.00649e-45 0 1.82169e-44 0
7.46248 2.2696e-08 1.36597e-08 9.0363e-09 0.398145 0.260698 0 0 0 0 0 0 0 0 0 0 0 0 0 0 0 0 0 0 0 0 0 0 0 0 0 0 1.4013e-45 0 7.00649e-45 0 2.24208e-44 0 6.72623e-44 0 1.93379e-43 0 5.08671e-43 0 1.27798e-42 0 3.06464e-42 0
7.84553 2.69374e-08 2.27904e-08 4.14709e-09 0.153953 0.227612 0 0 0 0 0 0 0 0 0 0 0 0 0 0 0 0 0 0 1.4013e-45 0 5.60519e-45 0 2.66247e-44 0 1.20512e-43 0 4.76441e-43 0 1.70258e-42 0 5.35016e-42 0 1.53905e-41 0 4.19983e-41 0 1.05721e-40 0 2.53939e-40 0 5.83215e-40 0
8.24824 4.4809e-08 4.03395e-08 4.4695e-09 0.0997456 0.204134 0 0 0 0 0 0 0 0 0 0 0 0 0 0 2.8026e-45 0 2.94273e-44 0 2.24208e-43 0 1.38729e-42 0 6.81451e-42 0 2.88864e-41 0 1.06752e-40 0 3.58243e-40 0 1.06472e-39 0 2.90888e-39 0 7.55831e-39 0 1.81875e-38 0 4.18564e-38 0 9.23061e-38 0
8.67162 6.33922e-08 5.58575e-08 7.53471e-09 0.118859 0.183676 0 0 0 0 0 0 0 0 0 0 1.4013e-45 0 4.2039e-44 0 6.30584e-43 0 5.9401e-42 0 4.13551e-41 0 2.34376e-40 0 1.06512e-39 0 4.20707e-39 0 1.45868e-38 0 4.61409e-38 0 1.30031e-37 0 3.3824e-37 0 8.38838e-37 0 1.93378e-36 0 4.27289e-36 0 9.06611e-36 0
9.11674 8.90985e-08 7.52788e-08 1.38197e-08 0.155105 0.162824 0 0 0 0 0 0 0 0 7.00649e-45 0 3.82554e-43 0 8.31671e-42 0 1.08193e-40 0 9.12874e-40 0 5.78168e-39 0 3.01057e-38 0 1.27067e-37 0 4.6934e-37 0 1.53145e-36 0 4.57944e-36 0 1.22688e-35 0 3.04587e-35 0 7.22612e-35 0 1.59928e-34 0 3.39961e-34 0 6.95308e-34 0
9.5847 1.1283e-07 9.11396e-08 2.16904e-08 0.19224 0.14439 0 0 0 0 0 0 9.80909e-45 0 1.46436e-42 0 6.05053e-41 0 1.13223e-39 0 1.29956e-38 0 9.88062e-38 0 5.71858e-37 0 2.74723e-36 0 1.0808e-35 0 3.74538e-35 0 1.15354e-34 0 3.26977e-34 0 8.34857e-34 0 1.98262e-33 0 4.50935e-33 0 9.60037e-33 0 1.96699e-32 0 3.88489e-32 0
10.0767 1.19225e-07 9.45281e-08 2.46969e-08 0.207145 0.130267 0 0 0 0 1.4013e-45 0 1.58066e-42 0 1.85439e-40 0 6.38666e-39 0 1.03587e-37 0 1.05541e-36 0 7.26766e-36 0 3.86074e-35 0 1.7179e-34 0 6.3213e-34 0 2.06159e-33 0 6.01021e-33 0 1.61912e-32 0 3.94911e-32 0 8.99055e-32 0 1.96443e-31 0 4.03077e-31 0 7.97431e-31 0 1.52349e-30 0
10.5939 1.19821e-07 9.32354e-08 2.65854e-08 0.221876 0.120204 0 0 0 0 2.24208e-43 0 1.87543e-40 0 1.74409e-38 0 5.05352e-37 0 7.15395e-36 0 6.5079e-35 0 4.07852e-34 0 1.99695e-33 0 8.26118e-33 0 2.85249e-32 0 8.78122e-32 0 2.42971e-31 0 6.23635e-31 0 1.45628e-30 0 3.18484e-30 0 6.69831e-30 0 1.32701e-29 0 2.5393e-29 0 4.70037e-29 0
11.1377 1.08217e-07 8.40303e-08 2.41871e-08 0.223505 0.117136 0 0 0 0 2.64747e-41 0 1.59024e-38 0 1.18528e-36 0 2.91384e-35 0 3.62429e-34 0 2.96006e-33 0 1.69608e-32 0 7.68476e-32 0 2.96617e-31 0 9.64057e-31 0 2.80925e-30 0 7.39621e-30 0 1.813e-29 0 4.06191e-29 0 8.55028e-29 0 1.73418e-28 0 3.32283e-28 0 6.16007e-28 0 1.10649e-27 0
11.7094 9.41328e-08 7.32891e-08 2.08437e-08 0.221428 0.115146 0 0 2.52234e-44 0 2.3493e-39 0 1.03255e-36 0 6.23528e-35 0 1.311e-33 0 1.44181e-32 0 1.06281e-31 0 5.59225e-31 0 2.3536e-30 0 8.50471e-30 0 2.60959e-29 0 7.21743e-29 0 1.81249e-28 0 4.25258e-28 0 9.15966e-28 0 1.85929e-27 0 3.64306e-27 0 6.76226e-27 0 1.21641e-26 0 2.12336e-26 0
12.3105 7.74898e-08 6.04903e-08 1.69996e-08 0.219378 0.114353 0 0 2.90489e-42 0 1.55516e-37 0 5.07818e-35 0 2.51014e-33 0 4.54845e-32 0 4.44969e-31 0 2.97522e-30 0 1.44358e-29 0 5.66387e-29 0 1.92221e-28 0 5.58394e-28 0 1.46953e-27 0 3.52815e-27 0 7.94039e-27 0 1.6474e-26 0 3.23039e-26 0 6.12508e-26 0 1.10312e-25 0 1.92824e-25 0 3.27561e-25 0
12.9424 6.06447e-08 4.76029e-08 1.30418e-08 0.215052 0.110375 2.8026e-45 0 2.48788e-40 0 7.82775e-36 0 1.92677e-33 0 7.87251e-32 0 1.23837e-30 0 1.08382e-29 0 6.60476e-29 0 2.96681e-28 0 1.08887e-27 0 3.4814e-27 0 9.60022e-27 0 2.40992e-26 0 5.54369e-26 0 1.1992e-25 0 2.4009e-25 0 4.55567e-25 0 8.37227e-25 0 1.46514e-24 0 2.49216e-24 0 4.12544e-24 0
13.6067 4.59955e-08 3.66489e-08 9.34657e-09 0.203206 0.100657 2.67648e-43 0 1.63792e-38 0 3.10812e-34 0 5.84714e-32 0 1.99323e-30 0 2.74071e-29 0 2.15761e-28 0 1.20379e-27 0 5.02494e-27 0 1.7308e-26 0 5.22852e-26 0 1.37214e-25 0 3.29308e-25 0 7.27336e-25 0 1.5152e-24 0 2.93245e-24 0 5.39296e-24 0 9.62085e-24 0 1.63826e-23 0 2.71529e-23 0 4.38555e-23 0
14.3051 3.75218e-08 3.1268e-08 6.25377e-09 0.16667 0.0858691 2.65882e-41 0 9.50011e-37 0 1.11444e-32 0 1.6235e-30 0 4.65842e-29 0 5.63597e-28 0 4.01169e-27 0 2.05804e-26 0 8.01186e-26 0 2.59792e-25 0 7.43559e-25 0 1.86156e-24 0 4.28074e-24 0 9.09596e-24 0 1.82819e-23 0 3.42596e-23 0 6.11588e-23 0 1.06065e-22 0 1.75977e-22 0 2.84561e-22 0 4.4897e-22 0
