# 6.0505e-08 0 7 : grain size, compostion index, size index
# Heating and cooling timescale: 877168 1.96969
# Ratio of heating to cooling to determine stochastic cutoff: 100
# Equilibrium emission is recorded even for those grains in the stochastic regime.
# Emission spectrum was computed for: 
# Type: ISRF
# Scales: 0.25 0.5 1 1.5 2 2.5 3 3.5 4 4.5 5 5.5 6 6.5 7 7.5 8 8.5 9 9.5 10
# StochasticallyHeated: 1 1 1 1 1 1 1 1 1 1 1 1 1 1 1 1 1 1 1 1 1
# Temperature: -1
# Wavelength  CExt  CAbs  CSca  Albedo G EqEm1 StEm1 EqEm2 StEm2 EqEm3 StEm3 EqEm4 StEm4 EqEm5 StEm5 EqEm6 StEm6 EqEm7 StEm7 EqEm8 StEm8 EqEm9 StEm9 EqEm10 StEm10 EqEm11 StEm11 EqEm12 StEm12 EqEm13 StEm13 EqEm14 StEm14 EqEm15 StEm15 EqEm16 StEm16 EqEm17 StEm17 EqEm18 StEm18 EqEm19 StEm19 EqEm20 StEm20 EqEm21 StEm21
0.05 6.05174e-16 6.05125e-16 4.94821e-20 8.17651e-05 0.000854383 0 0 0 0 0 0 0 0 0 0 0 0 0 0 0 0 0 0 0 0 0 0 0 0 0 0 0 0 0 0 0 0 0 0 0 0 0 0 0 0 0 0
0.0525665 6.56884e-16 6.56835e-16 4.94393e-20 7.52634e-05 0.000767986 0 0 0 0 0 0 0 0 0 0 0 0 0 0 0 0 0 0 0 0 0 0 0 0 0 0 0 0 0 0 0 0 0 0 0 0 0 0 0 0 0 0
0.0552647 7.14221e-16 7.14171e-16 4.96201e-20 6.94744e-05 0.000689803 0 0 0 0 0 0 0 0 0 0 0 0 0 0 0 0 0 0 0 0 0 0 0 0 0 0 0 0 0 0 0 0 0 0 0 0 0 0 0 0 0 0
0.0581015 7.78945e-16 7.78895e-16 5.0102e-20 6.43203e-05 0.000619017 0 0 0 0 0 0 0 0 0 0 0 0 0 0 0 0 0 0 0 0 0 0 0 0 0 0 0 0 0 0 0 0 0 0 0 0 0 0 0 0 0 0
0.0610839 8.51811e-16 8.5176e-16 5.09171e-20 5.97751e-05 0.000554869 0 0 0 0 0 0 0 0 0 0 0 0 0 0 0 0 0 0 0 0 0 0 0 0 0 0 0 0 0 0 0 0 0 0 0 0 0 0 0 0 0 0
0.0642193 9.34623e-16 9.34571e-16 5.21414e-20 5.57887e-05 0.000496723 0 0 0 0 0 0 0 0 0 0 0 0 0 0 0 0 0 0 0 0 0 0 0 0 0 0 0 0 0 0 0 0 0 0 0 0 0 0 0 0 0 0
0.0675157 1.02855e-15 1.02849e-15 5.38116e-20 5.23181e-05 0.000443957 0 0 0 0 0 0 0 0 0 0 0 0 0 0 0 0 0 0 0 0 0 0 0 0 0 0 0 0 0 0 0 0 0 0 0 0 0 0 0 0 0 0
0.0709813 1.13169e-15 1.13163e-15 5.58535e-20 4.93542e-05 0.000396096 0 0 0 0 0 0 0 0 0 0 0 0 0 0 0 0 0 0 0 0 0 0 0 0 0 0 0 0 0 0 0 0 0 0 0 0 0 0 0 0 0 0
0.0746248 1.23602e-15 1.23597e-15 5.79257e-20 4.68645e-05 0.000353172 0 0 0 0 0 0 0 0 0 0 0 0 0 0 0 0 0 0 0 0 0 0 0 0 0 0 0 0 0 0 0 0 0 0 0 0 0 0 0 0 0 0
0.0784553 1.27737e-15 1.27731e-15 5.59375e-20 4.37913e-05 0.000319038 0 0 0 0 0 0 0 0 0 0 0 0 0 0 0 0 0 0 0 0 0 0 0 0 0 0 0 0 0 0 0 0 0 0 0 0 0 0 0 0 0 0
0.0824824 1.21088e-15 1.21084e-15 4.80409e-20 3.96742e-05 0.000294301 0 0 0 0 0 0 0 0 0 0 0 0 0 0 0 0 0 0 0 0 0 0 0 0 0 0 0 0 0 0 0 0 0 0 0 0 0 0 0 0 0 0
0.0867162 1.09833e-15 1.09829e-15 3.93666e-20 3.58423e-05 0.00027536 0 0 0 0 0 0 0 0 0 0 0 0 0 0 0 0 0 0 0 0 0 0 0 0 0 0 0 0 0 0 0 0 0 0 0 0 0 0 0 0 0 0
0.0911674 9.6535e-16 9.65319e-16 3.11873e-20 3.23068e-05 0.000260782 0 0 0 0 0 0 0 0 0 0 0 0 0 0 0 0 0 0 0 0 0 0 0 0 0 0 0 0 0 0 0 0 0 0 0 0 0 0 0 0 0 0
0.095847 8.30861e-16 8.30837e-16 2.41204e-20 2.90306e-05 0.000248798 0 0 0 0 0 0 0 0 0 0 0 0 0 0 0 0 0 0 0 0 0 0 0 0 0 0 0 0 0 0 0 0 0 0 0 0 0 0 0 0 0 0
0.100767 7.06363e-16 7.06345e-16 1.83789e-20 2.6019e-05 0.000237714 0 0 0 0 0 0 0 0 0 0 0 0 0 0 0 0 0 0 0 0 0 0 0 0 0 0 0 0 0 0 0 0 0 0 0 0 0 0 0 0 0 0
0.105939 5.96888e-16 5.96874e-16 1.38516e-20 2.32063e-05 0.000226122 0 0 0 0 0 0 0 0 0 0 0 0 0 0 0 0 0 0 0 0 0 0 0 0 0 0 0 0 0 0 0 0 0 0 0 0 0 0 0 0 0 0
0.111377 5.03548e-16 5.03537e-16 1.03692e-20 2.05922e-05 0.000213325 0 0 0 0 0 0 0 0 0 0 0 0 0 1.4013e-45 0 1.4013e-45 0 1.4013e-45 0 1.4013e-45 0 2.8026e-45 0 2.8026e-45 0 4.2039e-45 0 4.2039e-45 0 4.2039e-45 0 5.60519e-45 0 5.60519e-45 0 7.00649e-45 0 8.40779e-45 0 8.40779e-45 0 9.80909e-45
0.117094 4.25494e-16 4.25486e-16 7.72068e-21 1.81452e-05 0.000199187 0 0 0 0 0 1.4013e-45 0 4.2039e-45 0 8.40779e-45 0 1.26117e-44 0 1.82169e-44 0 2.52234e-44 0 3.22299e-44 0 4.2039e-44 0 5.1848e-44 0 6.16571e-44 0 7.42688e-44 0 8.68805e-44 0 1.00893e-43 0 1.14906e-43 0 1.31722e-43 0 1.48538e-43 0 1.66755e-43 0 1.84971e-43 0 2.05991e-43
0.123105 3.62289e-16 3.62284e-16 5.72065e-21 1.57903e-05 0.000183824 0 2.8026e-45 0 8.40779e-45 0 3.64338e-44 0 8.12753e-44 0 1.44334e-43 0 2.25609e-43 0 3.25101e-43 0 4.49817e-43 0 5.88545e-43 0 7.45491e-43 0 9.19252e-43 0 1.11123e-42 0 1.32283e-42 0 1.55404e-42 0 1.80347e-42 0 2.06972e-42 0 2.35698e-42 0 2.66107e-42 0 2.98336e-42 0 3.32528e-42 0 3.68261e-42
0.129424 3.11517e-16 3.11512e-16 4.22718e-21 1.35697e-05 0.000167984 0 3.36312e-44 0 1.38729e-43 0 5.61921e-43 0 1.26537e-42 0 2.25049e-42 0 3.51586e-42 0 5.0727e-42 0 7.0121e-42 0 9.1687e-42 0 1.16056e-41 0 1.43031e-41 0 1.73074e-41 0 2.05991e-41 0 2.42018e-41 0 2.80708e-41 0 3.22271e-41 0 3.66958e-41 0 4.14294e-41 0 4.64516e-41 0 5.17598e-41 0 5.73313e-41
0.136067 2.72105e-16 2.72101e-16 3.11511e-21 1.14482e-05 0.000152168 0 4.69435e-43 0 1.90436e-42 0 7.71975e-42 0 1.73705e-41 0 3.08832e-41 0 4.82593e-41 0 6.96165e-41 0 9.60548e-41 0 1.25582e-40 0 1.58953e-40 0 1.95916e-40 0 2.3708e-40 0 2.8217e-40 0 3.31474e-40 0 3.84466e-40 0 4.41388e-40 0 5.02576e-40 0 5.67408e-40 0 6.36175e-40 0 7.08882e-40 0 7.85233e-40
0.143051 2.42382e-16 2.4238e-16 2.29166e-21 9.45472e-06 0.000136896 0 5.77615e-42 0 2.33414e-41 0 9.4362e-41 0 2.12241e-40 0 3.77273e-40 0 5.89472e-40 0 8.50136e-40 0 1.171e-39 0 1.53073e-39 0 1.93744e-39 0 2.38826e-39 0 2.88999e-39 0 3.43957e-39 0 4.0401e-39 0 4.6859e-39 0 5.37961e-39 0 6.12513e-39 0 6.9152e-39 0 7.75323e-39 0 8.63924e-39 0 9.57022e-39
0.150394 2.20542e-16 2.2054e-16 1.68102e-21 7.62222e-06 0.000122506 0 6.45228e-41 0 2.58213e-40 0 1.03806e-39 0 2.33171e-39 0 4.14201e-39 0 6.46911e-39 0 9.32585e-39 0 1.28237e-38 0 1.67592e-38 0 2.12097e-38 0 2.61463e-38 0 3.16368e-38 0 3.76507e-38 0 4.42179e-38 0 5.12837e-38 0 5.88734e-38 0 6.70279e-38 0 7.56713e-38 0 8.48392e-38 0 9.4532e-38 0 1.04722e-37
0.158114 2.05849e-16 2.05847e-16 1.22504e-21 5.95117e-06 0.000109059 0 6.78203e-40 0 2.64049e-39 0 1.04598e-38 0 2.33908e-38 0 4.14579e-38 0 6.46628e-38 0 9.31203e-38 0 1.27787e-37 0 1.66908e-37 0 2.11152e-37 0 2.60256e-37 0 3.1483e-37 0 3.74599e-37 0 4.39824e-37 0 5.10028e-37 0 5.85433e-37 0 6.66422e-37 0 7.52283e-37 0 8.43349e-37 0 9.39625e-37 0 1.04088e-36
0.16623 1.99114e-16 1.99113e-16 8.83373e-22 4.43651e-06 9.6401e-05 0 7.25391e-39 0 2.62848e-38 0 1.00011e-37 0 2.20648e-37 0 3.88393e-37 0 6.03258e-37 0 8.66189e-37 0 1.18471e-36 0 1.54494e-36 0 1.95219e-36 0 2.40424e-36 0 2.90615e-36 0 3.45564e-36 0 4.05479e-36 0 4.69981e-36 0 5.39246e-36 0 6.13603e-36 0 6.9244e-36 0 7.76045e-36 0 8.6442e-36 0 9.57391e-36
0.174762 2.065e-16 2.06499e-16 6.50376e-22 3.14952e-06 8.43484e-05 0 9.07577e-38 0 2.8525e-37 0 9.87928e-37 0 2.10405e-36 0 3.63511e-36 0 5.5812e-36 0 7.94975e-36 0 1.07973e-35 0 1.4019e-35 0 1.7655e-35 0 2.16875e-35 0 2.61567e-35 0 3.10444e-35 0 3.63666e-35 0 4.20944e-35 0 4.8241e-35 0 5.48338e-35 0 6.18221e-35 0 6.92299e-35 0 7.70572e-35 0 8.52916e-35
0.183733 2.38318e-16 2.38317e-16 5.58963e-22 2.34545e-06 7.30226e-05 0 1.46414e-36 0 3.84458e-36 0 1.13726e-35 0 2.25543e-35 0 3.74007e-35 0 5.59126e-35 0 7.81481e-35 0 1.04531e-34 0 1.3427e-34 0 1.6767e-34 0 2.04589e-34 0 2.45342e-34 0 2.89788e-34 0 3.38049e-34 0 3.89902e-34 0 4.4545e-34 0 5.04916e-34 0 5.67887e-34 0 6.34556e-34 0 7.04926e-34 0 7.78908e-34
0.193164 2.97717e-16 2.97716e-16 6.40442e-22 2.15118e-06 6.29252e-05 0 2.78124e-35 0 6.3567e-35 0 1.5903e-34 0 2.86168e-34 0 4.45062e-34 0 6.35714e-34 0 8.58566e-34 0 1.11673e-33 0 1.40435e-33 0 1.7237e-33 0 2.07368e-33 0 2.4567e-33 0 2.87169e-33 0 3.31956e-33 0 3.79862e-33 0 4.30966e-33 0 4.85446e-33 0 5.4297e-33 0 6.03696e-33 0 6.67623e-33 0 7.3469e-33
0.203079 3.65452e-16 3.65451e-16 8.49325e-22 2.32404e-06 5.45352e-05 0 5.0774e-34 0 1.07718e-33 0 2.40187e-33 0 3.97258e-33 0 5.78979e-33 0 7.85349e-33 0 1.01666e-32 0 1.27496e-32 0 1.55635e-32 0 1.86239e-32 0 2.19229e-32 0 2.54772e-32 0 2.92791e-32 0 3.33352e-32 0 3.76336e-32 0 4.21799e-32 0 4.69867e-32 0 5.20304e-32 0 5.73221e-32 0 6.2862e-32 0 6.86459e-32
0.213503 4.02784e-16 4.02783e-16 1.03745e-21 2.57569e-06 4.82075e-05 0 7.62277e-33 0 1.56407e-32 0 3.28646e-32 0 5.16627e-32 0 7.20369e-32 0 9.39866e-32 0 1.17527e-31 0 1.42771e-31 0 1.69499e-31 0 1.97806e-31 0 2.27643e-31 0 2.59102e-31 0 2.92142e-31 0 3.26802e-31 0 3.6301e-31 0 4.00797e-31 0 4.40241e-31 0 4.81201e-31 0 5.23743e-31 0 5.67867e-31 0 6.13552e-31
0.224463 3.85765e-16 3.85764e-16 1.06313e-21 2.75591e-06 4.4359e-05 0 8.87663e-32 0 1.79569e-31 0 3.67276e-31 0 5.63075e-31 0 7.66964e-31 0 9.78935e-31 0 1.19904e-30 0 1.42781e-30 0 1.66418e-30 0 1.90868e-30 0 2.16105e-30 0 2.42169e-30 0 2.69042e-30 0 2.96745e-30 0 3.25238e-30 0 3.54538e-30 0 3.84683e-30 0 4.15605e-30 0 4.47336e-30 0 4.79876e-30 0 5.13213e-30
0.235984 3.37257e-16 3.37256e-16 9.56764e-22 2.8369e-06 4.24696e-05 0 8.36879e-31 0 1.68271e-30 0 3.40109e-30 0 5.15487e-30 0 6.94396e-30 0 8.76829e-30 0 1.06279e-29 0 1.25252e-29 0 1.44553e-29 0 1.6421e-29 0 1.8421e-29 0 2.04568e-29 0 2.25277e-29 0 2.46349e-29 0 2.67762e-29 0 2.89524e-29 0 3.11652e-29 0 3.34117e-29 0 3.56933e-29 0 3.801e-29 0 4.0361e-29
0.248097 2.82577e-16 2.82577e-16 8.02608e-22 2.84031e-06 4.17698e-05 0 6.71509e-30 0 1.34659e-29 0 2.70734e-29 0 4.08209e-29 0 5.47074e-29 0 6.87325e-29 0 8.2895e-29 0 9.72066e-29 0 1.11643e-28 0 1.26221e-28 0 1.40934e-28 0 1.55786e-28 0 1.70775e-28 0 1.85907e-28 0 2.01171e-28 0 2.1657e-28 0 2.32111e-28 0 2.47784e-28 0 2.63593e-28 0 2.79539e-28 0 2.95617e-28
0.260832 2.33387e-16 2.33387e-16 6.50996e-22 2.78934e-06 4.14836e-05 0 4.73552e-29 0 9.48455e-29 0 1.90223e-28 0 2.86121e-28 0 3.82534e-28 0 4.79458e-28 0 5.76883e-28 0 6.74867e-28 0 7.73289e-28 0 8.72239e-28 0 9.71683e-28 0 1.07163e-27 0 1.17208e-27 0 1.27307e-27 0 1.37452e-27 0 1.47646e-27 0 1.57892e-27 0 1.68185e-27 0 1.78528e-27 0 1.8892e-27 0 1.9936e-27
0.274221 1.91948e-16 1.91948e-16 5.22025e-22 2.71961e-06 4.11112e-05 0 2.97939e-28 0 5.96375e-28 0 1.19469e-27 0 1.79487e-27 0 2.3969e-27 0 3.00073e-27 0 3.60631e-27 0 4.21392e-27 0 4.82297e-27 0 5.43392e-27 0 6.0466e-27 0 6.66104e-27 0 7.27722e-27 0 7.89532e-27 0 8.51498e-27 0 9.13633e-27 0 9.7595e-27 0 1.03843e-26 0 1.10108e-26 0 1.1639e-26 0 1.22688e-26
0.288297 1.57469e-16 1.57469e-16 4.15866e-22 2.64093e-06 4.03882e-05 0 1.68372e-27 0 3.36924e-27 0 6.74545e-27 0 1.01282e-26 0 1.35174e-26 0 1.69129e-26 0 2.03142e-26 0 2.37229e-26 0 2.7136e-26 0 3.05558e-26 0 3.39814e-26 0 3.7413e-26 0 4.08505e-26 0 4.42947e-26 0 4.77438e-26 0 5.11987e-26 0 5.46597e-26 0 5.8126e-26 0 6.1598e-26 0 6.50758e-26 0 6.85587e-26
0.303095 1.28755e-16 1.28755e-16 3.30237e-22 2.56485e-06 3.9193e-05 0 8.58248e-27 0 1.71714e-26 0 3.43676e-26 0 5.15865e-26 0 6.88276e-26 0 8.60899e-26 0 1.03371e-25 0 1.20679e-25 0 1.38e-25 0 1.55344e-25 0 1.72707e-25 0 1.9009e-25 0 2.07492e-25 0 2.24917e-25 0 2.42358e-25 0 2.59817e-25 0 2.77297e-25 0 2.94794e-25 0 3.12309e-25 0 3.29843e-25 0 3.47393e-25
0.318653 1.04773e-16 1.04773e-16 2.61682e-22 2.4976e-06 3.75016e-05 0 3.95927e-26 0 7.92082e-26 0 1.58503e-25 0 2.37875e-25 0 3.17322e-25 0 3.9684e-25 0 4.76421e-25 0 5.56093e-25 0 6.358e-25 0 7.15586e-25 0 7.95435e-25 0 8.75348e-25 0 9.55324e-25 0 1.03538e-24 0 1.11548e-24 0 1.19564e-24 0 1.27586e-24 0 1.35614e-24 0 1.43648e-24 0 1.51688e-24 0 1.59732e-24
0.335009 8.48053e-17 8.48051e-17 2.06899e-22 2.43969e-06 3.53471e-05 0 1.65978e-25 0 3.32033e-25 0 6.6436e-25 0 9.96945e-25 0 1.32978e-24 0 1.66284e-24 0 1.9961e-24 0 2.32967e-24 0 2.66333e-24 0 2.99726e-24 0 3.33138e-24 0 3.66571e-24 0 4.00023e-24 0 4.33502e-24 0 4.66994e-24 0 5.00504e-24 0 5.34035e-24 0 5.67583e-24 0 6.01148e-24 0 6.34733e-24 0 6.68332e-24
0.352205 6.81501e-17 6.81499e-17 1.63328e-22 2.39659e-06 3.28569e-05 0 6.33896e-25 0 1.26804e-24 0 2.53705e-24 0 3.80688e-24 0 5.07748e-24 0 6.34882e-24 0 7.62075e-24 0 8.8937e-24 0 1.01669e-23 0 1.14409e-23 0 1.27155e-23 0 1.39908e-23 0 1.52667e-23 0 1.65433e-23 0 1.78204e-23 0 1.9098e-23 0 2.03763e-23 0 2.1655e-23 0 2.29343e-23 0 2.42142e-23 0 2.54945e-23
0.370284 5.43696e-17 5.43694e-17 1.28708e-22 2.36728e-06 3.01596e-05 0 2.21473e-24 0 4.43024e-24 0 8.86345e-24 0 1.32992e-23 0 1.77372e-23 0 2.21775e-23 0 2.66195e-23 0 3.10646e-23 0 3.55104e-23 0 3.99587e-23 0 4.44086e-23 0 4.88605e-23 0 5.33142e-23 0 5.77703e-23 0 6.22275e-23 0 6.66863e-23 0 7.1147e-23 0 7.56091e-23 0 8.00728e-23 0 8.45381e-23 0 8.90047e-23
0.389291 4.30421e-17 4.3042e-17 1.01231e-22 2.35191e-06 2.73919e-05 0 7.10387e-24 0 1.421e-23 0 2.84286e-23 0 4.26544e-23 0 5.68869e-23 0 7.11257e-23 0 8.53693e-23 0 9.9622e-23 0 1.13876e-22 0 1.28138e-22 0 1.42404e-22 0 1.56675e-22 0 1.70952e-22 0 1.85235e-22 0 1.99522e-22 0 2.13812e-22 0 2.28108e-22 0 2.42408e-22 0 2.56713e-22 0 2.71022e-22 0 2.85334e-22
0.409273 3.38425e-17 3.38424e-17 7.94198e-23 2.34675e-06 2.46633e-05 0 2.10172e-23 0 4.20405e-23 0 8.41046e-23 0 1.26188e-22 0 1.68289e-22 0 2.10407e-22 0 2.52538e-22 0 2.94694e-22 0 3.36854e-22 0 3.79032e-22 0 4.21222e-22 0 4.63428e-22 0 5.05646e-22 0 5.47882e-22 0 5.90127e-22 0 6.32383e-22 0 6.74653e-22 0 7.16933e-22 0 7.59225e-22 0 8.01528e-22 0 8.43841e-22
0.430281 2.7028e-17 2.7028e-17 6.18548e-23 2.28854e-06 2.1986e-05 0 5.88683e-23 0 1.17753e-22 0 2.35566e-22 0 3.5343e-22 0 4.7134e-22 0 5.89294e-22 0 7.07279e-22 0 8.25328e-22 0 9.43389e-22 0 1.0615e-21 0 1.17963e-21 0 1.29781e-21 0 1.41602e-21 0 1.53428e-21 0 1.65255e-21 0 1.77086e-21 0 1.8892e-21 0 2.00757e-21 0 2.12596e-21 0 2.24439e-21 0 2.36284e-21
0.452368 2.31665e-17 2.31664e-17 4.8736e-23 2.10373e-06 1.96097e-05 0 1.65507e-22 0 3.31056e-22 0 6.62274e-22 0 9.93622e-22 0 1.32509e-21 0 1.65667e-21 0 1.98834e-21 0 2.32017e-21 0 2.65203e-21 0 2.98402e-21 0 3.31608e-21 0 3.64824e-21 0 3.98049e-21 0 4.31285e-21 0 4.64527e-21 0 4.97776e-21 0 5.31035e-21 0 5.643e-21 0 5.97573e-21 0 6.30854e-21 0 6.64141e-21
0.475588 1.98097e-17 1.98096e-17 3.87709e-23 1.95717e-06 1.75657e-05 0 4.35588e-22 0 8.7128e-22 0 1.74296e-21 0 2.61496e-21 0 3.48726e-21 0 4.35984e-21 0 5.23262e-21 0 6.10581e-21 0 6.97908e-21 0 7.85264e-21 0 8.72638e-21 0 9.60038e-21 0 1.04746e-20 0 1.13491e-20 0 1.22237e-20 0 1.30985e-20 0 1.39736e-20 0 1.48487e-20 0 1.57241e-20 0 1.65997e-20 0 1.74754e-20
0.5 1.69028e-17 1.69028e-17 3.09663e-23 1.83202e-06 1.57577e-05 0 1.07671e-21 0 2.15366e-21 0 4.30826e-21 0 6.46359e-21 0 8.61963e-21 0 1.07763e-20 0 1.29334e-20 0 1.50915e-20 0 1.72498e-20 0 1.94088e-20 0 2.15682e-20 0 2.37281e-20 0 2.58886e-20 0 2.80497e-20 0 3.02111e-20 0 3.23729e-20 0 3.45353e-20 0 3.6698e-20 0 3.88612e-20 0 4.10248e-20 0 4.31887e-20
0.525665 1.44152e-17 1.44152e-17 2.48082e-23 1.72097e-06 1.41499e-05 0 2.51118e-21 0 5.0229e-21 0 1.00479e-20 0 1.50744e-20 0 2.01026e-20 0 2.51321e-20 0 3.01627e-20 0 3.51953e-20 0 4.02284e-20 0 4.52629e-20 0 5.02984e-20 0 5.53351e-20 0 6.03729e-20 0 6.54121e-20 0 7.0452e-20 0 7.54929e-20 0 8.05349e-20 0 8.55777e-20 0 9.06214e-20 0 9.5666e-20 0 1.00712e-19
0.552648 1.22954e-17 1.22954e-17 1.99194e-23 1.62007e-06 1.27153e-05 0 5.54507e-21 0 1.10913e-20 0 2.21868e-20 0 3.32858e-20 0 4.4388e-20 0 5.54931e-20 0 6.66003e-20 0 7.77119e-20 0 8.88245e-20 0 9.994e-20 0 1.11057e-19 0 1.22177e-19 0 1.333e-19 0 1.44425e-19 0 1.55552e-19 0 1.6668e-19 0 1.77811e-19 0 1.88944e-19 0 2.00079e-19 0 2.11215e-19 0 2.22354e-19
0.581015 1.04768e-17 1.04768e-17 1.60207e-23 1.52915e-06 1.14318e-05 0 1.16104e-20 0 2.32231e-20 0 4.64548e-20 0 6.96932e-20 0 9.2938e-20 0 1.16189e-19 0 1.39443e-19 0 1.62707e-19 0 1.85972e-19 0 2.09243e-19 0 2.32518e-19 0 2.55798e-19 0 2.79083e-19 0 3.02373e-19 0 3.25666e-19 0 3.48963e-19 0 3.72265e-19 0 3.9557e-19 0 4.18879e-19 0 4.42192e-19 0 4.65508e-19
0.610839 8.92619e-18 8.92618e-18 1.29046e-23 1.4457e-06 1.0283e-05 0 2.31304e-20 0 4.62649e-20 0 9.25461e-20 0 1.3884e-19 0 1.85146e-19 0 2.31463e-19 0 2.77787e-19 0 3.24128e-19 0 3.70473e-19 0 4.16829e-19 0 4.63191e-19 0 5.09564e-19 0 5.55945e-19 0 6.02336e-19 0 6.48733e-19 0 6.95138e-19 0 7.41551e-19 0 7.87971e-19 0 8.34397e-19 0 8.80831e-19 0 9.27272e-19
0.642193 7.59962e-18 7.59961e-18 1.04081e-23 1.36955e-06 9.25319e-06 0 4.39225e-20 0 8.78524e-20 0 1.75734e-19 0 2.63639e-19 0 3.51565e-19 0 4.39511e-19 0 5.27471e-19 0 6.1546e-19 0 7.03457e-19 0 7.91473e-19 0 8.795e-19 0 9.67547e-19 0 1.05561e-18 0 1.14369e-18 0 1.23178e-18 0 1.31988e-18 0 1.408e-18 0 1.49613e-18 0 1.58428e-18 0 1.67243e-18 0 1.7606e-18
0.675157 6.46618e-18 6.46618e-18 8.40379e-24 1.29965e-06 8.32985e-06 0 7.96886e-20 0 1.5939e-19 0 3.18831e-19 0 4.78311e-19 0 6.37828e-19 0 7.97379e-19 0 9.56954e-19 0 1.11658e-18 0 1.27622e-18 0 1.43589e-18 0 1.59558e-18 0 1.75531e-18 0 1.91506e-18 0 2.07484e-18 0 2.23464e-18 0 2.39446e-18 0 2.55431e-18 0 2.71418e-18 0 2.87407e-18 0 3.03398e-18 0 3.19392e-18
0.709813 5.50063e-18 5.50062e-18 6.79269e-24 1.23489e-06 7.50126e-06 0 1.38493e-19 0 2.77007e-19 0 5.54099e-19 0 8.31255e-19 0 1.10847e-18 0 1.38575e-18 0 1.66306e-18 0 1.94045e-18 0 2.21787e-18 0 2.49535e-18 0 2.77285e-18 0 3.05041e-18 0 3.32801e-18 0 3.60566e-18 0 3.88335e-18 0 4.16107e-18 0 4.43883e-18 0 4.71663e-18 0 4.99446e-18 0 5.27233e-18 0 5.55024e-18
0.746248 4.67521e-18 4.67521e-18 5.49522e-24 1.17539e-06 6.75727e-06 0 2.30883e-19 0 4.61801e-19 0 9.23735e-19 0 1.38577e-18 0 1.8479e-18 0 2.31013e-18 0 2.77241e-18 0 3.23483e-18 0 3.69728e-18 0 4.15982e-18 0 4.62241e-18 0 5.08508e-18 0 5.54783e-18 0 6.01064e-18 0 6.47352e-18 0 6.93645e-18 0 7.39945e-18 0 7.8625e-18 0 8.32561e-18 0 8.78878e-18 0 9.252e-18
0.784553 3.9722e-18 3.97219e-18 4.44933e-24 1.12012e-06 6.08895e-06 0 3.70136e-19 0 7.40322e-19 0 1.48085e-18 0 2.22153e-18 0 2.96236e-18 0 3.70333e-18 0 4.44439e-18 0 5.18565e-18 0 5.92697e-18 0 6.66841e-18 0 7.40993e-18 0 8.15159e-18 0 8.89335e-18 0 9.63522e-18 0 1.03772e-17 0 1.11192e-17 0 1.18614e-17 0 1.26036e-17 0 1.33459e-17 0 1.40883e-17 0 1.48308e-17
0.824824 3.37215e-18 3.37214e-18 3.60524e-24 1.06912e-06 5.4882e-06 0 5.71408e-19 0 1.14289e-18 0 2.28608e-18 0 3.42951e-18 0 4.57314e-18 0 5.71698e-18 0 6.86096e-18 0 8.00523e-18 0 9.14959e-18 0 1.02941e-17 0 1.14388e-17 0 1.25836e-17 0 1.37286e-17 0 1.48738e-17 0 1.60191e-17 0 1.71645e-17 0 1.83101e-17 0 1.94558e-17 0 2.06016e-17 0 2.17476e-17 0 2.28936e-17
0.867162 2.86261e-18 2.86261e-18 2.92345e-24 1.02125e-06 4.94811e-06 0 8.51646e-19 0 1.7034e-18 0 3.40722e-18 0 5.11137e-18 0 6.81583e-18 0 8.52057e-18 0 1.02255e-17 0 1.19309e-17 0 1.36363e-17 0 1.53421e-17 0 1.7048e-17 0 1.87541e-17 0 2.04605e-17 0 2.21672e-17 0 2.3874e-17 0 2.55809e-17 0 2.72882e-17 0 2.89955e-17 0 3.07031e-17 0 3.24108e-17 0 3.41187e-17
0.911674 2.4287e-18 2.4287e-18 2.37212e-24 9.76703e-07 4.46222e-06 0 1.2269e-18 0 2.45394e-18 0 4.90846e-18 0 7.36343e-18 0 9.81882e-18 0 1.22746e-17 0 1.47306e-17 0 1.71873e-17 0 1.96441e-17 0 2.21012e-17 0 2.45586e-17 0 2.70163e-17 0 2.94744e-17 0 3.19327e-17 0 3.43913e-17 0 3.68502e-17 0 3.93094e-17 0 4.17687e-17 0 4.42284e-17 0 4.66883e-17 0 4.91484e-17
0.95847 2.05796e-18 2.05796e-18 1.9258e-24 9.35783e-07 4.02488e-06 0 1.70997e-18 0 3.42014e-18 0 6.84106e-18 0 1.02626e-17 0 1.36846e-17 0 1.71072e-17 0 2.05302e-17 0 2.39539e-17 0 2.73778e-17 0 3.08022e-17 0 3.42269e-17 0 3.76521e-17 0 4.10777e-17 0 4.45037e-17 0 4.79301e-17 0 5.13568e-17 0 5.47839e-17 0 5.82112e-17 0 6.16389e-17 0 6.5067e-17 0 6.84954e-17
1.00767 1.74591e-18 1.7459e-18 1.56482e-24 8.96278e-07 3.63157e-06 0 2.31498e-18 0 4.63021e-18 0 9.26143e-18 0 1.38934e-17 0 1.85261e-17 0 2.31595e-17 0 2.77933e-17 0 3.24281e-17 0 3.70633e-17 0 4.1699e-17 0 4.63351e-17 0 5.09718e-17 0 5.56091e-17 0 6.02469e-17 0 6.48851e-17 0 6.95238e-17 0 7.41629e-17 0 7.88025e-17 0 8.34425e-17 0 8.80829e-17 0 9.27238e-17
1.05939 1.47947e-18 1.47947e-18 1.27234e-24 8.59995e-07 3.27743e-06 0 3.04158e-18 0 6.08348e-18 0 1.21682e-17 0 1.82539e-17 0 2.43405e-17 0 3.0428e-17 0 3.6516e-17 0 4.26052e-17 0 4.86949e-17 0 5.47853e-17 0 6.08761e-17 0 6.69678e-17 0 7.30601e-17 0 7.91531e-17 0 8.52466e-17 0 9.13407e-17 0 9.74354e-17 0 1.03531e-16 0 1.09626e-16 0 1.15723e-16 0 1.21819e-16
