# 8.14556e-05 2 74 : grain size, compostion index, size index
# Heating and cooling timescale: 0.000687851 3.90139e+08
# Ratio of heating to cooling to determine stochastic cutoff: 100
# Equilibrium emission is recorded even for those grains in the stochastic regime.
# Emission spectrum was computed for: 
# Type: ISRF
# Scales: 0.25 0.5 1 1.5 2 2.5 3 3.5 4 4.5 5 5.5 6 6.5 7 7.5 8 8.5 9 9.5 10
# StochasticallyHeated: 0 0 0 0 0 0 0 0 0 0 0 0 0 0 0 0 0 0 0 0 0
# Temperature: -1
# Wavelength  CExt  CAbs  CSca  Albedo G EqEm1 StEm1 EqEm2 StEm2 EqEm3 StEm3 EqEm4 StEm4 EqEm5 StEm5 EqEm6 StEm6 EqEm7 StEm7 EqEm8 StEm8 EqEm9 StEm9 EqEm10 StEm10 EqEm11 StEm11 EqEm12 StEm12 EqEm13 StEm13 EqEm14 StEm14 EqEm15 StEm15 EqEm16 StEm16 EqEm17 StEm17 EqEm18 StEm18 EqEm19 StEm19 EqEm20 StEm20 EqEm21 StEm21
0.05 4.30243e-08 1.81974e-08 2.48269e-08 0.577044 0.932219 0 0 0 0 0 0 0 0 0 0 0 0 0 0 0 0 0 0 0 0 0 0 0 0 0 0 0 0 0 0 0 0 0 0 0 0 0 0 0 0 0 0
0.0525665 4.31024e-08 1.80787e-08 2.50237e-08 0.580564 0.926562 0 0 0 0 0 0 0 0 0 0 0 0 0 0 0 0 0 0 0 0 0 0 0 0 0 0 0 0 0 0 0 0 0 0 0 0 0 0 0 0 0 0
0.0552647 4.31904e-08 1.78527e-08 2.53378e-08 0.586652 0.917961 0 0 0 0 0 0 0 0 0 0 0 0 0 0 0 0 0 0 0 0 0 0 0 0 0 0 0 0 0 0 0 0 0 0 0 0 0 0 0 0 0 0
0.0581015 4.33062e-08 1.75016e-08 2.58047e-08 0.595865 0.904649 0 0 0 0 0 0 0 0 0 0 0 0 0 0 0 0 0 0 0 0 0 0 0 0 0 0 0 0 0 0 0 0 0 0 0 0 0 0 0 0 0 0
0.0610839 4.34521e-08 1.71728e-08 2.62794e-08 0.604789 0.889752 0 0 0 0 0 0 0 0 0 0 0 0 0 0 0 0 0 0 0 0 0 0 0 0 0 0 0 0 0 0 0 0 0 0 0 0 0 0 0 0 0 0
0.0642193 4.361e-08 1.69849e-08 2.66251e-08 0.610527 0.877643 0 0 0 0 0 0 0 0 0 0 0 0 0 0 0 0 0 0 0 0 0 0 0 0 0 0 0 0 0 0 0 0 0 0 0 0 0 0 0 0 0 0
0.0675157 4.37709e-08 1.69312e-08 2.68397e-08 0.613187 0.869096 0 0 0 0 0 0 0 0 0 0 0 0 0 0 0 0 0 0 0 0 0 0 0 0 0 0 0 0 0 0 0 0 0 0 0 0 0 0 0 0 0 0
0.0709813 4.39312e-08 1.69852e-08 2.6946e-08 0.613368 0.863692 0 0 0 0 0 0 0 0 0 0 0 0 0 0 0 0 0 0 0 0 0 0 0 0 0 0 0 0 0 0 0 0 0 0 0 0 0 0 0 0 0 0
0.0746248 4.40872e-08 1.71272e-08 2.696e-08 0.611515 0.861022 0 0 0 0 0 0 0 0 0 0 0 0 0 0 0 0 0 0 0 0 0 0 0 0 0 0 0 0 0 0 0 0 0 0 0 0 0 0 0 0 0 0
0.0784553 4.42291e-08 1.73625e-08 2.68667e-08 0.607443 0.861545 0 0 0 0 0 0 0 0 0 0 0 0 0 0 0 0 0 0 0 0 0 0 0 0 0 0 0 0 0 0 0 0 0 0 0 0 0 0 0 0 0 0
0.0824824 4.43419e-08 1.77215e-08 2.66203e-08 0.600343 0.866705 0 0 0 0 0 0 0 0 0 0 0 0 0 0 0 0 0 0 0 0 0 0 0 0 0 0 0 0 0 0 0 0 0 0 0 0 0 0 0 0 0 0
0.0867162 4.44247e-08 1.78921e-08 2.65326e-08 0.597249 0.869451 0 0 0 0 0 0 0 0 0 0 0 0 0 0 0 0 0 0 0 0 0 0 0 0 0 0 0 0 0 0 0 0 0 0 0 0 0 0 0 0 0 0
0.0911674 4.45683e-08 1.78339e-08 2.67345e-08 0.599853 0.863156 0 0 0 0 0 0 0 0 0 0 0 0 0 0 0 0 0 0 0 0 0 0 0 0 0 0 0 0 0 0 0 0 0 0 0 0 0 0 0 0 0 0
0.095847 4.47141e-08 1.79283e-08 2.67857e-08 0.599045 0.859859 0 0 0 0 0 0 0 0 0 0 0 0 0 0 0 0 0 0 0 0 0 0 0 0 0 0 0 0 0 0 0 0 0 0 0 0 0 0 0 0 0 0
0.100767 4.4833e-08 1.80804e-08 2.67525e-08 0.596716 0.859215 0 0 0 0 0 0 0 0 0 0 0 0 0 0 0 0 0 0 0 0 0 0 0 0 0 0 0 0 0 0 0 0 0 0 0 0 0 0 0 0 0 0
0.105939 4.49178e-08 1.83375e-08 2.65802e-08 0.591753 0.862695 0 0 0 0 0 0 0 0 0 0 0 0 0 0 0 0 0 0 0 0 0 0 0 0 0 0 0 0 0 0 0 0 0 0 0 0 0 0 0 0 0 0
0.111377 4.49922e-08 1.8587e-08 2.64052e-08 0.586883 0.867294 0 0 0 0 0 0 0 0 0 0 0 0 0 0 0 0 0 0 0 0 0 0 0 0 0 0 0 0 0 0 0 0 0 0 0 0 0 0 0 0 0 0
0.117094 4.50767e-08 1.87773e-08 2.62994e-08 0.583437 0.870089 0 0 0 0 0 0 0 0 0 0 0 0 0 0 0 0 0 0 0 0 0 0 0 0 0 0 0 0 0 0 0 0 0 0 0 0 0 0 0 0 0 0
0.123105 4.51677e-08 1.8933e-08 2.62347e-08 0.580828 0.871753 0 0 0 0 0 0 0 0 0 0 0 0 0 0 0 0 0 0 0 0 0 0 0 0 0 0 0 0 0 0 0 0 0 0 0 0 0 0 0 0 0 0
0.129424 4.52644e-08 1.90607e-08 2.62037e-08 0.578903 0.87242 0 0 0 0 0 0 0 0 0 0 0 0 0 0 0 0 0 0 0 0 0 0 0 0 0 0 0 0 0 0 0 0 0 0 0 0 0 0 0 0 0 0
0.136067 4.5366e-08 1.91566e-08 2.62094e-08 0.577733 0.8719 0 0 0 0 0 0 0 0 0 0 0 0 0 0 0 0 0 0 0 0 0 0 0 0 0 0 0 0 0 0 0 0 0 0 0 0 0 0 0 0 0 0
0.143051 4.54686e-08 1.91986e-08 2.627e-08 0.577762 0.869338 0 0 0 0 0 0 0 0 0 0 0 0 0 0 0 0 0 0 0 0 0 0 0 0 0 0 0 0 0 0 0 0 0 0 0 0 0 0 0 0 0 0
0.150394 4.55452e-08 1.93284e-08 2.62168e-08 0.575621 0.870099 0 0 0 0 0 0 0 0 0 0 0 0 0 0 0 0 0 0 0 0 0 0 0 0 0 0 0 0 0 0 0 0 0 0 0 0 0 0 0 0 0 0
0.158114 4.5626e-08 1.95904e-08 2.60356e-08 0.570631 0.875885 0 0 0 0 0 0 0 0 0 0 0 0 0 0 0 0 0 0 0 0 0 0 0 0 0 0 0 0 0 0 0 0 0 0 0 0 0 0 0 0 0 0
0.16623 4.57334e-08 1.98962e-08 2.58372e-08 0.564952 0.883053 0 0 0 0 0 0 0 0 0 0 0 0 0 0 0 0 0 0 0 0 0 0 0 0 0 0 0 0 0 0 0 0 0 0 0 0 0 0 0 0 0 0
0.174762 4.5862e-08 2.0194e-08 2.5668e-08 0.55968 0.889548 0 0 0 0 0 0 0 0 0 0 0 0 0 0 0 0 0 0 0 0 0 0 0 0 0 0 0 0 0 0 0 0 0 0 0 0 0 0 0 0 0 0
0.183733 4.60041e-08 2.04793e-08 2.55248e-08 0.554838 0.895255 0 0 0 0 0 0 0 0 0 0 0 0 0 0 0 0 0 0 0 0 0 0 0 0 0 0 0 0 0 0 0 0 0 0 0 0 0 0 0 0 0 0
0.193164 4.62672e-08 2.07038e-08 2.55634e-08 0.552517 0.899716 0 0 0 0 0 0 0 0 0 0 0 0 0 0 0 0 0 0 0 0 0 0 0 0 0 0 0 0 0 0 0 0 0 0 0 0 0 0 0 0 0 0
0.203079 4.6334e-08 2.06568e-08 2.56772e-08 0.554177 0.898563 0 0 0 0 0 0 0 0 0 0 0 0 0 0 0 0 0 0 0 0 0 0 0 0 0 0 0 0 0 0 0 0 0 0 0 0 0 0 0 0 0 0
0.213503 4.60996e-08 2.018e-08 2.59197e-08 0.562253 0.890256 0 0 0 0 0 0 0 0 0 0 0 0 0 0 0 0 0 0 0 0 0 0 0 0 0 0 0 0 0 0 0 0 0 0 0 0 0 0 0 0 0 0
0.224463 4.73322e-08 1.9711e-08 2.76212e-08 0.58356 0.886707 0 0 0 0 0 0 0 0 0 0 0 0 0 0 0 0 0 0 0 0 0 0 0 0 0 0 0 0 0 0 0 0 0 0 0 0 0 0 0 0 0 0
0.235984 4.63467e-08 1.95218e-08 2.68249e-08 0.578788 0.880326 0 0 0 0 0 0 0 0 0 0 0 0 0 0 0 0 0 0 0 0 0 0 0 0 0 0 0 0 0 0 0 0 0 0 0 0 0 0 0 0 0 0
0.248097 4.65286e-08 1.96371e-08 2.68916e-08 0.577957 0.880413 0 0 0 0 0 0 0 0 0 0 0 0 0 0 0 0 0 0 0 0 0 0 0 0 0 0 0 0 0 0 0 0 0 0 0 0 0 0 0 0 0 0
0.260832 4.87237e-08 1.96445e-08 2.90791e-08 0.596817 0.886451 0 0 0 0 0 0 0 0 0 0 0 0 0 0 0 0 0 0 0 0 0 0 0 0 0 0 0 0 0 0 0 0 0 0 0 0 0 0 0 0 0 0
0.274221 4.66032e-08 1.95032e-08 2.71e-08 0.581506 0.874023 0 0 0 0 0 0 0 0 0 0 0 0 0 0 0 0 0 0 0 0 0 0 0 0 0 0 0 0 0 0 0 0 0 0 0 0 0 0 0 0 0 0
0.288297 4.61259e-08 1.94993e-08 2.66266e-08 0.577259 0.865617 0 0 0 0 0 0 0 0 0 0 0 0 0 0 0 0 0 0 0 0 0 0 0 0 0 0 0 0 0 0 0 0 0 0 0 0 0 0 0 0 0 0
0.303095 4.8747e-08 1.93919e-08 2.93552e-08 0.602194 0.874686 0 0 0 0 0 0 0 0 0 0 0 0 0 0 0 0 0 0 0 0 0 0 0 0 0 0 0 0 0 0 0 0 0 0 0 0 0 0 0 0 0 0
0.318653 5.00369e-08 1.91942e-08 3.08427e-08 0.616399 0.87757 0 0 0 0 0 0 0 0 0 0 0 0 0 0 0 0 0 0 0 0 0 0 0 0 0 0 0 0 0 0 0 0 0 0 0 0 0 0 0 0 0 0
0.335009 4.82072e-08 1.91558e-08 2.90515e-08 0.602637 0.865255 0 0 0 0 0 0 0 0 0 0 0 0 0 0 0 0 0 0 0 0 0 0 0 0 0 0 0 0 0 0 0 0 0 0 0 0 0 0 0 0 0 0
0.352205 4.60515e-08 1.91098e-08 2.69418e-08 0.585036 0.847555 0 0 0 0 0 0 0 0 0 0 0 0 0 0 0 0 0 0 0 0 0 0 0 0 0 0 0 0 0 0 0 0 0 0 0 0 0 0 0 0 0 0
0.370284 4.6977e-08 1.89838e-08 2.79931e-08 0.595891 0.841247 0 0 0 0 0 0 0 0 0 0 0 0 0 0 0 0 0 0 0 0 0 0 0 0 0 0 0 0 0 0 0 0 0 0 0 0 0 0 0 0 0 0
0.389291 5.03555e-08 1.87733e-08 3.15822e-08 0.627184 0.846277 0 0 0 0 0 0 0 0 0 0 0 0 0 0 0 0 0 0 0 0 0 0 0 0 0 0 0 0 0 0 0 0 0 0 0 0 0 0 0 0 0 0
0.409273 5.29312e-08 1.84671e-08 3.44641e-08 0.651112 0.851553 0 0 0 0 0 0 0 0 0 0 0 0 0 0 0 0 0 0 0 0 0 0 0 0 0 0 0 0 0 0 0 0 0 0 0 0 0 0 0 0 0 0
0.430281 5.25754e-08 1.80419e-08 3.45335e-08 0.656837 0.842979 0 0 0 0 0 0 0 0 0 0 0 0 0 0 0 0 0 0 0 0 0 0 0 0 0 0 0 0 0 0 0 0 0 0 0 0 0 0 0 0 0 0
0.452368 4.96175e-08 1.76685e-08 3.1949e-08 0.643906 0.816624 0 0 0 0 0 0 0 0 0 0 0 0 0 0 0 0 0 0 0 0 0 0 0 0 0 0 0 0 0 0 0 0 0 0 0 0 0 0 0 0 0 0
0.475588 4.64946e-08 1.77511e-08 2.87435e-08 0.618211 0.794543 0 0 0 0 0 0 0 0 0 0 0 0 0 0 0 0 0 0 0 0 0 0 0 0 0 0 0 0 0 0 0 0 0 0 0 0 0 0 0 0 0 0
0.5 4.5551e-08 1.76499e-08 2.79011e-08 0.612525 0.779132 0 0 0 0 0 0 0 0 0 0 0 0 0 0 0 0 0 0 0 0 0 0 0 0 0 0 0 0 0 0 0 0 0 0 0 0 0 0 0 0 0 0
0.525665 4.66786e-08 1.73522e-08 2.93264e-08 0.628263 0.784039 0 0 0 0 0 0 0 0 0 0 0 0 0 0 0 0 0 0 0 0 0 0 0 0 0 0 0 0 0 0 0 0 0 0 0 0 0 0 0 0 0 0
0.552648 4.92402e-08 1.71458e-08 3.20945e-08 0.651793 0.801862 0 0 0 0 0 0 0 0 0 0 0 0 0 0 0 0 0 0 0 0 0 0 0 0 0 0 0 0 0 0 0 0 0 0 0 0 0 0 0 0 0 0
0.581015 5.3366e-08 1.68658e-08 3.65002e-08 0.683959 0.826208 0 0 0 0 0 0 0 0 0 0 0 0 0 0 0 0 0 0 0 0 0 0 0 0 0 0 0 0 0 0 0 0 0 0 0 0 0 0 0 0 0 0
0.610839 5.82957e-08 1.71915e-08 4.11042e-08 0.705099 0.828803 0 0 0 0 0 0 0 0 0 0 0 0 0 0 0 0 0 0 0 0 0 0 0 0 0 0 0 0 0 0 0 0 0 0 0 0 0 0 0 0 0 0
0.642193 5.92104e-08 1.71822e-08 4.20282e-08 0.709811 0.840859 0 0 0 0 0 0 0 0 0 0 0 0 0 0 0 0 0 0 0 0 0 0 0 0 0 0 0 0 0 0 0 0 0 0 0 0 0 0 0 0 0 0
0.675157 5.96887e-08 1.66051e-08 4.30836e-08 0.721804 0.815127 0 0 0 0 0 0 0 0 0 0 0 0 0 0 0 0 0 0 0 0 0 0 0 0 0 0 0 0 0 0 0 0 0 0 0 0 0 0 0 0 0 0
0.709813 5.66133e-08 1.68129e-08 3.98004e-08 0.703023 0.808551 0 0 0 0 0 0 0 0 0 0 0 0 0 0 0 0 0 0 0 0 0 0 0 0 0 0 0 0 0 0 0 0 0 0 0 0 0 0 0 0 0 0
0.746248 5.36231e-08 1.62618e-08 3.73612e-08 0.696738 0.752508 0 0 0 0 0 0 0 0 0 0 0 0 0 0 0 0 0 0 0 0 0 0 0 0 0 0 0 0 0 0 0 0 0 0 0 0 0 0 0 0 0 0
0.784553 4.87202e-08 1.64953e-08 3.22249e-08 0.661427 0.703111 0 0 0 0 0 0 0 0 0 0 0 0 0 0 0 0 0 0 0 0 0 0 0 0 0 0 0 0 0 0 0 0 0 0 0 0 0 0 0 0 0 0
0.824824 4.70161e-08 1.6032e-08 3.09841e-08 0.65901 0.638722 0 0 0 0 0 0 0 0 0 0 0 0 0 0 0 0 0 0 0 0 0 0 0 0 0 0 0 0 0 0 0 0 0 0 0 0 0 0 0 0 0 0
0.867162 4.3254e-08 1.67356e-08 2.65183e-08 0.613084 0.539211 0 0 0 0 0 0 0 0 0 0 0 0 0 0 0 0 0 0 0 0 0 0 0 0 0 0 0 0 0 0 0 0 0 0 0 0 0 0 0 0 0 0
0.911674 4.34237e-08 1.48619e-08 2.85617e-08 0.657746 0.523732 0 0 0 0 0 0 0 0 0 0 0 0 0 0 0 0 0 0 0 0 0 0 0 0 0 0 0 0 0 0 0 0 0 0 0 0 0 0 0 0 0 0
0.95847 4.47179e-08 1.60843e-08 2.86336e-08 0.640316 0.499061 0 0 0 0 0 0 0 0 0 0 0 0 0 0 0 0 0 0 0 0 0 0 0 0 0 0 0 0 0 0 0 0 0 0 0 0 0 0 0 0 0 0
1.00767 4.39685e-08 1.43526e-08 2.96158e-08 0.67357 0.472818 0 0 0 0 0 0 0 0 0 0 0 0 0 0 0 0 0 0 0 0 0 0 0 0 0 0 0 0 0 0 0 0 0 0 0 0 0 0 0 0 0 0
1.05939 5.14594e-08 1.36306e-08 3.78288e-08 0.735119 0.535999 0 0 0 0 0 0 0 0 0 0 0 0 0 0 0 0 0 0 0 0 0 0 0 0 0 0 0 0 0 0 0 0 0 0 0 0 0 0 0 0 0 0
1.11377 5.825e-08 1.54014e-08 4.28486e-08 0.735598 0.553813 0 0 0 0 0 0 0 0 0 0 0 0 0 0 0 0 0 0 0 0 0 0 0 0 0 0 0 0 0 0 0 0 0 0 0 0 0 0 0 0 0 0
1.17094 5.78099e-08 1.32339e-08 4.4576e-08 0.771079 0.577257 0 0 0 0 0 0 0 0 0 0 0 0 0 0 0 0 0 0 0 0 0 0 0 0 0 0 0 0 0 0 0 0 0 0 0 0 0 0 0 0 0 0
1.23105 6.64758e-08 1.20657e-08 5.44101e-08 0.818494 0.633669 0 0 0 0 0 0 0 0 0 0 0 0 0 0 0 0 0 0 0 0 0 0 0 0 0 0 0 0 0 0 0 0 0 0 0 0 0 0 0 0 0 0
1.29424 7.66153e-08 1.32657e-08 6.33496e-08 0.826853 0.644483 0 0 0 0 0 0 0 0 0 0 0 0 0 0 0 0 0 0 0 0 0 0 0 0 0 0 0 0 0 0 0 0 0 0 0 0 0 0 0 0 0 0
1.36067 7.72605e-08 1.30937e-08 6.41668e-08 0.830526 0.632186 0 0 0 0 0 0 0 0 0 0 0 0 0 0 0 0 0 0 0 0 0 0 0 0 0 0 0 0 0 0 0 0 0 0 0 0 0 0 0 0 0 0
1.43051 7.68499e-08 1.094e-08 6.59098e-08 0.857644 0.66852 0 0 0 0 0 0 0 0 0 0 0 0 0 0 0 0 0 0 0 0 0 0 0 0 0 0 0 0 0 0 0 0 0 0 0 0 0 0 0 0 0 0
1.50394 8.44141e-08 1.0677e-08 7.37371e-08 0.873517 0.699251 0 0 0 0 0 0 0 0 0 0 0 0 0 0 0 0 0 0 0 0 0 0 0 0 0 0 0 0 0 0 0 0 0 0 0 0 0 0 0 0 0 0
1.58114 9.14447e-08 1.15056e-08 7.9939e-08 0.874179 0.699663 0 0 0 0 0 0 0 0 0 0 0 0 0 0 0 0 0 0 0 0 0 0 0 0 0 0 0 0 0 0 0 0 0 0 0 0 0 0 0 0 0 0
1.6623 8.92276e-08 1.13111e-08 7.79165e-08 0.873233 0.675632 0 0 0 0 0 0 0 0 0 0 0 0 0 0 0 0 0 0 0 0 0 0 0 0 0 0 0 0 0 0 0 0 0 0 0 0 0 0 0 0 0 0
1.74763 8.26078e-08 9.57641e-09 7.30313e-08 0.884074 0.660767 0 0 0 0 0 0 0 0 0 0 0 0 0 0 0 0 0 0 0 0 0 0 0 0 0 0 0 0 0 0 0 0 0 0 0 0 0 0 0 0 0 0
1.83733 8.19352e-08 8.71669e-09 7.32185e-08 0.893615 0.672732 0 0 0 0 0 0 0 0 0 0 0 0 0 0 0 0 0 0 0 0 0 0 0 0 0 0 0 0 0 0 0 0 0 0 0 0 0 0 0 0 0 0
1.93164 8.46509e-08 8.86312e-09 7.57878e-08 0.895298 0.691268 0 0 0 0 0 0 0 0 0 0 0 0 0 0 0 0 0 0 0 0 0 0 0 0 0 0 0 0 0 0 0 0 0 0 0 0 0 0 0 0 0 0
2.03079 8.57874e-08 9.36373e-09 7.64237e-08 0.89085 0.700083 0 0 0 0 0 0 0 0 0 0 0 0 0 0 0 0 0 0 0 0 0 0 0 0 0 0 0 0 0 0 0 0 0 0 0 0 0 0 0 0 0 0
2.13503 8.09174e-08 9.26972e-09 7.16477e-08 0.885442 0.688837 0 0 0 0 0 0 0 0 0 0 0 0 0 0 0 0 0 0 0 0 0 0 0 0 0 0 0 0 0 0 0 0 0 0 0 0 0 0 0 0 0 0
2.24463 7.2072e-08 8.27168e-09 6.38003e-08 0.88523 0.656474 0 0 0 0 0 0 0 0 0 0 0 0 0 0 0 0 0 0 0 0 0 0 0 0 0 0 0 0 0 0 0 0 0 0 0 0 0 0 0 0 0 0
2.35984 6.48475e-08 7.17236e-09 5.76752e-08 0.889396 0.618117 0 0 0 0 0 0 0 0 0 0 0 0 0 0 0 0 0 0 0 0 0 0 0 0 0 0 0 0 0 0 0 0 0 0 0 0 0 0 0 0 0 0
2.48097 6.07233e-08 6.5259e-09 5.41974e-08 0.892531 0.589662 0 0 0 0 0 0 0 0 0 0 0 0 0 0 0 0 0 0 0 0 0 0 0 0 0 0 0 0 0 0 0 0 0 0 0 0 0 0 0 0 0 0
2.60832 5.85097e-08 6.35863e-09 5.21511e-08 0.891323 0.577015 0 0 0 0 0 0 0 0 0 0 0 0 0 0 0 0 0 0 0 0 0 0 0 0 0 0 0 0 0 0 0 0 0 0 0 0 0 0 0 0 0 0
2.74221 5.64827e-08 6.47643e-09 5.00063e-08 0.885338 0.578884 0 0 0 0 0 0 0 0 0 0 0 0 0 0 0 0 0 0 0 0 0 0 0 0 0 0 0 0 0 0 0 0 0 0 0 0 0 0 0 0 0 0
2.88297 5.30769e-08 6.62569e-09 4.64512e-08 0.875168 0.589978 0 0 0 0 0 0 0 0 0 0 0 0 0 0 0 0 0 0 0 0 0 0 0 0 0 0 0 0 0 0 0 0 0 0 0 0 0 0 0 0 0 0
3.03095 4.76887e-08 6.54874e-09 4.11399e-08 0.862677 0.599853 0 0 0 0 0 0 0 0 0 0 0 0 0 0 0 0 0 0 0 0 0 0 0 0 0 0 0 0 0 0 0 0 0 0 0 0 0 0 0 0 0 0
3.18653 4.11314e-08 6.17544e-09 3.4956e-08 0.849861 0.596356 0 0 0 0 0 0 0 0 0 0 0 0 0 0 0 0 0 0 0 0 0 0 0 0 0 0 0 0 0 0 0 0 0 0 0 0 0 0 0 0 0 0
3.35009 3.47608e-08 5.61373e-09 2.91471e-08 0.838504 0.5726 0 0 0 0 0 0 0 0 0 0 0 0 0 0 0 0 0 0 0 0 0 0 0 0 0 0 0 0 0 0 0 0 0 0 0 0 0 0 0 0 0 0
3.52205 2.93371e-08 5.00872e-09 2.43284e-08 0.82927 0.53052 0 0 0 0 0 0 0 0 0 0 0 0 0 0 0 0 0 0 0 0 0 0 0 0 0 0 0 0 0 0 0 0 0 0 0 0 0 0 0 0 0 0
3.70284 2.49775e-08 4.47645e-09 2.0501e-08 0.82078 0.478237 0 0 0 0 0 0 0 0 0 0 0 0 0 0 0 0 0 0 0 0 0 0 0 0 0 0 0 0 0 0 0 0 0 0 0 0 0 0 0 0 0 0
3.89291 2.14102e-08 4.03926e-09 1.73709e-08 0.811339 0.424194 0 0 0 0 0 0 0 0 0 0 0 0 0 0 0 0 0 0 0 0 0 0 0 0 0 0 0 0 0 0 0 0 0 0 0 0 0 0 0 0 0 0
4.09273 1.83922e-08 3.68608e-09 1.47062e-08 0.799585 0.373447 0 0 0 0 0 0 0 0 0 0 0 0 0 0 0 0 0 0 0 0 0 0 0 0 0 0 0 0 0 0 0 0 0 0 0 0 0 0 0 0 0 0
4.30281 1.57648e-08 3.38653e-09 1.23783e-08 0.785184 0.328203 0 0 0 0 0 0 0 0 0 0 0 0 0 0 0 0 0 0 0 0 0 0 0 0 0 0 0 0 0 0 0 0 0 0 0 0 0 0 0 0 0 0
4.52368 1.34619e-08 3.13675e-09 1.03252e-08 0.766991 0.288921 0 0 0 0 0 0 0 0 0 0 0 0 0 0 0 0 0 0 0 0 0 0 0 0 0 0 0 0 0 0 0 0 0 0 0 0 0 0 0 0 0 0
4.75588 1.14411e-08 2.92661e-09 8.51454e-09 0.744203 0.254995 0 0 0 0 0 0 0 0 0 0 0 0 0 0 0 0 0 0 0 0 0 0 0 0 0 0 0 0 0 0 0 0 0 0 0 0 0 0 0 0 0 0
5 9.67719e-09 2.75316e-09 6.92403e-09 0.7155 0.225627 0 0 0 0 0 0 0 0 0 0 0 0 0 0 0 0 0 0 0 0 0 0 0 0 0 0 0 0 0 0 0 0 0 0 0 0 0 0 0 0 0 0
5.25665 8.17115e-09 2.61754e-09 5.55361e-09 0.679661 0.20017 0 0 0 0 0 0 0 0 0 0 0 0 0 0 0 0 0 0 0 0 0 0 0 0 0 0 0 0 0 0 0 0 0 0 0 0 0 0 0 0 0 0
5.52648 6.91071e-09 2.5123e-09 4.39841e-09 0.636463 0.177985 0 0 0 0 0 0 0 0 0 0 0 0 0 0 0 0 0 0 0 0 0 0 0 0 0 0 0 0 0 0 0 0 0 0 0 0 0 0 0 0 0 0
5.81015 5.86685e-09 2.44387e-09 3.42298e-09 0.583444 0.158409 0 0 0 0 0 0 0 0 0 0 0 0 0 0 0 0 0 0 0 0 0 0 0 0 0 0 0 0 0 0 0 0 0 0 0 0 0 0 0 0 0 0
6.10839 5.01894e-09 2.39999e-09 2.61895e-09 0.521813 0.141075 0 0 0 0 0 0 0 0 0 0 0 0 0 0 0 0 0 0 0 0 0 0 0 0 0 0 0 0 0 0 0 0 0 0 0 0 0 0 0 0 0 0
6.42193 4.30878e-09 2.34818e-09 1.9606e-09 0.455023 0.125614 0 0 0 0 0 0 0 0 0 0 0 0 0 0 0 0 0 0 0 0 0 0 0 0 0 0 0 0 0 0 0 0 0 0 0 0 0 0 0 0 0 0
6.75157 3.67526e-09 2.26745e-09 1.40781e-09 0.38305 0.111564 0 0 0 0 0 0 0 0 0 0 0 0 0 0 0 0 0 0 0 0 0 0 0 0 0 0 0 0 0 0 0 0 0 0 1.4013e-45 0 1.4013e-45 0 5.60519e-45 0 1.26117e-44 0
7.09813 3.14116e-09 2.21009e-09 9.31072e-10 0.29641 0.0985657 0 0 0 0 0 0 0 0 0 0 0 0 0 0 0 0 0 0 0 0 0 0 0 0 0 0 1.4013e-45 0 4.2039e-45 0 1.26117e-44 0 3.92364e-44 0 1.10703e-43 0 2.9147e-43 0 7.30076e-43 0 1.69697e-42 0
7.46248 3.09436e-09 2.583e-09 5.11367e-10 0.165257 0.0862698 0 0 0 0 0 0 0 0 0 0 0 0 0 0 0 0 0 0 0 0 1.4013e-45 0 1.12104e-44 0 4.76441e-44 0 1.87774e-43 0 6.55808e-43 0 2.09214e-42 0 5.95131e-42 0 1.60939e-41 0 4.03252e-41 0 9.66069e-41 0 2.15712e-40 0
7.84553 4.93099e-09 4.68631e-09 2.44673e-10 0.0496195 0.0750903 0 0 0 0 0 0 0 0 0 0 0 0 0 0 1.4013e-45 0 1.12104e-44 0 9.10844e-44 0 5.36697e-43 0 2.7003e-42 0 1.10647e-41 0 4.10679e-41 0 1.34895e-40 0 4.06641e-40 0 1.09914e-39 0 2.83187e-39 0 6.78417e-39 0 1.55739e-38 0 3.34374e-38 0
8.24824 9.45299e-09 9.16684e-09 2.86156e-10 0.0302715 0.0657235 0 0 0 0 0 0 0 0 0 0 1.4013e-45 0 2.38221e-44 0 3.44719e-43 0 3.25942e-42 0 2.27417e-41 0 1.22352e-40 0 5.68411e-40 0 2.17421e-39 0 7.56893e-39 0 2.34591e-38 0 6.70088e-38 0 1.7254e-37 0 4.24463e-37 0 9.74405e-37 0 2.14793e-36 0 4.44276e-36 0
8.67162 1.40844e-08 1.35771e-08 5.07329e-10 0.0360206 0.057834 0 0 0 0 0 0 0 0 4.2039e-45 0 2.31214e-43 0 5.00684e-42 0 6.1929e-41 0 5.25385e-40 0 3.33441e-39 0 1.6524e-38 0 7.12195e-38 0 2.55147e-37 0 8.35746e-37 0 2.45113e-36 0 6.65167e-36 0 1.63544e-35 0 3.85032e-35 0 8.48741e-35 0 1.8001e-34 0 3.5935e-34 0
9.11674 2.06679e-08 1.9681e-08 9.86946e-10 0.0477525 0.0497857 0 0 0 0 0 0 7.00649e-45 0 1.03836e-42 0 4.184e-41 0 7.78881e-40 0 8.52139e-39 0 6.51263e-38 0 3.77672e-37 0 1.73091e-36 0 6.94671e-36 0 2.33837e-35 0 7.22834e-35 0 2.01147e-34 0 5.1989e-34 0 1.22332e-33 0 2.76214e-33 0 5.8582e-33 0 1.19768e-32 0 2.31157e-32 0
9.5847 2.50112e-08 2.35079e-08 1.50339e-09 0.0601084 0.0439395 0 0 0 0 1.4013e-45 0 1.26818e-42 0 1.44666e-40 0 4.86424e-39 0 7.85047e-38 0 7.64197e-37 0 5.28843e-36 0 2.81459e-35 0 1.19755e-34 0 4.4909e-34 0 1.42472e-33 0 4.16798e-33 0 1.10332e-32 0 2.72247e-32 0 6.14393e-32 0 1.33316e-31 0 2.72559e-31 0 5.38114e-31 0 1.00576e-30 0
10.0767 2.401e-08 2.24626e-08 1.54744e-09 0.0644498 0.0407321 0 0 0 0 1.73761e-43 0 1.39422e-40 0 1.2619e-38 0 3.57386e-37 0 5.03552e-36 0 4.38632e-35 0 2.76187e-34 0 1.3547e-33 0 5.37051e-33 0 1.88812e-32 0 5.66168e-32 0 1.57173e-31 0 3.96746e-31 0 9.36748e-31 0 2.03164e-30 0 4.24481e-30 0 8.38053e-30 0 1.60053e-29 0 2.9015e-29 0
10.5939 2.1436e-08 1.99526e-08 1.48339e-09 0.0692009 0.0390514 0 0 0 0 1.92146e-41 0 1.11634e-38 0 8.10876e-37 0 1.9506e-35 0 2.41535e-34 0 1.89295e-33 0 1.0895e-32 0 4.94477e-32 0 1.8328e-31 0 6.05995e-31 0 1.72227e-30 0 4.54867e-30 0 1.09745e-29 0 2.48472e-29 0 5.18903e-29 0 1.04586e-28 0 1.99739e-28 0 3.69603e-28 0 6.50851e-28 0
11.1377 1.74023e-08 1.61939e-08 1.20841e-09 0.06944 0.0394935 0 0 1.82169e-44 0 1.52096e-39 0 6.47609e-37 0 3.81595e-35 0 7.85924e-34 0 8.60672e-33 0 6.10014e-32 0 3.22343e-31 0 1.35882e-30 0 4.72446e-30 0 1.4735e-29 0 3.97954e-29 0 1.00236e-28 0 2.31658e-28 0 5.03981e-28 0 1.01533e-27 0 1.97758e-27 0 3.65936e-27 0 6.57094e-27 0 1.12558e-26 0
11.7094 1.4069e-08 1.3107e-08 9.61994e-10 0.0683768 0.0396347 0 0 1.96882e-42 0 9.48358e-38 0 3.00469e-35 0 1.45097e-33 0 2.57805e-32 0 2.51187e-31 0 1.61799e-30 0 7.88232e-30 0 3.09736e-29 0 1.01335e-28 0 2.98976e-28 0 7.69225e-28 0 1.85206e-27 0 4.10882e-27 0 8.60601e-27 0 1.6755e-26 0 3.15889e-26 0 5.67225e-26 0 9.89843e-26 0 1.65159e-25 0
12.3105 1.10006e-08 1.026e-08 7.40666e-10 0.0673294 0.0396115 1.4013e-45 0 1.60639e-40 0 4.56977e-36 0 1.093e-33 0 4.36783e-32 0 6.74353e-31 0 5.87924e-30 0 3.45781e-29 0 1.55921e-28 0 5.73092e-28 0 1.76953e-27 0 4.95216e-27 0 1.21667e-26 0 2.80637e-26 0 5.98839e-26 0 1.20981e-25 0 2.27999e-25 0 4.16752e-25 0 7.27255e-25 0 1.23507e-24 0 2.00989e-24 0
12.9424 8.47068e-09 7.92046e-09 5.50222e-10 0.064956 0.038164 1.79366e-43 0 1.0175e-38 0 1.75434e-34 0 3.21144e-32 0 1.07188e-30 0 1.44789e-29 0 1.13567e-28 0 6.12581e-28 0 2.56644e-27 0 8.85216e-27 0 2.58688e-26 0 6.88482e-26 0 1.61887e-25 0 3.58477e-25 0 7.37148e-25 0 1.43897e-24 0 2.62924e-24 0 4.66643e-24 0 7.9248e-24 0 1.31148e-23 0 2.0841e-23 0
13.6067 6.57926e-09 6.18866e-09 3.90604e-10 0.059369 0.0348365 1.56805e-41 0 5.19634e-37 0 5.56452e-33 0 7.89854e-31 0 2.22132e-29 0 2.64241e-28 0 1.87432e-27 0 9.31152e-27 0 3.63757e-26 0 1.18107e-25 0 3.2754e-25 0 8.31046e-25 0 1.87419e-24 0 3.99216e-24 0 7.92529e-24 0 1.49737e-23 0 2.6566e-23 0 4.58476e-23 0 7.58734e-23 0 1.22513e-22 0 1.90334e-22 0
