# 0.00031623 1 158 : grain size, compostion index, size index
# Heating and cooling timescale: 2.04033e-05 4.86195e+14
# Ratio of heating to cooling to determine stochastic cutoff: 100
# Equilibrium emission is recorded even for those grains in the stochastic regime.
# Emission spectrum was computed for: 
# Type: IRSF
# Scales: 0.25 0.5 1 1.5 2 2.5 3 3.5 4 4.5 5 5.5 6 6.5 7 7.5 8 8.5 9 9.5 10
# StochasticallyHeated: 0 0 0 0 0 0 0 0 0 0 0 0 0 0 0 0 0 0 0 0 0
# Temperature: -1
# Wavelength  CExt  CAbs  CSca  Albedo G EqEm1 StEm1 EqEm2 StEm2 EqEm3 StEm3 EqEm4 StEm4 EqEm5 StEm5 EqEm6 StEm6 EqEm7 StEm7 EqEm8 StEm8 EqEm9 StEm9 EqEm10 StEm10 EqEm11 StEm11 EqEm12 StEm12 EqEm13 StEm13 EqEm14 StEm14 EqEm15 StEm15 EqEm16 StEm16 EqEm17 StEm17 EqEm18 StEm18 EqEm19 StEm19 EqEm20 StEm20 EqEm21 StEm21
0.05 1.6113e-07 7.17025e-08 8.94275e-08 0.555002 0.214679 0 0 0 0 0 0 0 0 0 0 0 0 0 0 0 0 0 0 0 0 0 0 0 0 0 0 0 0 0 0 0 0 0 0 0 0 0 0 0 0 0 0
0.0525665 1.78096e-07 7.92524e-08 9.88437e-08 0.555002 0.237283 0 0 0 0 0 0 0 0 0 0 0 0 0 0 0 0 0 0 0 0 0 0 0 0 0 0 0 0 0 0 0 0 0 0 0 0 0 0 0 0 0 0
0.0552647 1.96849e-07 8.75973e-08 1.09252e-07 0.555002 0.262268 0 0 0 0 0 0 0 0 0 0 0 0 0 0 0 0 0 0 0 0 0 0 0 0 0 0 0 0 0 0 0 0 0 0 0 0 0 0 0 0 0 0
0.0581015 2.17576e-07 9.68209e-08 1.20755e-07 0.555002 0.289884 0 0 0 0 0 0 0 0 0 0 0 0 0 0 0 0 0 0 0 0 0 0 0 0 0 0 0 0 0 0 0 0 0 0 0 0 0 0 0 0 0 0
0.0610839 2.40486e-07 1.07016e-07 1.3347e-07 0.555002 0.320407 0 0 0 0 0 0 0 0 0 0 0 0 0 0 0 0 0 0 0 0 0 0 0 0 0 0 0 0 0 0 0 0 0 0 0 0 0 0 0 0 0 0
0.0642193 2.65808e-07 1.18284e-07 1.47524e-07 0.555002 0.354144 0 0 0 0 0 0 0 0 0 0 0 0 0 0 0 0 0 0 0 0 0 0 0 0 0 0 0 0 0 0 0 0 0 0 0 0 0 0 0 0 0 0
0.0675157 2.93796e-07 1.30739e-07 1.63057e-07 0.555002 0.391434 0 0 0 0 0 0 0 0 0 0 0 0 0 0 0 0 0 0 0 0 0 0 0 0 0 0 0 0 0 0 0 0 0 0 0 0 0 0 0 0 0 0
0.0709813 3.24731e-07 1.44505e-07 1.80227e-07 0.555002 0.43265 0 0 0 0 0 0 0 0 0 0 0 0 0 0 0 0 0 0 0 0 0 0 0 0 0 0 0 0 0 0 0 0 0 0 0 0 0 0 0 0 0 0
0.0746248 3.58924e-07 1.5972e-07 1.99203e-07 0.555002 0.478206 0 0 0 0 0 0 0 0 0 0 0 0 0 0 0 0 0 0 0 0 0 0 0 0 0 0 0 0 0 0 0 0 0 0 0 0 0 0 0 0 0 0
0.0784553 3.96717e-07 1.76538e-07 2.20179e-07 0.555002 0.528559 0 0 0 0 0 0 0 0 0 0 0 0 0 0 0 0 0 0 0 0 0 0 0 0 0 0 0 0 0 0 0 0 0 0 0 0 0 0 0 0 0 0
0.0824824 4.38489e-07 1.95127e-07 2.43362e-07 0.555002 0.584213 0 0 0 0 0 0 0 0 0 0 0 0 0 0 0 0 0 0 0 0 0 0 0 0 0 0 0 0 0 0 0 0 0 0 0 0 0 0 0 0 0 0
0.0867162 4.8466e-07 2.15673e-07 2.68987e-07 0.555002 0.645729 0 0 0 0 0 0 0 0 0 0 0 0 0 0 0 0 0 0 0 0 0 0 0 0 0 0 0 0 0 0 0 0 0 0 0 0 0 0 0 0 0 0
0.0911674 5.35693e-07 2.38382e-07 2.9731e-07 0.555002 0.713721 0 0 0 0 0 0 0 0 0 0 0 0 0 0 0 0 0 0 0 0 0 0 0 0 0 0 0 0 0 0 0 0 0 0 0 0 0 0 0 0 0 0
0.095847 5.92098e-07 2.63483e-07 3.28616e-07 0.555002 0.788872 0 0 0 0 0 0 0 0 0 0 0 0 0 0 0 0 0 0 0 0 0 0 0 0 0 0 0 0 0 0 0 0 0 0 0 0 0 0 0 0 0 0
0.100767 6.44598e-07 2.86888e-07 3.5771e-07 0.554935 0.858753 0 0 0 0 0 0 0 0 0 0 0 0 0 0 0 0 0 0 0 0 0 0 0 0 0 0 0 0 0 0 0 0 0 0 0 0 0 0 0 0 0 0
0.105939 6.45103e-07 2.87415e-07 3.57688e-07 0.554467 0.862573 0 0 0 0 0 0 0 0 0 0 0 0 0 0 0 0 0 0 0 0 0 0 0 0 0 0 0 0 0 0 0 0 0 0 0 0 0 0 0 0 0 0
0.111377 6.45605e-07 2.88097e-07 3.57508e-07 0.553757 0.867481 0 0 0 0 0 0 0 0 0 0 0 0 0 0 0 0 0 0 0 0 0 0 0 0 0 0 0 0 0 0 0 0 0 0 0 0 0 0 0 0 0 0
0.117094 6.4611e-07 2.8873e-07 3.5738e-07 0.553126 0.870598 0 0 0 0 0 0 0 0 0 0 0 0 0 0 0 0 0 0 0 0 0 0 0 0 0 0 0 0 0 0 0 0 0 0 0 0 0 0 0 0 0 0
0.123105 6.46612e-07 2.89701e-07 3.56911e-07 0.551971 0.872538 0 0 0 0 0 0 0 0 0 0 0 0 0 0 0 0 0 0 0 0 0 0 0 0 0 0 0 0 0 0 0 0 0 0 0 0 0 0 0 0 0 0
0.129424 6.47092e-07 2.90836e-07 3.56257e-07 0.55055 0.873455 0 0 0 0 0 0 0 0 0 0 0 0 0 0 0 0 0 0 0 0 0 0 0 0 0 0 0 0 0 0 0 0 0 0 0 0 0 0 0 0 0 0
0.136067 6.47622e-07 2.91549e-07 3.56073e-07 0.549816 0.873171 0 0 0 0 0 0 0 0 0 0 0 0 0 0 0 0 0 0 0 0 0 0 0 0 0 0 0 0 0 0 0 0 0 0 0 0 0 0 0 0 0 0
0.143051 6.4814e-07 2.92865e-07 3.55275e-07 0.548146 0.870881 0 0 0 0 0 0 0 0 0 0 0 0 0 0 0 0 0 0 0 0 0 0 0 0 0 0 0 0 0 0 0 0 0 0 0 0 0 0 0 0 0 0
0.150394 6.48702e-07 2.95027e-07 3.53675e-07 0.545204 0.872022 0 0 0 0 0 0 0 0 0 0 0 0 0 0 0 0 0 0 0 0 0 0 0 0 0 0 0 0 0 0 0 0 0 0 0 0 0 0 0 0 0 0
0.158114 6.49383e-07 2.97864e-07 3.51519e-07 0.541313 0.87826 0 0 0 0 0 0 0 0 0 0 0 0 0 0 0 0 0 0 0 0 0 0 0 0 0 0 0 0 0 0 0 0 0 0 0 0 0 0 0 0 0 0
0.16623 6.50156e-07 3.00811e-07 3.49345e-07 0.537325 0.885918 0 0 0 0 0 0 0 0 0 0 0 0 0 0 0 0 0 0 0 0 0 0 0 0 0 0 0 0 0 0 0 0 0 0 0 0 0 0 0 0 0 0
0.174762 6.50961e-07 3.03465e-07 3.47497e-07 0.533821 0.89287 0 0 0 0 0 0 0 0 0 0 0 0 0 0 0 0 0 0 0 0 0 0 0 0 0 0 0 0 0 0 0 0 0 0 0 0 0 0 0 0 0 0
0.183733 6.51764e-07 3.04135e-07 3.47629e-07 0.533366 0.899075 0 0 0 0 0 0 0 0 0 0 0 0 0 0 0 0 0 0 0 0 0 0 0 0 0 0 0 0 0 0 0 0 0 0 0 0 0 0 0 0 0 0
0.193164 6.54207e-07 2.96336e-07 3.57871e-07 0.54703 0.90433 0 0 0 0 0 0 0 0 0 0 0 0 0 0 0 0 0 0 0 0 0 0 0 0 0 0 0 0 0 0 0 0 0 0 0 0 0 0 0 0 0 0
0.203079 6.54634e-07 2.97409e-07 3.57225e-07 0.545687 0.908785 0 0 0 0 0 0 0 0 0 0 0 0 0 0 0 0 0 0 0 0 0 0 0 0 0 0 0 0 0 0 0 0 0 0 0 0 0 0 0 0 0 0
0.213503 6.54191e-07 3.01364e-07 3.52827e-07 0.539333 0.912681 0 0 0 0 0 0 0 0 0 0 0 0 0 0 0 0 0 0 0 0 0 0 0 0 0 0 0 0 0 0 0 0 0 0 0 0 0 0 0 0 0 0
0.224463 6.53887e-07 3.04242e-07 3.49645e-07 0.534718 0.915881 0 0 0 0 0 0 0 0 0 0 0 0 0 0 0 0 0 0 0 0 0 0 0 0 0 0 0 0 0 0 0 0 0 0 0 0 0 0 0 0 0 0
0.235984 6.53691e-07 3.07098e-07 3.46593e-07 0.53021 0.918311 0 0 0 0 0 0 0 0 0 0 0 0 0 0 0 0 0 0 0 0 0 0 0 0 0 0 0 0 0 0 0 0 0 0 0 0 0 0 0 0 0 0
0.248097 6.5371e-07 3.09547e-07 3.44163e-07 0.526477 0.920169 0 0 0 0 0 0 0 0 0 0 0 0 0 0 0 0 0 0 0 0 0 0 0 0 0 0 0 0 0 0 0 0 0 0 0 0 0 0 0 0 0 0
0.260832 6.54016e-07 3.11543e-07 3.42473e-07 0.523646 0.921568 0 0 0 0 0 0 0 0 0 0 0 0 0 0 0 0 0 0 0 0 0 0 0 0 0 0 0 0 0 0 0 0 0 0 0 0 0 0 0 0 0 0
0.274221 6.54528e-07 3.13146e-07 3.41382e-07 0.52157 0.922681 0 0 0 0 0 0 0 0 0 0 0 0 0 0 0 0 0 0 0 0 0 0 0 0 0 0 0 0 0 0 0 0 0 0 0 0 0 0 0 0 0 0
0.288297 6.55196e-07 3.1443e-07 3.40765e-07 0.520097 0.923595 0 0 0 0 0 0 0 0 0 0 0 0 0 0 0 0 0 0 0 0 0 0 0 0 0 0 0 0 0 0 0 0 0 0 0 0 0 0 0 0 0 0
0.303095 6.55984e-07 3.15508e-07 3.40475e-07 0.51903 0.924296 0 0 0 0 0 0 0 0 0 0 0 0 0 0 0 0 0 0 0 0 0 0 0 0 0 0 0 0 0 0 0 0 0 0 0 0 0 0 0 0 0 0
0.318653 6.56891e-07 3.16426e-07 3.40465e-07 0.518297 0.924852 0 0 0 0 0 0 0 0 0 0 0 0 0 0 0 0 0 0 0 0 0 0 0 0 0 0 0 0 0 0 0 0 0 0 0 0 0 0 0 0 0 0
0.335009 6.5789e-07 3.17253e-07 3.40637e-07 0.517772 0.92535 0 0 0 0 0 0 0 0 0 0 0 0 0 0 0 0 0 0 0 0 0 0 0 0 0 0 0 0 0 0 0 0 0 0 0 0 0 0 0 0 0 0
0.352205 6.58965e-07 3.18018e-07 3.40947e-07 0.517397 0.925696 0 0 0 0 0 0 0 0 0 0 0 0 0 0 0 0 0 0 0 0 0 0 0 0 0 0 0 0 0 0 0 0 0 0 0 0 0 0 0 0 0 0
0.370284 6.60116e-07 3.18743e-07 3.41374e-07 0.517142 0.925617 0 0 0 0 0 0 0 0 0 0 0 0 0 0 0 0 0 0 0 0 0 0 0 0 0 0 0 0 0 0 0 0 0 0 0 0 0 0 0 0 0 0
0.389291 6.61338e-07 3.19455e-07 3.41883e-07 0.516956 0.925688 0 0 0 0 0 0 0 0 0 0 0 0 0 0 0 0 0 0 0 0 0 0 0 0 0 0 0 0 0 0 0 0 0 0 0 0 0 0 0 0 0 0
0.409273 6.62617e-07 3.20153e-07 3.42464e-07 0.516836 0.925787 0 0 0 0 0 0 0 0 0 0 0 0 0 0 0 0 0 0 0 0 0 0 0 0 0 0 0 0 0 0 0 0 0 0 0 0 0 0 0 0 0 0
0.430281 6.63968e-07 3.20873e-07 3.43096e-07 0.516735 0.925 0 0 0 0 0 0 0 0 0 0 0 0 0 0 0 0 0 0 0 0 0 0 0 0 0 0 0 0 0 0 0 0 0 0 0 0 0 0 0 0 0 0
0.452368 6.65385e-07 3.21595e-07 3.4379e-07 0.516679 0.925338 0 0 0 0 0 0 0 0 0 0 0 0 0 0 0 0 0 0 0 0 0 0 0 0 0 0 0 0 0 0 0 0 0 0 0 0 0 0 0 0 0 0
0.475588 6.66884e-07 3.22349e-07 3.44535e-07 0.516634 0.923818 0 0 0 0 0 0 0 0 0 0 0 0 0 0 0 0 0 0 0 0 0 0 0 0 0 0 0 0 0 0 0 0 0 0 0 0 0 0 0 0 0 0
0.5 6.68433e-07 3.23112e-07 3.45321e-07 0.516613 0.924255 0 0 0 0 0 0 0 0 0 0 0 0 0 0 0 0 0 0 0 0 0 0 0 0 0 0 0 0 0 0 0 0 0 0 0 0 0 0 0 0 0 0
0.525665 6.7008e-07 3.23911e-07 3.4617e-07 0.516609 0.922236 0 0 0 0 0 0 0 0 0 0 0 0 0 0 0 0 0 0 0 0 0 0 0 0 0 0 0 0 0 0 0 0 0 0 0 0 0 0 0 0 0 0
0.552648 6.71793e-07 3.24738e-07 3.47055e-07 0.51661 0.92214 0 0 0 0 0 0 0 0 0 0 0 0 0 0 0 0 0 0 0 0 0 0 0 0 0 0 0 0 0 0 0 0 0 0 0 0 0 0 0 0 0 0
0.581015 6.73603e-07 3.25608e-07 3.47995e-07 0.516617 0.9207 0 0 0 0 0 0 0 0 0 0 0 0 0 0 0 0 0 0 0 0 0 0 0 0 0 0 0 0 0 0 0 0 0 0 0 0 0 0 0 0 0 0
0.610839 6.75505e-07 3.26524e-07 3.48981e-07 0.516622 0.918233 0 0 0 0 0 0 0 0 0 0 0 0 0 0 0 0 0 0 0 0 0 0 0 0 0 0 0 0 0 0 0 0 0 0 0 0 0 0 0 0 0 0
0.642193 6.77493e-07 3.27455e-07 3.50038e-07 0.516666 0.919041 0 0 0 0 0 0 0 0 0 0 0 0 0 0 0 0 0 0 0 0 0 0 0 0 0 0 0 0 0 0 0 0 0 0 0 0 0 0 0 0 0 0
0.675157 6.7958e-07 3.28443e-07 3.51137e-07 0.516697 0.915568 0 0 0 0 0 0 0 0 0 0 0 0 0 0 0 0 0 0 0 0 0 0 0 0 0 0 0 0 0 0 0 0 0 0 0 0 0 0 0 0 0 0
0.709813 6.81781e-07 3.29497e-07 3.52284e-07 0.516712 0.912087 0 0 0 0 0 0 0 0 0 0 0 0 0 0 0 0 0 0 0 0 0 0 0 0 0 0 0 0 0 0 0 0 0 0 0 0 0 0 0 0 0 0
0.746248 6.84108e-07 3.30611e-07 3.53498e-07 0.516728 0.91326 0 0 0 0 0 0 0 0 0 0 0 0 0 0 0 0 0 0 0 0 0 0 0 0 0 0 0 0 0 0 0 0 0 0 0 0 0 0 0 0 0 0
0.784553 6.86556e-07 3.31781e-07 3.54775e-07 0.516746 0.909929 0 0 0 0 0 0 0 0 0 0 0 0 0 0 0 0 0 0 0 0 0 0 0 0 0 0 0 0 0 0 0 0 0 0 0 0 0 0 0 0 0 0
0.824824 6.89123e-07 3.33014e-07 3.56109e-07 0.516757 0.904015 0 0 0 0 0 0 0 0 0 0 0 0 0 0 0 0 0 0 0 0 0 0 0 0 0 0 0 0 0 0 0 0 0 0 0 0 0 0 0 0 0 0
0.867162 6.91815e-07 3.34306e-07 3.5751e-07 0.51677 0.903933 0 0 0 0 0 0 0 0 0 0 0 0 0 0 0 0 0 0 0 0 0 0 0 0 0 0 0 0 0 0 0 0 0 0 0 0 0 0 0 0 0 0
0.911674 6.94682e-07 3.35706e-07 3.58976e-07 0.516749 0.904168 0 0 0 0 0 0 0 0 0 0 0 0 0 0 0 0 0 0 0 0 0 0 0 0 0 0 0 0 0 0 0 0 0 0 0 0 0 0 0 0 0 0
0.95847 6.97687e-07 3.37192e-07 3.60495e-07 0.5167 0.896926 0 0 0 0 0 0 0 0 0 0 0 0 0 0 0 0 0 0 0 0 0 0 0 0 0 0 0 0 0 0 0 0 0 0 0 0 0 0 0 0 0 0
1.00767 7.00859e-07 3.38799e-07 3.6206e-07 0.516595 0.886375 0 0 0 0 0 0 0 0 0 0 0 0 0 0 0 0 0 0 0 0 0 0 0 0 0 0 0 0 0 0 0 0 0 0 0 0 0 0 0 0 0 0
1.05939 7.04812e-07 3.41295e-07 3.63517e-07 0.515764 0.884319 0 0 0 0 0 0 0 0 0 0 0 0 0 0 0 0 0 0 0 0 0 0 0 0 0 0 0 0 0 0 0 0 0 0 0 0 0 0 0 0 0 0
1.11377 7.09094e-07 3.43973e-07 3.65121e-07 0.514912 0.888386 0 0 0 0 0 0 0 0 0 0 0 0 0 0 0 0 0 0 0 0 0 0 0 0 0 0 0 0 0 0 0 0 0 0 0 0 0 0 0 0 0 0
1.17094 7.13683e-07 3.46822e-07 3.66861e-07 0.514039 0.888267 0 0 0 0 0 0 0 0 0 0 0 0 0 0 0 0 0 0 0 0 0 0 0 0 0 0 0 0 0 0 0 0 0 0 0 0 0 0 0 0 0 0
1.23105 7.18851e-07 3.4972e-07 3.69132e-07 0.513502 0.879673 0 0 0 0 0 0 0 0 0 0 0 0 0 0 0 0 0 0 0 0 0 0 0 0 0 0 0 0 0 0 0 0 0 0 0 0 0 0 0 0 0 0
1.29424 7.25879e-07 3.52353e-07 3.73526e-07 0.514584 0.866166 0 0 0 0 0 0 0 0 0 0 0 0 0 0 0 0 0 0 0 0 0 0 0 0 0 0 0 0 0 0 0 0 0 0 0 0 0 0 0 0 0 0
1.36067 7.38136e-07 3.55058e-07 3.83078e-07 0.518981 0.857479 0 0 0 0 0 0 0 0 0 0 0 0 0 0 0 0 0 0 0 0 0 0 0 0 0 0 0 0 0 0 0 0 0 0 0 0 0 0 0 0 0 0
1.43051 7.53775e-07 3.57776e-07 3.95999e-07 0.525355 0.857485 0 0 0 0 0 0 0 0 0 0 0 0 0 0 0 0 0 0 0 0 0 0 0 0 0 0 0 0 0 0 0 0 0 0 0 0 0 0 0 0 0 0
1.50394 7.63819e-07 3.60882e-07 4.02938e-07 0.52753 0.85965 0 0 0 0 0 0 0 0 0 0 0 0 0 0 0 0 0 0 0 0 0 0 0 0 0 0 0 0 0 0 0 0 0 0 0 0 0 0 0 0 0 0
1.58114 7.65874e-07 3.63779e-07 4.02095e-07 0.525015 0.859147 0 0 0 0 0 0 0 0 0 0 0 0 0 0 0 0 0 0 0 0 0 0 0 0 0 0 0 0 0 0 0 0 0 0 0 0 0 0 0 0 0 0
1.6623 7.62203e-07 3.67104e-07 3.95098e-07 0.518364 0.848579 0 0 0 0 0 0 0 0 0 0 0 0 0 0 0 0 0 0 0 0 0 0 0 0 0 0 0 0 0 0 0 0 0 0 0 0 0 0 0 0 0 0
1.74763 7.57769e-07 3.7029e-07 3.87479e-07 0.511342 0.825146 0 0 0 0 0 0 0 0 0 0 0 0 0 0 0 0 0 0 0 0 0 0 0 0 0 0 0 0 0 0 0 0 0 0 0 0 0 0 0 0 0 0
1.83733 7.57089e-07 3.74196e-07 3.82893e-07 0.505744 0.808533 0 0 0 0 0 0 0 0 0 0 0 0 0 0 0 0 0 0 0 0 0 0 0 0 0 0 0 0 0 0 0 0 0 0 0 0 0 0 0 0 0 0
1.93164 7.61246e-07 3.77685e-07 3.83561e-07 0.50386 0.797654 0 0 0 0 0 0 0 0 0 0 0 0 0 0 0 0 0 0 0 0 0 0 0 0 0 0 0 0 0 0 0 0 0 0 0 0 0 0 0 0 0 0
2.03079 7.6937e-07 3.81763e-07 3.87607e-07 0.503798 0.803977 0 0 0 0 0 0 0 0 0 0 0 0 0 0 0 0 0 0 0 0 0 0 0 0 0 0 0 0 0 0 0 0 0 0 0 0 0 0 0 0 0 0
2.13503 7.78422e-07 3.8611e-07 3.92312e-07 0.503983 0.819791 0 0 0 0 0 0 0 0 0 0 0 0 0 0 0 0 0 0 0 0 0 0 0 0 0 0 0 0 0 0 0 0 0 0 0 0 0 0 0 0 0 0
2.24463 7.84996e-07 3.89924e-07 3.95072e-07 0.503279 0.840801 0 0 0 0 0 0 0 0 0 0 0 0 0 0 0 0 0 0 0 0 0 0 0 0 0 0 0 0 0 0 0 0 0 0 0 0 0 0 0 0 0 0
2.35984 7.88892e-07 3.94024e-07 3.94868e-07 0.500534 0.842465 0 0 0 0 0 0 0 0 0 0 0 0 0 0 0 0 0 0 0 0 0 0 0 0 0 0 0 0 0 0 0 0 0 0 0 0 0 0 0 0 0 0
2.48097 7.89996e-07 3.97933e-07 3.92062e-07 0.496284 0.851331 0 0 0 0 0 0 0 0 0 0 0 0 0 0 0 0 0 0 0 0 0 0 0 0 0 0 0 0 0 0 0 0 0 0 0 0 0 0 0 0 0 0
2.60832 7.90654e-07 4.01284e-07 3.8937e-07 0.492465 0.82619 0 0 0 0 0 0 0 0 0 0 0 0 0 0 0 0 0 0 0 0 0 0 0 0 0 0 0 0 0 0 0 0 0 0 0 0 0 0 0 0 0 0
2.74221 7.91755e-07 4.05529e-07 3.86226e-07 0.48781 0.815192 0 0 0 0 0 0 0 0 0 0 0 0 0 0 0 0 0 0 0 0 0 0 0 0 0 0 0 0 0 0 0 0 0 0 0 0 0 0 0 0 0 0
2.88297 7.96237e-07 4.08937e-07 3.87301e-07 0.486413 0.760454 0 0 0 0 0 0 0 0 0 0 0 0 0 0 0 0 0 0 0 0 0 0 0 0 0 0 0 0 0 0 0 0 0 0 0 0 0 0 0 0 0 0
3.03095 8.03829e-07 4.12855e-07 3.90974e-07 0.486389 0.711787 0 0 0 0 0 0 0 0 0 0 0 0 0 0 0 0 0 0 0 0 0 0 0 0 0 0 0 0 0 0 0 0 0 0 0 0 0 0 0 0 0 0
3.18653 8.13545e-07 4.15553e-07 3.97991e-07 0.489207 0.654065 0 0 0 0 0 0 0 0 0 0 0 0 0 0 0 0 0 0 0 0 0 0 0 0 0 0 0 0 0 0 0 0 0 0 0 0 0 0 0 0 0 0
3.35009 8.29446e-07 4.19955e-07 4.09491e-07 0.493692 0.57218 0 0 0 0 0 0 0 0 0 0 0 0 0 0 0 0 0 0 0 0 0 0 0 0 0 0 0 0 0 0 0 0 0 0 0 0 0 0 0 0 0 0
3.52205 8.36767e-07 4.24309e-07 4.12458e-07 0.492918 0.574021 0 0 0 0 0 0 0 0 0 0 0 0 0 0 0 0 0 0 0 0 0 0 0 0 0 0 0 0 0 0 0 0 0 0 0 0 0 0 0 0 0 0
3.70284 8.55648e-07 4.23127e-07 4.32521e-07 0.505489 0.56504 0 0 0 0 0 0 0 0 0 0 0 0 0 0 0 0 0 0 0 0 0 0 0 0 0 0 0 0 0 0 0 0 0 0 0 0 0 0 0 0 0 0
3.89291 8.7718e-07 4.25076e-07 4.52104e-07 0.515406 0.576731 0 0 0 0 0 0 0 0 0 0 0 0 0 0 0 0 0 0 0 0 0 0 0 0 0 0 0 0 0 0 0 0 0 0 0 0 0 0 0 0 0 0
4.09273 8.96573e-07 4.26344e-07 4.70229e-07 0.524474 0.632723 0 0 0 0 0 0 0 0 0 0 0 0 0 0 0 0 0 0 0 0 0 0 0 0 0 0 0 0 0 0 0 0 0 0 0 0 0 0 0 0 0 0
4.30281 9.15597e-07 4.27407e-07 4.8819e-07 0.533193 0.651856 0 0 0 0 0 0 0 0 0 0 0 0 0 0 0 0 0 0 0 0 0 0 0 0 0 0 0 0 0 0 0 0 0 0 0 0 0 0 0 0 0 0
4.52368 9.32951e-07 4.29129e-07 5.03822e-07 0.54003 0.686382 0 0 0 0 0 0 0 0 0 0 0 0 0 0 0 0 0 0 0 0 0 0 0 0 0 0 0 0 0 0 0 0 0 0 0 0 0 0 0 0 0 0
4.75588 9.44939e-07 4.3068e-07 5.14259e-07 0.544224 0.716917 0 0 0 0 0 0 0 0 0 0 0 0 0 0 0 0 0 0 0 0 0 0 0 0 0 0 0 0 0 0 0 0 0 0 0 0 0 0 0 0 0 0
5 9.51638e-07 4.31763e-07 5.19875e-07 0.546295 0.726266 0 0 0 0 0 0 0 0 0 0 0 0 0 0 0 0 0 0 0 0 0 0 0 0 0 0 0 0 0 0 0 0 0 0 0 0 0 0 0 0 0 0
5.25665 9.54233e-07 4.32416e-07 5.21817e-07 0.546845 0.741487 0 0 0 0 0 0 0 0 0 0 0 0 0 0 0 0 0 0 0 0 0 0 0 0 0 0 0 0 0 0 0 0 0 0 0 0 0 0 0 0 0 0
5.52648 9.53388e-07 4.33277e-07 5.20112e-07 0.54554 0.761684 0 0 0 0 0 0 0 0 0 0 0 0 0 0 0 0 0 0 0 0 0 0 0 0 0 0 0 0 0 0 0 0 0 0 0 0 0 0 0 0 0 0
5.81015 9.49138e-07 4.34561e-07 5.14577e-07 0.542152 0.767846 0 0 0 0 0 0 0 0 0 0 0 0 0 0 0 0 0 0 0 0 0 0 0 0 0 0 0 0 0 0 0 0 0 0 0 0 0 0 0 0 0 0
6.10839 9.40025e-07 4.35264e-07 5.04761e-07 0.536966 0.763187 0 0 0 0 0 0 0 0 0 0 0 0 0 0 0 0 0 0 0 0 0 0 0 0 0 0 0 0 0 0 0 0 0 0 0 0 0 0 0 0 0 0
6.42193 9.25081e-07 4.33913e-07 4.91168e-07 0.530946 0.764493 0 0 0 0 0 0 0 0 0 0 0 0 0 0 0 0 0 0 0 0 0 0 0 0 0 0 0 0 0 0 0 0 0 0 0 0 0 0 0 0 0 0
6.75157 9.03001e-07 4.30648e-07 4.72352e-07 0.523092 0.774175 0 0 0 0 0 0 0 0 0 0 0 0 0 0 0 0 0 0 0 0 0 0 0 0 0 0 0 0 0 0 0 0 0 0 0 0 0 0 0 0 0 0
7.09813 8.80217e-07 4.27092e-07 4.53126e-07 0.514788 0.775283 0 0 0 0 0 0 0 0 0 0 0 0 0 0 0 0 0 0 0 0 0 0 0 0 0 0 0 0 0 0 0 0 0 0 0 0 0 0 0 0 0 0
7.46248 8.46025e-07 4.22509e-07 4.23516e-07 0.500595 0.760621 0 0 0 0 0 0 0 0 0 0 0 0 0 0 0 0 0 0 0 0 0 0 0 0 0 0 0 0 0 0 0 0 0 0 0 0 0 0 0 0 0 0
7.84553 7.90975e-07 4.13416e-07 3.77559e-07 0.477333 0.758943 0 0 0 0 0 0 0 0 0 0 0 0 0 0 0 0 0 0 0 0 0 0 0 0 0 0 0 0 0 0 0 0 1.4013e-45 0 4.2039e-45 0 1.26117e-44 0 3.22299e-44 0 8.40779e-44 0
8.24824 7.04111e-07 4.08199e-07 2.95912e-07 0.420263 0.746595 0 0 0 0 0 0 0 0 0 0 0 0 0 0 0 0 0 0 0 0 0 0 0 0 1.4013e-45 0 7.00649e-45 0 2.52234e-44 0 8.68805e-44 0 2.73253e-43 0 7.80523e-43 0 2.10755e-42 0 5.38939e-42 0 1.30867e-41 0
8.67162 6.64263e-07 4.18713e-07 2.4555e-07 0.369658 0.716544 0 0 0 0 0 0 0 0 0 0 0 0 0 0 0 0 0 0 1.4013e-45 0 1.12104e-44 0 6.02558e-44 0 2.83062e-43 0 1.15607e-42 0 4.22491e-42 0 1.39009e-41 0 4.14294e-41 0 1.12465e-40 0 2.89257e-40 0 7.0661e-40 0 1.64322e-39 0
9.11674 6.87752e-07 4.46695e-07 2.41057e-07 0.3505 0.677868 0 0 0 0 0 0 0 0 0 0 0 0 0 0 2.8026e-45 0 3.64338e-44 0 3.0268e-43 0 1.97303e-42 0 1.01174e-41 0 4.40792e-41 0 1.68135e-40 0 5.76683e-40 0 1.79014e-39 0 5.0584e-39 0 1.3078e-38 0 3.212e-38 0 7.51161e-38 0 1.67631e-37 0
9.5847 7.70957e-07 4.80279e-07 2.90678e-07 0.377035 0.648795 0 0 0 0 0 0 0 0 0 0 1.4013e-45 0 3.92364e-44 0 6.27782e-43 0 6.29183e-42 0 4.69771e-41 0 2.79127e-40 0 1.32162e-39 0 5.35886e-39 0 1.91475e-38 0 6.18381e-38 0 1.81629e-37 0 4.8785e-37 0 1.20413e-36 0 2.83045e-36 0 6.35036e-36 0 1.36269e-35 0
10.0767 8.39835e-07 5.01249e-07 3.38586e-07 0.403158 0.627862 0 0 0 0 0 0 0 0 4.2039e-45 0 2.67648e-43 0 6.48101e-42 0 9.03347e-41 0 8.09414e-40 0 5.47871e-39 0 2.98408e-38 0 1.30962e-37 0 4.95937e-37 0 1.66519e-36 0 5.07867e-36 0 1.41525e-35 0 3.6223e-35 0 8.55489e-35 0 1.92874e-34 0 4.15988e-34 0 8.59983e-34 0
10.5939 8.76798e-07 5.10822e-07 3.65976e-07 0.417401 0.604858 0 0 0 0 0 0 4.2039e-45 0 8.09951e-43 0 3.89141e-41 0 8.04812e-40 0 9.86363e-39 0 7.94071e-38 0 4.89574e-37 0 2.45477e-36 0 1.00226e-35 0 3.55656e-35 0 1.1256e-34 0 3.25106e-34 0 8.61745e-34 0 2.10669e-33 0 4.771e-33 0 1.03378e-32 0 2.14753e-32 0 4.28499e-32 0
11.1377 9.01129e-07 5.1547e-07 3.85659e-07 0.427974 0.584722 0 0 0 0 0 0 7.76319e-43 0 1.09021e-40 0 4.33474e-39 0 7.73241e-38 0 8.38533e-37 0 6.097e-36 0 3.43959e-35 0 1.59409e-34 0 6.07651e-34 0 2.02697e-33 0 6.06418e-33 0 1.66312e-32 0 4.20345e-32 0 9.83726e-32 0 2.14067e-31 0 4.46656e-31 0 8.95327e-31 0 1.7272e-30 0
11.7094 9.14625e-07 5.13476e-07 4.01149e-07 0.438594 0.559044 0 0 0 0 8.54792e-44 0 1.02093e-40 0 1.12665e-38 0 3.74239e-37 0 5.79969e-36 0 5.59844e-35 0 3.69485e-34 0 1.91558e-33 0 8.23739e-33 0 2.94143e-32 0 9.25137e-32 0 2.62358e-31 0 6.84941e-31 0 1.65454e-30 0 3.71462e-30 0 7.78221e-30 0 1.56651e-29 0 3.03525e-29 0 5.67054e-29 0
12.3105 9.13866e-07 5.02178e-07 4.11688e-07 0.450491 0.528945 0 0 0 0 1.22039e-41 0 1.02636e-38 0 9.00232e-37 0 2.5202e-35 0 3.41648e-34 0 2.95234e-33 0 1.77698e-32 0 8.50144e-32 0 3.40449e-31 0 1.14244e-30 0 3.39768e-30 0 9.15734e-30 0 2.28128e-29 0 5.27839e-29 0 1.13918e-28 0 2.30196e-28 0 4.47809e-28 0 8.40099e-28 0 1.52233e-27 0
12.9424 8.71156e-07 4.86361e-07 3.84795e-07 0.441706 0.499375 0 0 8.40779e-45 0 1.32996e-39 0 8.05062e-37 0 5.67565e-35 0 1.35034e-33 0 1.6118e-32 0 1.25363e-31 0 6.9124e-31 0 3.06371e-30 0 1.14653e-29 0 3.62657e-29 0 1.02267e-28 0 2.62603e-28 0 6.25685e-28 0 1.3896e-27 0 2.88847e-27 0 5.63974e-27 0 1.06205e-26 0 1.93215e-26 0 3.40105e-26 0
13.6067 8.28825e-07 4.77459e-07 3.51366e-07 0.423933 0.484628 0 0 1.20372e-42 0 1.15235e-37 0 5.10208e-35 0 2.92212e-33 0 5.95558e-32 0 6.29817e-31 0 4.43178e-30 0 2.2482e-29 0 9.2658e-29 0 3.25117e-28 0 9.72147e-28 0 2.60609e-27 0 6.39082e-27 0 1.4595e-26 0 3.11758e-26 0 6.25289e-26 0 1.18164e-25 0 2.15748e-25 0 3.81202e-25 0 6.52736e-25 0
14.3051 7.80406e-07 4.68043e-07 3.12363e-07 0.400257 0.481319 0 0 1.44699e-40 0 7.91403e-36 0 2.60233e-33 0 1.22316e-31 0 2.15173e-30 0 2.028e-29 0 1.29736e-28 0 6.07971e-28 0 2.33831e-27 0 7.71688e-27 0 2.1873e-26 0 5.588e-26 0 1.31161e-25 0 2.877e-25 0 5.92191e-25 0 1.14807e-24 0 2.10317e-24 0 3.72883e-24 0 6.40783e-24 0 1.06878e-23 0
15.0394 7.34125e-07 4.62535e-07 2.7159e-07 0.369951 0.440981 1.09301e-43 0 1.36994e-38 0 4.39852e-34 0 1.08989e-31 0 4.24487e-30 0 6.49184e-29 0 5.48378e-28 0 3.20421e-27 0 1.39249e-26 0 5.01473e-26 0 1.56124e-25 0 4.20577e-25 0 1.02637e-24 0 2.31079e-24 0 4.878e-24 0 9.69296e-24 0 1.81938e-23 0 3.23591e-23 0 5.57894e-23 0 9.33704e-23 0 1.51894e-22 0
