# 2.09606e-06 1 39 : grain size, compostion index, size index
# Heating and cooling timescale: 37.0076 39683.4
# Ratio of heating to cooling to determine stochastic cutoff: 100
# Equilibrium emission is recorded even for those grains in the stochastic regime.
# Emission spectrum was computed for: 
# Type: ISRF
# Scales: 0.25 0.5 1 1.5 2 2.5 3 3.5 4 4.5 5 5.5 6 6.5 7 7.5 8 8.5 9 9.5 10
# StochasticallyHeated: 1 1 0 0 0 0 0 0 0 0 0 0 0 0 0 0 0 0 0 0 0
# Temperature: -1
# Wavelength  CExt  CAbs  CSca  Albedo G EqEm1 StEm1 EqEm2 StEm2 EqEm3 StEm3 EqEm4 StEm4 EqEm5 StEm5 EqEm6 StEm6 EqEm7 StEm7 EqEm8 StEm8 EqEm9 StEm9 EqEm10 StEm10 EqEm11 StEm11 EqEm12 StEm12 EqEm13 StEm13 EqEm14 StEm14 EqEm15 StEm15 EqEm16 StEm16 EqEm17 StEm17 EqEm18 StEm18 EqEm19 StEm19 EqEm20 StEm20 EqEm21 StEm21
0.05 2.14964e-11 1.42262e-11 7.27022e-12 0.338207 0.740749 0 0 0 0 0 0 0 0 0 0 0 0 0 0 0 0 0 0 0 0 0 0 0 0 0 0 0 0 0 0 0 0 0 0 0 0 0 0 0 0 0 0
0.0525665 2.20129e-11 1.45908e-11 7.42211e-12 0.337171 0.720599 0 0 0 0 0 0 0 0 0 0 0 0 0 0 0 0 0 0 0 0 0 0 0 0 0 0 0 0 0 0 0 0 0 0 0 0 0 0 0 0 0 0
0.0552647 2.26966e-11 1.49537e-11 7.74295e-12 0.34115 0.697222 0 0 0 0 0 0 0 0 0 0 0 0 0 0 0 0 0 0 0 0 0 0 0 0 0 0 0 0 0 0 0 0 0 0 0 0 0 0 0 0 0 0
0.0581015 2.39598e-11 1.55446e-11 8.41525e-12 0.351223 0.670887 0 0 0 0 0 0 0 0 0 0 0 0 0 0 0 0 0 0 0 0 0 0 0 0 0 0 0 0 0 0 0 0 0 0 0 0 0 0 0 0 0 0
0.0610839 2.58577e-11 1.65355e-11 9.32224e-12 0.36052 0.645741 0 0 0 0 0 0 0 0 0 0 0 0 0 0 0 0 0 0 0 0 0 0 0 0 0 0 0 0 0 0 0 0 0 0 0 0 0 0 0 0 0 0
0.0642193 2.79417e-11 1.77577e-11 1.0184e-11 0.364472 0.624081 0 0 0 0 0 0 0 0 0 0 0 0 0 0 0 0 0 0 0 0 0 0 0 0 0 0 0 0 0 0 0 0 0 0 0 0 0 0 0 0 0 0
0.0675157 2.99284e-11 1.90136e-11 1.09149e-11 0.364699 0.604764 0 0 0 0 0 0 0 0 0 0 0 0 0 0 0 0 0 0 0 0 0 0 0 0 0 0 0 0 0 0 0 0 0 0 0 0 0 0 0 0 0 0
0.0709813 3.16821e-11 2.01763e-11 1.15058e-11 0.363164 0.586011 0 0 0 0 0 0 0 0 0 0 0 0 0 0 0 0 0 0 0 0 0 0 0 0 0 0 0 0 0 0 0 0 0 0 0 0 0 0 0 0 0 0
0.0746248 3.30902e-11 2.11418e-11 1.19484e-11 0.361087 0.565869 0 0 0 0 0 0 0 0 0 0 0 0 0 0 0 0 0 0 0 0 0 0 0 0 0 0 0 0 0 0 0 0 0 0 0 0 0 0 0 0 0 0
0.0784553 3.39716e-11 2.17915e-11 1.21801e-11 0.358537 0.542457 0 0 0 0 0 0 0 0 0 0 0 0 0 0 0 0 0 0 0 0 0 0 0 0 0 0 0 0 0 0 0 0 0 0 0 0 0 0 0 0 0 0
0.0824824 3.40944e-11 2.20154e-11 1.2079e-11 0.354281 0.515229 0 0 0 0 0 0 0 0 0 0 0 0 0 0 0 0 0 0 0 0 0 0 0 0 0 0 0 0 0 0 0 0 0 0 0 0 0 0 0 0 0 0
0.0867162 3.35316e-11 2.19611e-11 1.15705e-11 0.345063 0.479036 0 0 0 0 0 0 0 0 0 0 0 0 0 0 0 0 0 0 0 0 0 0 0 0 0 0 0 0 0 0 0 0 0 0 0 0 0 0 0 0 0 0
0.0911674 3.42022e-11 2.22603e-11 1.19418e-11 0.349154 0.439076 0 0 0 0 0 0 0 0 0 0 0 0 0 0 0 0 0 0 0 0 0 0 0 0 0 0 0 0 0 0 0 0 0 0 0 0 0 0 0 0 0 0
0.095847 3.49907e-11 2.24445e-11 1.25461e-11 0.358556 0.402519 0 0 0 0 0 0 0 0 0 0 0 0 0 0 0 0 0 0 0 0 0 0 0 0 0 0 0 0 0 0 0 0 0 0 0 0 0 0 0 0 0 0
0.100767 3.54254e-11 2.24923e-11 1.29332e-11 0.365081 0.36972 0 0 0 0 0 0 0 0 0 0 0 0 0 0 0 0 0 0 0 0 0 0 0 0 0 0 0 0 0 0 0 0 0 0 0 0 0 0 0 0 0 0
0.105939 3.53392e-11 2.23153e-11 1.3024e-11 0.368542 0.345757 0 0 0 0 0 0 0 0 0 0 0 0 0 0 0 0 0 0 0 0 0 0 0 0 0 0 0 0 0 0 0 0 0 0 0 0 0 0 0 0 0 0
0.111377 3.43739e-11 2.18497e-11 1.25242e-11 0.364352 0.324249 0 0 0 0 0 0 0 0 0 0 0 0 0 0 0 0 0 0 0 0 0 0 0 0 0 0 0 0 0 0 0 0 0 0 0 0 0 0 0 0 0 0
0.117094 3.30031e-11 2.11219e-11 1.18812e-11 0.360004 0.303183 0 0 0 0 0 0 0 0 0 0 0 0 0 0 0 0 0 0 0 0 0 0 0 0 0 0 0 0 0 0 0 0 0 0 0 0 0 0 0 0 0 0
0.123105 3.11774e-11 2.00755e-11 1.11019e-11 0.356087 0.282595 0 0 0 0 0 0 0 0 0 0 0 0 0 0 0 0 0 0 0 0 0 0 0 0 0 0 0 0 0 0 0 0 0 0 0 0 0 0 0 0 0 0
0.129424 2.89542e-11 1.87198e-11 1.02345e-11 0.35347 0.262749 0 0 0 0 0 0 0 0 0 0 0 0 0 0 0 0 0 0 0 0 0 0 0 0 0 0 0 0 0 0 0 0 0 0 0 0 0 0 0 0 0 0
0.136067 2.64657e-11 1.71054e-11 9.36033e-12 0.353678 0.244454 0 0 0 0 0 0 0 0 0 0 0 0 0 0 0 0 0 0 0 0 0 0 0 0 0 0 0 0 0 0 0 0 0 0 0 0 0 0 0 0 0 0
0.143051 2.38414e-11 1.5187e-11 8.65439e-12 0.362998 0.230543 0 0 0 0 0 0 0 0 0 0 0 0 0 0 0 0 0 0 0 0 0 0 0 0 0 0 0 0 0 0 0 0 0 0 0 0 0 0 0 0 0 0
0.150394 1.9315e-11 1.16411e-11 7.67398e-12 0.397306 0.220142 0 0 0 0 0 0 0 0 0 0 0 0 0 0 0 0 0 0 0 0 0 0 0 0 0 0 0 0 0 0 0 0 0 0 0 0 0 0 0 0 0 0
0.158114 1.37637e-11 7.59625e-12 6.16741e-12 0.448094 0.198391 0 0 0 0 0 0 0 0 0 0 0 0 0 0 0 0 0 0 0 0 0 0 0 0 0 0 0 0 0 0 0 0 0 0 0 0 0 0 0 0 0 0
0.16623 9.3704e-12 4.67432e-12 4.69609e-12 0.501162 0.171482 0 0 0 0 0 0 0 0 0 0 0 0 0 0 0 0 0 0 0 0 0 0 0 0 0 0 0 0 0 0 0 0 0 0 0 0 0 0 0 0 0 0
0.174762 6.48701e-12 2.96436e-12 3.52265e-12 0.543031 0.147707 0 0 0 0 0 0 0 0 0 0 0 0 0 0 0 0 0 0 0 0 0 0 0 0 0 0 0 0 0 0 0 0 0 0 0 0 0 0 0 0 0 0
0.183733 4.49784e-12 1.86232e-12 2.63552e-12 0.585953 0.128114 0 0 0 0 0 0 0 0 0 0 0 0 0 0 0 0 0 0 0 0 0 0 0 0 0 0 0 0 0 0 0 0 0 0 0 0 0 0 0 0 0 0
0.193164 3.18555e-12 1.2023e-12 1.98325e-12 0.622576 0.112154 0 0 0 0 0 0 0 0 0 0 0 0 0 0 0 0 0 0 0 0 0 0 0 0 0 0 0 0 0 0 0 0 0 0 0 0 0 0 0 0 0 0
0.203079 2.30208e-12 7.98431e-13 1.50365e-12 0.65317 0.0989201 0 0 0 0 0 0 0 0 0 0 0 0 0 0 0 0 0 0 0 0 0 0 0 0 0 0 0 0 0 0 0 0 0 0 0 0 0 0 0 0 0 0
0.213503 1.71209e-12 5.66626e-13 1.14547e-12 0.669044 0.0876807 0 0 0 0 0 0 0 0 0 0 0 0 0 0 0 0 0 0 0 0 0 0 0 0 0 0 0 0 0 0 0 0 0 0 0 0 0 0 0 0 0 0
0.224463 1.34105e-12 4.60787e-13 8.80259e-13 0.656398 0.0780913 0 0 0 0 0 0 0 0 0 0 0 0 0 0 0 0 0 0 0 0 0 0 0 0 0 0 0 0 0 0 0 0 0 0 0 0 0 0 0 0 0 0
0.235984 1.10935e-12 4.24479e-13 6.84866e-13 0.617361 0.069866 0 0 0 0 0 0 0 0 0 0 0 0 0 0 0 0 0 0 0 0 0 0 0 0 0 0 0 0 0 0 0 0 0 0 0 0 0 0 0 0 0 0
0.248097 9.49616e-13 4.1097e-13 5.38646e-13 0.567225 0.0627138 0 0 0 0 0 0 0 0 0 0 0 0 0 0 0 0 0 0 0 0 0 0 0 0 0 0 0 0 0 0 0 0 0 0 0 0 0 0 0 0 0 0
0.260832 8.18201e-13 3.91696e-13 4.26504e-13 0.521271 0.0563988 0 0 0 0 0 0 0 0 0 0 0 0 0 0 0 0 0 0 0 0 0 0 0 0 0 0 0 0 0 0 0 0 0 0 0 0 0 0 0 0 0 0
0.274221 7.1078e-13 3.71489e-13 3.3929e-13 0.47735 0.0507819 0 0 0 0 0 0 0 0 0 0 0 0 0 0 0 0 0 0 0 0 0 0 0 0 0 0 0 0 0 0 0 0 0 0 0 0 0 0 0 0 0 0
0.288297 6.23095e-13 3.51844e-13 2.7125e-13 0.435328 0.0457802 0 0 0 0 0 0 0 0 0 0 0 0 0 0 0 0 0 0 0 0 0 0 0 0 0 0 0 0 0 0 0 0 0 0 0 0 0 0 0 0 0 0
0.303095 5.50924e-13 3.33365e-13 2.17559e-13 0.394898 0.0413014 0 0 0 0 0 0 0 0 0 0 0 0 0 0 0 0 0 0 0 0 0 0 0 0 0 0 0 0 0 0 0 0 0 0 0 0 0 0 0 0 0 0
0.318653 4.90655e-13 3.15771e-13 1.74884e-13 0.356429 0.0372775 0 0 0 0 0 0 0 0 0 0 0 0 0 0 0 0 0 0 0 0 0 0 0 0 0 0 0 0 0 0 0 0 0 0 0 0 0 0 0 0 0 0
0.335009 4.40094e-13 2.99126e-13 1.40967e-13 0.320312 0.0336649 0 0 0 0 0 0 0 0 0 0 0 0 0 0 0 0 0 0 0 0 0 0 0 0 0 0 0 0 0 0 0 0 0 0 0 0 0 0 0 0 0 0
0.352205 3.97348e-13 2.83495e-13 1.13853e-13 0.286532 0.0304139 0 0 0 0 0 0 0 0 0 0 0 0 0 0 0 0 0 0 0 0 0 0 0 0 0 0 0 0 0 0 0 0 0 0 0 0 0 0 0 0 0 0
0.370284 3.60776e-13 2.68703e-13 9.2073e-14 0.255208 0.027482 0 0 0 0 0 0 0 0 0 0 0 0 0 0 0 0 0 0 0 0 0 0 0 0 0 0 0 0 0 0 0 0 0 0 0 0 0 0 0 0 0 0
0.389291 3.29361e-13 2.54779e-13 7.45823e-14 0.226445 0.0248392 0 0 0 0 0 0 0 0 0 0 0 0 0 0 0 0 0 0 0 0 0 0 0 0 0 0 0 0 0 0 0 0 0 0 0 0 0 0 0 0 0 0
0.409273 3.0207e-13 2.41535e-13 6.05353e-14 0.200402 0.0224592 0 0 0 0 0 0 0 0 0 0 0 0 0 0 0 0 0 0 0 0 0 0 0 0 0 0 0 0 0 0 0 0 0 0 0 0 0 0 0 0 0 0
0.430281 2.78125e-13 2.28969e-13 4.91568e-14 0.176743 0.0203075 0 0 0 0 0 0 0 0 0 0 0 0 0 0 0 0 0 0 0 0 0 0 0 0 0 0 0 0 0 0 0 0 0 0 0 0 0 0 0 0 0 0
0.452368 2.57086e-13 2.17112e-13 3.99747e-14 0.155491 0.0183659 0 0 0 0 0 0 0 0 0 0 0 0 0 0 0 0 0 0 0 0 0 0 0 0 0 0 0 0 0 0 0 0 0 0 0 0 0 0 0 0 0 0
0.475588 2.3843e-13 2.05905e-13 3.25254e-14 0.136415 0.0166104 0 0 0 0 0 0 0 0 0 0 0 0 0 0 0 0 0 0 0 0 0 0 0 0 0 0 0 0 0 0 0 0 0 0 0 0 0 0 0 0 0 0
0.5 2.21881e-13 1.95383e-13 2.64974e-14 0.119422 0.0150262 0 0 0 0 0 0 0 0 0 0 0 0 0 0 0 0 0 0 0 0 0 0 0 0 0 0 0 0 0 0 0 0 0 0 0 0 0 0 0 0 0 0
0.525665 2.07072e-13 1.85481e-13 2.15919e-14 0.104272 0.0135926 0 0 0 0 0 0 0 0 0 0 0 0 0 0 0 0 0 0 0 0 0 0 0 0 0 0 0 0 0 0 0 0 0 0 0 0 0 0 0 0 0 0
0.552648 1.93758e-13 1.76166e-13 1.7592e-14 0.0907937 0.0122943 0 0 0 0 0 0 0 0 0 0 0 0 0 0 0 0 0 0 0 0 0 0 0 0 0 0 0 0 0 0 0 0 0 0 0 0 0 0 0 0 0 0
0.581015 1.81655e-13 1.67293e-13 1.43623e-14 0.0790638 0.0111244 0 0 0 0 0 0 0 0 0 0 0 0 0 0 0 0 0 0 0 0 0 0 0 0 0 0 0 0 0 0 0 0 0 0 0 0 0 0 0 0 0 0
0.610839 1.70677e-13 1.58948e-13 1.17283e-14 0.0687166 0.010066 0 0 0 0 0 0 0 0 0 0 0 0 0 0 0 0 0 0 0 0 0 0 0 0 0 0 0 0 0 0 0 0 0 0 0 0 0 0 0 0 0 0
0.642193 1.60657e-13 1.51083e-13 9.5747e-15 0.059597 0.00910702 0 0 0 0 0 0 0 0 0 0 0 0 0 0 0 0 0 0 0 0 0 0 0 0 0 0 0 0 0 0 0 0 0 0 0 0 0 0 0 0 0 0
0.675157 1.51493e-13 1.43674e-13 7.81873e-15 0.0516113 0.00823931 0 0 0 0 0 0 0 0 0 0 0 0 0 0 0 0 0 0 0 0 0 0 0 0 0 0 0 0 0 0 0 0 0 0 0 0 0 0 0 0 0 0
0.709813 1.43096e-13 1.36704e-13 6.39159e-15 0.0446665 0.00745598 0 0 0 0 0 0 0 0 0 0 0 0 0 0 0 0 0 0 0 0 0 0 0 0 0 0 0 0 0 0 0 0 0 0 0 0 0 0 0 0 0 0
0.746248 1.35356e-13 1.30131e-13 5.2248e-15 0.0386005 0.00674674 0 0 0 0 0 0 0 0 0 0 0 0 0 0 0 0 0 0 0 0 0 0 0 0 0 0 0 0 0 0 0 0 0 0 0 0 0 0 0 0 0 0
0.784553 1.28188e-13 1.23918e-13 4.26993e-15 0.03331 0.00610425 0 0 0 0 0 0 0 0 0 0 0 0 0 0 0 0 0 0 0 0 0 0 0 0 0 0 0 0 0 0 0 0 0 0 0 0 0 0 0 0 0 0
0.824824 1.21476e-13 1.17985e-13 3.49112e-15 0.0287393 0.00552324 0 0 0 0 0 0 0 0 0 0 0 0 0 0 0 0 0 0 0 0 0 0 0 0 0 0 0 0 0 0 0 0 0 0 0 0 0 0 0 0 0 0
0.867162 1.15199e-13 1.12342e-13 2.85691e-15 0.0247998 0.00499856 0 0 0 0 0 0 0 0 0 0 0 0 0 0 0 0 0 0 0 0 0 0 0 0 0 0 0 0 0 0 0 0 0 0 0 0 0 0 0 0 0 0
0.911674 1.09322e-13 1.06984e-13 2.33747e-15 0.0213816 0.0045233 0 0 0 0 0 0 0 0 0 0 0 0 0 0 0 0 0 0 0 0 0 0 0 0 0 0 0 0 0 0 0 0 0 0 0 0 0 0 0 0 0 0
0.95847 1.0378e-13 1.01868e-13 1.91234e-15 0.0184267 0.00409297 0 0 0 0 0 0 0 0 0 0 0 0 0 0 0 0 0 0 0 0 0 0 0 0 0 0 0 0 0 0 0 0 0 0 0 0 0 0 0 0 0 0
1.00767 9.85953e-14 9.70304e-14 1.56498e-15 0.0158728 0.00370378 0 0 0 0 0 0 0 0 0 0 0 0 0 0 0 0 0 0 0 0 0 0 0 0 0 0 0 0 0 0 0 0 0 0 0 0 0 0 0 0 0 0
1.05939 9.37557e-14 9.24748e-14 1.28088e-15 0.0136618 0.00335167 0 0 0 0 0 0 0 0 0 0 0 0 0 0 0 0 0 0 0 0 0 0 0 0 0 0 0 0 0 0 0 0 0 0 0 0 0 0 0 0 0 0
1.11377 8.92025e-14 8.81544e-14 1.04808e-15 0.0117495 0.00303274 0 0 0 0 0 0 0 0 0 0 0 0 0 0 0 0 0 0 0 0 0 0 0 0 0 0 0 0 0 0 0 0 0 0 0 0 0 0 0 0 0 0
1.17094 8.48951e-14 8.40378e-14 8.57278e-16 0.0100981 0.00274384 0 0 0 0 0 0 0 0 0 0 0 0 0 0 0 0 0 0 0 0 0 0 0 0 0 0 0 0 0 0 0 0 0 0 0 0 0 0 0 0 0 0
1.23105 8.08333e-14 8.01317e-14 7.01576e-16 0.0086793 0.00248279 0 0 0 0 0 0 0 0 0 0 0 0 0 0 0 0 0 0 0 0 0 0 0 0 0 0 0 0 0 0 0 0 0 0 0 0 0 0 0 0 0 0
1.29424 7.71877e-14 7.66138e-14 5.7395e-16 0.00743577 0.00224635 0 0 0 0 0 0 0 0 0 0 0 0 0 0 0 0 0 0 0 0 0 0 0 0 0 0 0 0 0 0 0 0 0 0 0 0 0 0 0 0 0 0
1.36067 7.37884e-14 7.33187e-14 4.69733e-16 0.00636594 0.00203252 0 0 0 0 0 0 0 0 0 0 0 0 0 0 0 0 0 0 0 0 0 0 0 0 0 0 0 0 0 0 0 0 0 0 0 0 0 0 0 0 0 0
1.43051 7.05723e-14 7.01882e-14 3.84158e-16 0.00544346 0.00183873 0 0 0 0 0 0 0 0 0 0 0 0 0 0 0 0 0 0 0 0 0 0 0 0 0 0 0 0 0 0 0 0 0 0 0 0 0 0 0 0 0 0
1.50394 6.75287e-14 6.72143e-14 3.14403e-16 0.00465583 0.00166372 0 0 0 0 0 0 0 0 0 0 0 0 0 0 0 0 0 0 0 0 0 0 0 0 0 0 0 0 0 0 0 0 0 0 0 0 0 0 0 0 0 0
1.58114 6.46286e-14 6.43714e-14 2.57241e-16 0.0039803 0.00150524 0 0 0 0 0 0 0 0 0 0 0 0 0 0 0 0 0 0 0 0 0 0 0 0 0 0 0 0 0 0 0 0 0 0 0 0 0 0 0 0 0 0
1.6623 6.1861e-14 6.16507e-14 2.10299e-16 0.00339953 0.00136155 0 0 0 0 0 0 0 0 0 0 0 0 0 0 0 0 0 0 0 0 0 0 0 0 0 0 0 0 0 0 0 0 0 0 0 0 0 0 0 0 0 0
1.74763 5.92635e-14 5.90915e-14 1.71967e-16 0.00290173 0.00123167 0 0 0 0 0 0 0 0 0 0 0 0 0 0 0 0 0 0 0 0 0 0 0 0 0 0 0 0 0 0 0 0 0 0 0 0 0 0 0 0 0 0
1.83733 5.68971e-14 5.67565e-14 1.40591e-16 0.00247097 0.00111413 0 0 0 0 0 0 0 0 0 0 0 0 0 0 0 0 0 0 0 0 0 0 0 0 0 0 0 0 0 0 0 0 0 0 0 0 0 0 0 0 0 0
1.93164 5.46913e-14 5.45764e-14 1.14892e-16 0.00210074 0.00100768 0 0 0 0 0 0 0 0 0 0 0 0 0 0 0 0 0 0 0 0 0 0 0 0 0 0 0 0 0 0 0 0 0 0 0 0 0 0 0 0 0 0
2.03079 5.26134e-14 5.25196e-14 9.38776e-17 0.00178429 0.000911353 0 0 0 0 0 0 0 0 0 0 0 0 0 0 0 0 0 0 0 0 0 0 0 0 0 0 0 0 0 0 0 0 0 0 0 0 0 0 0 0 0 0
2.13503 5.06493e-14 5.05726e-14 7.67101e-17 0.00151453 0.000824274 0 0 0 0 0 0 0 0 0 0 0 0 0 0 0 0 0 0 0 0 0 0 0 0 0 0 0 0 0 0 0 0 0 0 0 0 0 0 0 0 0 0
2.24463 4.88227e-14 4.87601e-14 6.26426e-17 0.00128306 0.000745398 0 0 0 0 0 0 0 0 0 0 0 0 0 0 0 0 0 0 0 0 0 0 0 0 0 0 0 0 0 0 0 0 0 0 0 0 0 0 0 0 0 0
2.35984 4.7081e-14 4.70299e-14 5.11295e-17 0.00108599 0.000673978 0 0 0 0 0 0 0 0 0 0 0 0 0 0 0 0 0 0 0 0 0 0 0 0 0 0 0 0 0 0 0 0 0 0 0 0 0 0 0 0 0 0
2.48097 4.5437e-14 4.53953e-14 4.16923e-17 0.000917586 0.000609271 0 0 0 0 0 0 0 0 0 0 0 0 0 0 0 0 0 0 0 0 0 0 0 0 0 0 0 0 0 0 0 0 0 0 0 0 0 0 0 0 0 0
2.60832 4.39183e-14 4.38843e-14 3.40077e-17 0.00077434 0.000550832 0 0 0 0 0 0 0 0 0 0 0 0 0 0 0 0 0 0 0 0 0 0 0 0 0 0 0 0 0 0 0 0 0 0 0 0 0 0 0 0 0 0
2.74221 4.24783e-14 4.24505e-14 2.77258e-17 0.000652705 0.000497935 0 0 0 0 0 0 0 0 0 0 0 0 0 0 0 0 0 0 0 0 0 0 0 0 0 0 0 0 0 0 0 0 0 0 0 0 0 0 0 0 0 0
2.88297 4.11429e-14 4.11203e-14 2.25657e-17 0.000548471 0.000449941 0 0 0 0 0 0 0 0 0 0 0 0 0 0 0 0 0 0 0 0 0 0 0 0 0 0 0 0 0 0 0 0 0 0 0 0 0 0 0 0 0 0
3.03095 3.98823e-14 3.98639e-14 1.83633e-17 0.000460438 0.000406571 0 0 0 0 0 0 0 0 0 0 0 0 0 0 0 0 0 0 0 0 0 0 0 0 0 0 0 0 0 0 0 0 0 0 0 0 0 0 0 0 0 0
3.18653 3.87818e-14 3.87669e-14 1.49361e-17 0.000385131 0.000367346 0 0 0 0 0 0 0 0 0 0 0 0 0 0 0 0 0 0 0 0 0 0 0 0 0 0 0 0 0 0 0 0 0 0 0 0 0 0 0 0 0 0
3.35009 3.77424e-14 3.77302e-14 1.21326e-17 0.000321457 0.000331807 0 0 0 0 0 0 0 0 0 0 0 0 0 0 0 0 0 0 0 0 0 0 0 0 0 0 0 0 0 0 0 0 0 0 0 0 0 0 0 0 0 0
3.52205 3.66159e-14 3.6606e-14 9.83782e-18 0.000268676 0.000299594 0 0 0 0 0 0 0 0 0 0 0 0 0 0 0 0 0 0 0 0 0 0 0 0 0 0 0 0 0 0 0 0 0 0 0 0 0 0 0 0 0 0
3.70284 3.55073e-14 3.54993e-14 7.9724e-18 0.000224529 0.000270492 0 0 0 0 0 0 0 0 0 0 0 0 0 0 0 0 0 0 0 0 0 0 0 0 0 0 0 0 0 0 0 0 0 0 0 0 0 0 0 0 0 0
3.89291 3.44364e-14 3.443e-14 6.44778e-18 0.000187237 0.000244119 0 0 0 0 0 0 0 0 0 0 0 0 0 0 0 0 0 0 0 0 0 0 0 0 0 0 0 0 0 0 0 0 0 0 0 0 0 0 0 0 0 0
4.09273 3.34223e-14 3.34171e-14 5.20061e-18 0.000155603 0.000220197 0 0 0 0 0 0 0 0 0 0 0 0 0 0 0 0 0 0 0 0 0 0 0 0 0 0 0 0 0 0 0 0 0 0 0 0 0 0 0 0 0 0
4.30281 3.23614e-14 3.23573e-14 4.18283e-18 0.000129253 0.000198516 0 0 0 0 0 0 0 0 0 0 0 0 0 0 0 0 0 0 0 0 0 0 0 0 0 0 0 0 0 0 0 0 0 0 0 0 0 0 0 0 0 0
4.52368 3.1385e-14 3.13816e-14 3.35526e-18 0.000106907 0.000178892 0 0 0 0 0 0 0 0 0 0 0 0 0 0 0 0 0 0 0 0 0 0 0 0 0 0 0 0 0 0 0 0 0 0 0 0 0 0 0 0 0 0
4.75588 3.05379e-14 3.05352e-14 2.68029e-18 8.77693e-05 0.000161086 0 0 0 0 0 0 0 0 0 0 0 0 0 0 0 0 0 0 0 0 0 0 0 0 0 0 0 0 0 0 0 0 0 0 0 0 0 0 0 0 0 0
5 2.99017e-14 2.98996e-14 2.12783e-18 7.11608e-05 0.000144894 0 0 0 0 0 0 0 0 0 0 0 0 0 0 0 0 0 0 0 0 0 0 0 0 0 0 0 0 0 0 0 0 0 0 0 0 0 0 0 0 0 0
5.25665 2.95552e-14 2.95535e-14 1.67842e-18 5.67893e-05 0.000130198 0 0 0 0 0 0 0 0 0 0 0 0 0 0 0 0 0 0 0 0 0 0 0 0 0 0 0 0 0 0 0 0 0 0 0 0 0 0 0 0 0 0
5.52648 2.9458e-14 2.94567e-14 1.31511e-18 4.46434e-05 0.00011688 0 0 0 0 0 0 0 0 0 0 0 0 0 0 0 0 0 0 0 0 0 0 0 0 0 0 0 0 0 0 0 0 0 0 0 0 0 0 0 0 0 0
5.81015 2.97568e-14 2.97558e-14 1.01814e-18 3.42153e-05 0.000104737 0 0 0 0 0 0 0 0 0 0 0 0 0 0 0 0 0 0 0 0 0 0 0 0 0 0 0 0 0 0 0 0 1.4013e-45 0 2.8026e-45 0 7.00649e-45 0 1.68156e-44 0 3.64338e-44 0
6.10839 3.03248e-14 3.03241e-14 7.78161e-19 2.56608e-05 9.36988e-05 0 0 0 0 0 0 0 0 0 0 0 0 0 0 0 0 0 0 0 0 0 0 0 0 1.4013e-45 0 4.2039e-45 0 1.26117e-44 0 3.78351e-44 0 1.02295e-43 0 2.57839e-43 0 6.1517e-43 0 1.38168e-42 0 2.94553e-42 0
6.42193 3.07736e-14 3.07731e-14 5.83969e-19 1.89763e-05 8.36554e-05 0 0 0 0 0 0 0 0 0 0 0 0 0 0 0 0 0 0 1.4013e-45 0 5.60519e-45 0 2.8026e-44 0 1.05097e-43 0 3.53127e-43 0 1.09441e-42 0 3.04362e-42 0 7.78702e-42 0 1.87774e-41 0 4.28111e-41 0 9.25235e-41 0 1.9001e-40 0
6.75157 3.08524e-14 3.0852e-14 4.22013e-19 1.36784e-05 7.438e-05 0 0 0 0 0 0 0 0 0 0 0 0 0 0 2.8026e-45 0 1.68156e-44 0 1.06499e-43 0 5.26888e-43 0 2.21265e-42 0 7.83186e-42 0 2.46502e-41 0 7.23883e-41 0 1.91462e-40 0 4.67815e-40 0 1.08065e-39 0 2.36658e-39 0 4.92576e-39 0 9.76658e-39 0
7.09813 3.13459e-14 3.13456e-14 2.82618e-19 9.01612e-06 6.56493e-05 0 0 0 0 0 0 0 0 0 0 1.4013e-45 0 1.82169e-44 0 1.90577e-43 0 1.39709e-42 0 7.91313e-42 0 3.61521e-41 0 1.41527e-40 0 4.70923e-40 0 1.40159e-39 0 3.90504e-39 0 9.84946e-39 0 2.30389e-38 0 5.10882e-38 0 1.0768e-37 0 2.16243e-37 0 4.14666e-37 0
7.46248 3.86222e-14 3.86221e-14 1.59244e-19 4.12311e-06 5.71406e-05 0 0 0 0 0 0 0 0 4.2039e-45 0 1.12104e-43 0 1.73901e-42 0 1.644e-41 0 1.09604e-40 0 5.7018e-40 0 2.41884e-39 0 8.85878e-39 0 2.77966e-38 0 7.844e-38 0 2.07881e-37 0 5.01169e-37 0 1.12464e-36 0 2.39877e-36 0 4.87518e-36 0 9.46272e-36 0 1.75779e-35 0
7.84553 7.50603e-14 7.50602e-14 7.95875e-20 1.06031e-06 4.90374e-05 0 0 0 1.4013e-45 0 0 7.00649e-45 0 5.94151e-43 0 1.56091e-41 0 2.12463e-40 0 1.79942e-39 0 1.0935e-38 0 5.24852e-38 0 2.07486e-37 0 7.13233e-37 0 2.11642e-36 0 5.67741e-36 0 1.4347e-35 0 3.31339e-35 0 7.14766e-35 0 1.46918e-34 0 2.8843e-34 0 5.42004e-34 0 9.76837e-34 0
8.24824 1.56142e-13 1.56142e-13 9.72549e-20 6.22863e-07 4.21425e-05 0 0 0 1.49939e-43 2.8026e-45 0 1.23875e-42 0 8.35748e-41 0 1.8708e-39 0 2.24159e-38 0 1.71043e-37 0 9.51762e-37 0 4.23142e-36 0 1.5642e-35 0 5.06236e-35 0 1.4245e-34 0 3.64155e-34 0 8.79508e-34 0 1.94986e-33 0 4.05128e-33 0 8.03944e-33 0 1.52717e-32 0 2.78275e-32 0 4.87307e-32 0
8.67162 2.38315e-13 2.38315e-13 1.74936e-19 7.34051e-07 3.66896e-05 0 2.24208e-44 0 1.05714e-41 3.16693e-43 0 1.26208e-40 0 6.9324e-39 0 1.33328e-37 0 1.41512e-36 0 9.77806e-36 0 5.00359e-35 0 2.06825e-34 0 7.17278e-34 0 2.19202e-33 0 5.86429e-33 0 1.43198e-32 0 3.3128e-32 0 7.06441e-32 0 1.41631e-31 0 2.71807e-31 0 5.004e-31 0 8.85485e-31 0 1.50879e-30 0
9.11674 3.5135e-13 3.51349e-13 3.41133e-19 9.70922e-07 3.12685e-05 0 1.59888e-42 1.4013e-45 6.08491e-40 3.36298e-41 0 9.99451e-39 0 4.51457e-37 0 7.51559e-36 0 7.10799e-35 0 4.4691e-34 0 2.1117e-33 0 8.14445e-33 0 2.65814e-32 0 7.69213e-32 0 1.96134e-31 0 4.58505e-31 0 1.01816e-30 0 2.09238e-30 0 4.05485e-30 0 7.53798e-30 0 1.34701e-29 0 2.3181e-29 0 3.8484e-29 0
9.5847 3.95314e-13 3.95314e-13 4.85248e-19 1.2275e-06 2.80041e-05 0 7.15307e-41 8.68805e-44 2.26832e-38 2.18264e-39 0 4.91224e-37 0 1.8422e-35 0 2.67334e-34 0 2.26566e-33 0 1.30222e-32 0 5.70385e-32 0 2.05957e-31 0 6.34468e-31 0 1.74321e-30 0 4.24626e-30 0 9.52342e-30 0 2.03399e-29 0 4.03552e-29 0 7.57191e-29 0 1.36564e-28 0 2.37216e-28 0 3.97552e-28 0 6.43864e-28 0
10.0767 3.54196e-13 3.54196e-13 4.66609e-19 1.31738e-06 2.65969e-05 0 2.16693e-39 6.00877e-42 5.75192e-37 9.14222e-38 0 1.57943e-35 0 4.96257e-34 0 6.3198e-33 0 4.82536e-32 0 2.54646e-31 0 1.03777e-30 0 3.51953e-30 0 1.02627e-29 0 2.68392e-29 0 6.25963e-29 0 1.34961e-28 0 2.77763e-28 0 5.32963e-28 0 9.69748e-28 0 1.69936e-27 0 2.87331e-27 0 4.69554e-27 0 7.42782e-27 0
10.5939 2.97127e-13 2.97126e-13 4.23071e-19 1.42387e-06 2.61381e-05 1.12104e-44 5.25913e-38 3.08735e-40 1.17387e-35 2.93552e-36 0 3.9436e-34 0 1.04713e-32 0 1.17773e-31 0 8.1427e-31 0 3.96192e-30 0 1.50757e-29 0 4.81689e-29 0 1.33306e-28 0 3.3264e-28 0 7.44385e-28 0 1.54585e-27 0 3.07134e-27 0 5.70864e-27 0 1.00879e-26 0 1.72002e-26 0 2.83462e-26 0 4.52254e-26 0 6.99575e-26 0
11.1377 2.33584e-13 2.33584e-13 3.34846e-19 1.43351e-06 2.67889e-05 6.82432e-43 1.02989e-36 1.20132e-38 1.94164e-34 7.30348e-35 0 7.72379e-33 0 1.74746e-31 0 1.74637e-30 0 1.09865e-29 0 4.94821e-29 0 1.76395e-28 0 5.32528e-28 0 1.4023e-27 0 3.34639e-27 0 7.1998e-27 0 1.44276e-26 0 2.77203e-26 0 4.99872e-26 0 8.59124e-26 0 1.42716e-25 0 2.29531e-25 0 3.57951e-25 0 5.42033e-25 0
11.7094 1.86513e-13 1.86512e-13 2.63135e-19 1.41082e-06 2.69463e-05 3.55131e-41 1.77425e-35 3.87659e-37 2.83759e-33 1.5402e-33 0 1.29731e-31 0 2.52048e-30 0 2.25114e-29 0 1.29458e-28 0 5.4176e-28 0 1.81506e-27 0 5.19182e-27 0 1.30404e-26 0 2.98251e-26 0 6.18129e-26 0 1.19733e-25 0 2.22829e-25 0 3.90418e-25 0 6.53498e-25 0 1.05901e-24 0 1.66415e-24 0 2.53952e-24 0 3.76839e-24 0
