# 0.0001122 0 140 : grain size, compostion index, size index
# Heating and cooling timescale: 0.000178768 2.48953e+07
# Ratio of heating to cooling to determine stochastic cutoff: 100
# Equilibrium emission is recorded even for those grains in the stochastic regime.
# Emission spectrum was computed for: 
# Type: IRSF
# Scales: 0.25 0.5 1 1.5 2 2.5 3 3.5 4 4.5 5 5.5 6 6.5 7 7.5 8 8.5 9 9.5 10
# StochasticallyHeated: 0 0 0 0 0 0 0 0 0 0 0 0 0 0 0 0 0 0 0 0 0
# Temperature: -1
# Wavelength  CExt  CAbs  CSca  Albedo G EqEm1 StEm1 EqEm2 StEm2 EqEm3 StEm3 EqEm4 StEm4 EqEm5 StEm5 EqEm6 StEm6 EqEm7 StEm7 EqEm8 StEm8 EqEm9 StEm9 EqEm10 StEm10 EqEm11 StEm11 EqEm12 StEm12 EqEm13 StEm13 EqEm14 StEm14 EqEm15 StEm15 EqEm16 StEm16 EqEm17 StEm17 EqEm18 StEm18 EqEm19 StEm19 EqEm20 StEm20 EqEm21 StEm21
0.05 2.10627e-08 7.839e-09 1.32237e-08 0.627826 0.00576547 0 0 0 0 0 0 0 0 0 0 0 0 0 0 0 0 0 0 0 0 0 0 0 0 0 0 0 0 0 0 0 0 0 0 0 0 0 0 0 0 0 0
0.0525665 2.32805e-08 8.66441e-09 1.46161e-08 0.627826 0.00637255 0 0 0 0 0 0 0 0 0 0 0 0 0 0 0 0 0 0 0 0 0 0 0 0 0 0 0 0 0 0 0 0 0 0 0 0 0 0 0 0 0 0
0.0552647 2.57318e-08 9.57673e-09 1.61551e-08 0.627826 0.00704355 0 0 0 0 0 0 0 0 0 0 0 0 0 0 0 0 0 0 0 0 0 0 0 0 0 0 0 0 0 0 0 0 0 0 0 0 0 0 0 0 0 0
0.0581015 2.84413e-08 1.05851e-08 1.78562e-08 0.627826 0.0077852 0 0 0 0 0 0 0 0 0 0 0 0 0 0 0 0 0 0 0 0 0 0 0 0 0 0 0 0 0 0 0 0 0 0 0 0 0 0 0 0 0 0
0.0610839 3.1436e-08 1.16997e-08 1.97363e-08 0.627826 0.00860494 0 0 0 0 0 0 0 0 0 0 0 0 0 0 0 0 0 0 0 0 0 0 0 0 0 0 0 0 0 0 0 0 0 0 0 0 0 0 0 0 0 0
0.0642193 3.4746e-08 1.29316e-08 2.18145e-08 0.627826 0.009511 0 0 0 0 0 0 0 0 0 0 0 0 0 0 0 0 0 0 0 0 0 0 0 0 0 0 0 0 0 0 0 0 0 0 0 0 0 0 0 0 0 0
0.0675157 3.84046e-08 1.42932e-08 2.41114e-08 0.627826 0.0105125 0 0 0 0 0 0 0 0 0 0 0 0 0 0 0 0 0 0 0 0 0 0 0 0 0 0 0 0 0 0 0 0 0 0 0 0 0 0 0 0 0 0
0.0709813 4.24484e-08 1.57982e-08 2.66502e-08 0.627826 0.0116194 0 0 0 0 0 0 0 0 0 0 0 0 0 0 0 0 0 0 0 0 0 0 0 0 0 0 0 0 0 0 0 0 0 0 0 0 0 0 0 0 0 0
0.0746248 4.69181e-08 1.74617e-08 2.94564e-08 0.627826 0.0128428 0 0 0 0 0 0 0 0 0 0 0 0 0 0 0 0 0 0 0 0 0 0 0 0 0 0 0 0 0 0 0 0 0 0 0 0 0 0 0 0 0 0
0.0784553 5.18583e-08 1.93003e-08 3.2558e-08 0.627826 0.0141951 0 0 0 0 0 0 0 0 0 0 0 0 0 0 0 0 0 0 0 0 0 0 0 0 0 0 0 0 0 0 0 0 0 0 0 0 0 0 0 0 0 0
0.0824824 5.73187e-08 2.13326e-08 3.59862e-08 0.627826 0.0156898 0 0 0 0 0 0 0 0 0 0 0 0 0 0 0 0 0 0 0 0 0 0 0 0 0 0 0 0 0 0 0 0 0 0 0 0 0 0 0 0 0 0
0.0867162 6.33542e-08 2.35788e-08 3.97754e-08 0.627826 0.0173419 0 0 0 0 0 0 0 0 0 0 0 0 0 0 0 0 0 0 0 0 0 0 0 0 0 0 0 0 0 0 0 0 0 0 0 0 0 0 0 0 0 0
0.0911674 7.0025e-08 2.60615e-08 4.39635e-08 0.627826 0.0191679 0 0 0 0 0 0 0 0 0 0 0 0 0 0 0 0 0 0 0 0 0 0 0 0 0 0 0 0 0 0 0 0 0 0 0 0 0 0 0 0 0 0
0.095847 7.73983e-08 2.88057e-08 4.85927e-08 0.627826 0.0211862 0 0 0 0 0 0 0 0 0 0 0 0 0 0 0 0 0 0 0 0 0 0 0 0 0 0 0 0 0 0 0 0 0 0 0 0 0 0 0 0 0 0
0.100767 8.42369e-08 3.15969e-08 5.264e-08 0.624904 0.0235692 0 0 0 0 0 0 0 0 0 0 0 0 0 0 0 0 0 0 0 0 0 0 0 0 0 0 0 0 0 0 0 0 0 0 0 0 0 0 0 0 0 0
0.105939 8.42017e-08 3.29579e-08 5.12439e-08 0.608584 0.0256046 0 0 0 0 0 0 0 0 0 0 0 0 0 0 0 0 0 0 0 0 0 0 0 0 0 0 0 0 0 0 0 0 0 0 0 0 0 0 0 0 0 0
0.111377 8.42993e-08 3.33056e-08 5.09937e-08 0.604912 0.0289403 0 0 0 0 0 0 0 0 0 0 0 0 0 0 0 0 0 0 0 0 0 0 0 0 0 0 0 0 0 0 0 0 0 0 0 0 0 0 0 0 0 0
0.117094 8.42649e-08 3.44513e-08 4.98136e-08 0.591155 0.0274507 0 0 0 0 0 0 0 0 0 0 0 0 0 0 0 0 0 0 0 0 0 0 0 0 0 0 0 0 0 0 0 0 0 0 0 0 0 0 0 0 0 0
0.123105 8.43185e-08 3.58018e-08 4.85167e-08 0.575398 0.0236555 0 0 0 0 0 0 0 0 0 0 0 0 0 0 0 0 0 0 0 0 0 0 0 0 0 0 0 0 0 0 0 0 0 0 0 0 0 0 0 0 0 0
0.129424 8.44385e-08 3.68631e-08 4.75753e-08 0.563432 0.0199126 0 0 0 0 0 0 0 0 0 0 0 0 0 0 0 0 0 0 0 0 0 0 0 0 0 0 0 0 0 0 0 0 0 0 0 0 0 0 0 0 0 0
0.136067 8.45667e-08 3.77233e-08 4.68434e-08 0.553922 0.0168557 0 0 0 0 0 0 0 0 0 0 0 0 0 0 0 0 0 0 0 0 0 0 0 0 0 0 0 0 0 0 0 0 0 0 0 0 0 0 0 0 0 0
0.143051 8.46774e-08 3.84545e-08 4.62229e-08 0.545871 0.0143876 0 0 0 0 0 0 0 0 0 0 0 0 0 0 0 0 0 0 0 0 0 0 0 0 0 0 0 0 0 0 0 0 0 0 0 0 0 0 0 0 0 0
0.150394 8.47331e-08 3.90531e-08 4.568e-08 0.539105 0.0122986 0 0 0 0 0 0 0 0 0 0 0 0 0 0 0 0 0 0 0 0 0 0 0 0 0 0 0 0 0 0 0 0 0 0 0 0 0 0 0 0 0 0
0.158114 8.46802e-08 3.94274e-08 4.52529e-08 0.534397 0.01055 0 0 0 0 0 0 0 0 0 0 0 0 0 0 0 0 0 0 0 0 0 0 0 0 0 0 0 0 0 0 0 0 0 0 0 0 0 0 0 0 0 0
0.16623 8.45171e-08 3.9381e-08 4.51361e-08 0.534047 0.00908216 0 0 0 0 0 0 0 0 0 0 0 0 0 0 0 0 0 0 0 0 0 0 0 0 0 0 0 0 0 0 0 0 0 0 0 0 0 0 0 0 0 0
0.174762 8.43811e-08 3.87659e-08 4.56152e-08 0.540586 0.00782097 0 0 0 0 0 0 0 0 0 0 0 0 0 0 0 0 0 0 0 0 0 0 0 0 0 0 0 0 0 0 0 0 0 0 0 0 0 0 0 0 0 0
0.183733 8.44951e-08 3.7459e-08 4.70361e-08 0.556673 0.00667218 0 0 0 0 0 0 0 0 0 0 0 0 0 0 0 0 0 0 0 0 0 0 0 0 0 0 0 0 0 0 0 0 0 0 0 0 0 0 0 0 0 0
0.193164 8.50585e-08 3.53637e-08 4.96948e-08 0.584243 0.00556038 0 0 0 0 0 0 0 0 0 0 0 0 0 0 0 0 0 0 0 0 0 0 0 0 0 0 0 0 0 0 0 0 0 0 0 0 0 0 0 0 0 0
0.203079 8.60039e-08 3.29187e-08 5.30852e-08 0.617242 0.00446034 0 0 0 0 0 0 0 0 0 0 0 0 0 0 0 0 0 0 0 0 0 0 0 0 0 0 0 0 0 0 0 0 0 0 0 0 0 0 0 0 0 0
0.213503 8.71596e-08 3.08343e-08 5.63253e-08 0.646232 0.00342932 0 0 0 0 0 0 0 0 0 0 0 0 0 0 0 0 0 0 0 0 0 0 0 0 0 0 0 0 0 0 0 0 0 0 0 0 0 0 0 0 0 0
0.224463 8.84014e-08 2.95736e-08 5.88278e-08 0.665462 0.00254317 0 0 0 0 0 0 0 0 0 0 0 0 0 0 0 0 0 0 0 0 0 0 0 0 0 0 0 0 0 0 0 0 0 0 0 0 0 0 0 0 0 0
0.235984 8.95399e-08 2.91318e-08 6.04081e-08 0.67465 0.00182186 0 0 0 0 0 0 0 0 0 0 0 0 0 0 0 0 0 0 0 0 0 0 0 0 0 0 0 0 0 0 0 0 0 0 0 0 0 0 0 0 0 0
0.248097 9.03125e-08 2.92325e-08 6.108e-08 0.676318 0.00138916 0 0 0 0 0 0 0 0 0 0 0 0 0 0 0 0 0 0 0 0 0 0 0 0 0 0 0 0 0 0 0 0 0 0 0 0 0 0 0 0 0 0
0.260832 9.0488e-08 2.97032e-08 6.07848e-08 0.671744 0.00141961 0 0 0 0 0 0 0 0 0 0 0 0 0 0 0 0 0 0 0 0 0 0 0 0 0 0 0 0 0 0 0 0 0 0 0 0 0 0 0 0 0 0
0.274221 9.01256e-08 3.05553e-08 5.95704e-08 0.66097 0.00187131 0 0 0 0 0 0 0 0 0 0 0 0 0 0 0 0 0 0 0 0 0 0 0 0 0 0 0 0 0 0 0 0 0 0 0 0 0 0 0 0 0 0
0.288297 8.96446e-08 3.17696e-08 5.7875e-08 0.645605 0.00251556 0 0 0 0 0 0 0 0 0 0 0 0 0 0 0 0 0 0 0 0 0 0 0 0 0 0 0 0 0 0 0 0 0 0 0 0 0 0 0 0 0 0
0.303095 8.93986e-08 3.30935e-08 5.63051e-08 0.62982 0.0028362 0 0 0 0 0 0 0 0 0 0 0 0 0 0 0 0 0 0 0 0 0 0 0 0 0 0 0 0 0 0 0 0 0 0 0 0 0 0 0 0 0 0
0.318653 8.94117e-08 3.42735e-08 5.51381e-08 0.616677 0.00297223 0 0 0 0 0 0 0 0 0 0 0 0 0 0 0 0 0 0 0 0 0 0 0 0 0 0 0 0 0 0 0 0 0 0 0 0 0 0 0 0 0 0
0.335009 8.9598e-08 3.52141e-08 5.4384e-08 0.606977 0.00293231 0 0 0 0 0 0 0 0 0 0 0 0 0 0 0 0 0 0 0 0 0 0 0 0 0 0 0 0 0 0 0 0 0 0 0 0 0 0 0 0 0 0
0.352205 8.98779e-08 3.59178e-08 5.39601e-08 0.600371 0.00278811 0 0 0 0 0 0 0 0 0 0 0 0 0 0 0 0 0 0 0 0 0 0 0 0 0 0 0 0 0 0 0 0 0 0 0 0 0 0 0 0 0 0
0.370284 9.02114e-08 3.64259e-08 5.37855e-08 0.596216 0.00261033 0 0 0 0 0 0 0 0 0 0 0 0 0 0 0 0 0 0 0 0 0 0 0 0 0 0 0 0 0 0 0 0 0 0 0 0 0 0 0 0 0 0
0.389291 9.05742e-08 3.67866e-08 5.37876e-08 0.593851 0.00243645 0 0 0 0 0 0 0 0 0 0 0 0 0 0 0 0 0 0 0 0 0 0 0 0 0 0 0 0 0 0 0 0 0 0 0 0 0 0 0 0 0 0
0.409273 9.09516e-08 3.70562e-08 5.38954e-08 0.592572 0.00226652 0 0 0 0 0 0 0 0 0 0 0 0 0 0 0 0 0 0 0 0 0 0 0 0 0 0 0 0 0 0 0 0 0 0 0 0 0 0 0 0 0 0
0.430281 9.13314e-08 3.72799e-08 5.40514e-08 0.591817 0.00210471 0 0 0 0 0 0 0 0 0 0 0 0 0 0 0 0 0 0 0 0 0 0 0 0 0 0 0 0 0 0 0 0 0 0 0 0 0 0 0 0 0 0
0.452368 9.17119e-08 3.74941e-08 5.42179e-08 0.591176 0.00193723 0 0 0 0 0 0 0 0 0 0 0 0 0 0 0 0 0 0 0 0 0 0 0 0 0 0 0 0 0 0 0 0 0 0 0 0 0 0 0 0 0 0
0.475588 9.20941e-08 3.77173e-08 5.43768e-08 0.590448 0.00177642 0 0 0 0 0 0 0 0 0 0 0 0 0 0 0 0 0 0 0 0 0 0 0 0 0 0 0 0 0 0 0 0 0 0 0 0 0 0 0 0 0 0
0.5 9.24787e-08 3.79567e-08 5.4522e-08 0.589563 0.00162159 0 0 0 0 0 0 0 0 0 0 0 0 0 0 0 0 0 0 0 0 0 0 0 0 0 0 0 0 0 0 0 0 0 0 0 0 0 0 0 0 0 0
0.525665 9.28761e-08 3.82139e-08 5.46622e-08 0.58855 0.0014751 0 0 0 0 0 0 0 0 0 0 0 0 0 0 0 0 0 0 0 0 0 0 0 0 0 0 0 0 0 0 0 0 0 0 0 0 0 0 0 0 0 0
0.552648 9.32873e-08 3.84828e-08 5.48045e-08 0.587481 0.00134175 0 0 0 0 0 0 0 0 0 0 0 0 0 0 0 0 0 0 0 0 0 0 0 0 0 0 0 0 0 0 0 0 0 0 0 0 0 0 0 0 0 0
0.581015 9.37165e-08 3.87574e-08 5.49591e-08 0.58644 0.00121775 0 0 0 0 0 0 0 0 0 0 0 0 0 0 0 0 0 0 0 0 0 0 0 0 0 0 0 0 0 0 0 0 0 0 0 0 0 0 0 0 0 0
0.610839 9.41639e-08 3.90317e-08 5.51323e-08 0.585492 0.00110516 0 0 0 0 0 0 0 0 0 0 0 0 0 0 0 0 0 0 0 0 0 0 0 0 0 0 0 0 0 0 0 0 0 0 0 0 0 0 0 0 0 0
0.642193 9.46317e-08 3.93e-08 5.53318e-08 0.584706 0.00100302 0 0 0 0 0 0 0 0 0 0 0 0 0 0 0 0 0 0 0 0 0 0 0 0 0 0 0 0 0 0 0 0 0 0 0 0 0 0 0 0 0 0
0.675157 9.51184e-08 3.95576e-08 5.55609e-08 0.584123 0.000910957 0 0 0 0 0 0 0 0 0 0 0 0 0 0 0 0 0 0 0 0 0 0 0 0 0 0 0 0 0 0 0 0 0 0 0 0 0 0 0 0 0 0
0.709813 9.56228e-08 3.98029e-08 5.58199e-08 0.583751 0.00082817 0 0 0 0 0 0 0 0 0 0 0 0 0 0 0 0 0 0 0 0 0 0 0 0 0 0 0 0 0 0 0 0 0 0 0 0 0 0 0 0 0 0
0.746248 9.61421e-08 4.00305e-08 5.61115e-08 0.583631 0.000754183 0 0 0 0 0 0 0 0 0 0 0 0 0 0 0 0 0 0 0 0 0 0 0 0 0 0 0 0 0 0 0 0 0 0 0 0 0 0 0 0 0 0
0.784553 9.66787e-08 4.02458e-08 5.64329e-08 0.583716 0.000686995 0 0 0 0 0 0 0 0 0 0 0 0 0 0 0 0 0 0 0 0 0 0 0 0 0 0 0 0 0 0 0 0 0 0 0 0 0 0 0 0 0 0
0.824824 9.72246e-08 4.04407e-08 5.67839e-08 0.584049 0.000626788 0 0 0 0 0 0 0 0 0 0 0 0 0 0 0 0 0 0 0 0 0 0 0 0 0 0 0 0 0 0 0 0 0 0 0 0 0 0 0 0 0 0
0.867162 9.77846e-08 4.06244e-08 5.71602e-08 0.584552 0.000572518 0 0 0 0 0 0 0 0 0 0 0 0 0 0 0 0 0 0 0 0 0 0 0 0 0 0 0 0 0 0 0 0 0 0 0 0 0 0 0 0 0 0
0.911674 9.83459e-08 4.07877e-08 5.75582e-08 0.585263 0.000523427 0 0 0 0 0 0 0 0 0 0 0 0 0 0 0 0 0 0 0 0 0 0 0 0 0 0 0 0 0 0 0 0 0 0 0 0 0 0 0 0 0 0
0.95847 9.89179e-08 4.09432e-08 5.79746e-08 0.586089 0.00047944 0 0 0 0 0 0 0 0 0 0 0 0 0 0 0 0 0 0 0 0 0 0 0 0 0 0 0 0 0 0 0 0 0 0 0 0 0 0 0 0 0 0
1.00767 9.94824e-08 4.10799e-08 5.84025e-08 0.587064 0.0004395 0 0 0 0 0 0 0 0 0 0 0 0 0 0 0 0 0 0 0 0 0 0 0 0 0 0 0 0 0 0 0 0 0 0 0 0 0 0 0 0 0 0
1.05939 1.00055e-07 4.12088e-08 5.88458e-08 0.588137 0.000403275 0 0 0 0 0 0 0 0 0 0 0 0 0 0 0 0 0 0 0 0 0 0 0 0 0 0 0 0 0 0 0 0 0 0 0 0 0 0 0 0 0 0
1.11377 1.00627e-07 4.1335e-08 5.92915e-08 0.589224 0.000370298 0 0 0 0 0 0 0 0 0 0 0 0 0 0 0 0 0 0 0 0 0 0 0 0 0 0 0 0 0 0 0 0 0 0 0 0 0 0 0 0 0 0
1.17094 1.01176e-07 4.14373e-08 5.97391e-08 0.590445 0.000339515 0 0 0 0 0 0 0 0 0 0 0 0 0 0 0 0 0 0 0 0 0 0 0 0 0 0 0 0 0 0 0 0 0 0 0 0 0 0 0 0 0 0
1.23105 1.01745e-07 4.15481e-08 6.0197e-08 0.591645 0.000311294 0 0 0 0 0 0 0 0 0 0 0 0 0 0 0 0 0 0 0 0 0 0 0 0 0 0 0 0 0 0 0 0 0 0 0 0 0 0 0 0 0 0
1.29424 1.02301e-07 4.16641e-08 6.06366e-08 0.592729 0.000285362 0 0 0 0 0 0 0 0 0 0 0 0 0 0 0 0 0 0 0 0 0 0 0 0 0 0 0 0 0 0 0 0 0 0 0 0 0 0 0 0 0 0
1.36067 1.02819e-07 4.17501e-08 6.1069e-08 0.593946 0.000261742 0 0 0 0 0 0 0 0 0 0 0 0 0 0 0 0 0 0 0 0 0 0 0 0 0 0 0 0 0 0 0 0 0 0 0 0 0 0 0 0 0 0
1.43051 1.03361e-07 4.18438e-08 6.15169e-08 0.595167 0.000240209 0 0 0 0 0 0 0 0 0 0 0 0 0 0 0 0 0 0 0 0 0 0 0 0 0 0 0 0 0 0 0 0 0 0 0 0 0 0 0 0 0 0
1.50394 1.03923e-07 4.1976e-08 6.19473e-08 0.596087 0.000220279 0 0 0 0 0 0 0 0 0 0 0 0 0 0 0 0 0 0 0 0 0 0 0 0 0 0 0 0 0 0 0 0 0 0 0 0 0 0 0 0 0 0
1.58114 1.04427e-07 4.20941e-08 6.23331e-08 0.596905 0.000201732 0 0 0 0 0 0 0 0 0 0 0 0 0 0 0 0 0 0 0 0 0 0 0 0 0 0 0 0 0 0 0 0 0 0 0 0 0 0 0 0 0 0
1.6623 1.04886e-07 4.21667e-08 6.27188e-08 0.597974 0.000184534 0 0 0 0 0 0 0 0 0 0 0 0 0 0 0 0 0 0 0 0 0 0 0 0 0 0 0 0 0 0 0 0 0 0 0 0 0 0 0 0 0 0
1.74763 1.05414e-07 4.22719e-08 6.31418e-08 0.598991 0.000169005 0 0 0 0 0 0 0 0 0 0 0 0 0 0 0 0 0 0 0 0 0 0 0 0 0 0 0 0 0 0 0 0 0 0 0 0 0 0 0 0 0 0
1.83733 1.06e-07 4.24584e-08 6.35414e-08 0.599448 0.000154804 0 0 0 0 0 0 0 0 0 0 0 0 0 0 0 0 0 0 0 0 0 0 0 0 0 0 0 0 0 0 0 0 0 0 0 0 0 0 0 0 0 0
1.93164 1.06507e-07 4.26516e-08 6.38549e-08 0.59954 0.000141793 0 0 0 0 0 0 0 0 0 0 0 0 0 0 0 0 0 0 0 0 0 0 0 0 0 0 0 0 0 0 0 0 0 0 0 0 0 0 0 0 0 0
2.03079 1.06888e-07 4.27677e-08 6.41198e-08 0.599881 0.000129725 0 0 0 0 0 0 0 0 0 0 0 0 0 0 0 0 0 0 0 0 0 0 0 0 0 0 0 0 0 0 0 0 0 0 0 0 0 0 0 0 0 0
2.13503 1.07279e-07 4.28428e-08 6.44361e-08 0.600641 0.000118657 0 0 0 0 0 0 0 0 0 0 0 0 0 0 0 0 0 0 0 0 0 0 0 0 0 0 0 0 0 0 0 0 0 0 0 0 0 0 0 0 0 0
2.24463 1.07843e-07 4.30117e-08 6.48314e-08 0.601164 0.000108569 0 0 0 0 0 0 0 0 0 0 0 0 0 0 0 0 0 0 0 0 0 0 0 0 0 0 0 0 0 0 0 0 0 0 0 0 0 0 0 0 0 0
2.35984 1.08536e-07 4.33241e-08 6.52117e-08 0.600831 9.92926e-05 0 0 0 0 0 0 0 0 0 0 0 0 0 0 0 0 0 0 0 0 0 0 0 0 0 0 0 0 0 0 0 0 0 0 0 0 0 0 0 0 0 0
2.48097 1.09137e-07 4.36893e-08 6.5448e-08 0.599685 9.07218e-05 0 0 0 0 0 0 0 0 0 0 0 0 0 0 0 0 0 0 0 0 0 0 0 0 0 0 0 0 0 0 0 0 0 0 0 0 0 0 0 0 0 0
2.60832 1.09489e-07 4.39708e-08 6.55182e-08 0.5984 8.27967e-05 0 0 0 0 0 0 0 0 0 0 0 0 0 0 0 0 0 0 0 0 0 0 0 0 0 0 0 0 0 0 0 0 0 0 0 0 0 0 0 0 0 0
2.74221 1.09648e-07 4.41099e-08 6.55382e-08 0.597714 7.55862e-05 0 0 0 0 0 0 0 0 0 0 0 0 0 0 0 0 0 0 0 0 0 0 0 0 0 0 0 0 0 0 0 0 0 0 0 0 0 0 0 0 0 0
2.88297 1.09862e-07 4.4193e-08 6.5669e-08 0.597741 6.90729e-05 0 0 0 0 0 0 0 0 0 0 0 0 0 0 0 0 0 0 0 0 0 0 0 0 0 0 0 0 0 0 0 0 0 0 0 0 0 0 0 0 0 0
3.03095 1.10374e-07 4.43829e-08 6.59914e-08 0.597887 6.31538e-05 0 0 0 0 0 0 0 0 0 0 0 0 0 0 0 0 0 0 0 0 0 0 0 0 0 0 0 0 0 0 0 0 0 0 0 0 0 0 0 0 0 0
3.18653 1.1123e-07 4.47929e-08 6.64372e-08 0.597296 5.76567e-05 0 0 0 0 0 0 0 0 0 0 0 0 0 0 0 0 0 0 0 0 0 0 0 0 0 0 0 0 0 0 0 0 0 0 0 0 0 0 0 0 0 0
3.35009 1.12242e-07 4.54118e-08 6.68307e-08 0.595414 5.2603e-05 0 0 0 0 0 0 0 0 0 0 0 0 0 0 0 0 0 0 0 0 0 0 0 0 0 0 0 0 0 0 0 0 0 0 0 0 0 0 0 0 0 0
3.52205 1.13114e-07 4.61264e-08 6.69875e-08 0.592213 4.80102e-05 0 0 0 0 0 0 0 0 0 0 0 0 0 0 0 0 0 0 0 0 0 0 0 0 0 0 0 0 0 0 0 0 0 0 0 0 0 0 0 0 0 0
3.70284 1.13568e-07 4.67715e-08 6.67969e-08 0.588165 4.38066e-05 0 0 0 0 0 0 0 0 0 0 0 0 0 0 0 0 0 0 0 0 0 0 0 0 0 0 0 0 0 0 0 0 0 0 0 0 0 0 0 0 0 0
3.89291 1.13498e-07 4.7204e-08 6.62937e-08 0.584097 3.9926e-05 0 0 0 0 0 0 0 0 0 0 0 0 0 0 0 0 0 0 0 0 0 0 0 0 0 0 0 0 0 0 0 0 0 0 0 0 0 0 0 0 0 0
4.09273 1.13017e-07 4.73732e-08 6.56433e-08 0.580829 3.62643e-05 0 0 0 0 0 0 0 0 0 0 0 0 0 0 0 0 0 0 0 0 0 0 0 0 0 0 0 0 0 0 0 0 0 0 0 0 0 0 0 0 0 0
4.30281 1.12472e-07 4.7364e-08 6.51084e-08 0.578883 3.29535e-05 0 0 0 0 0 0 0 0 0 0 0 0 0 0 0 0 0 0 0 0 0 0 0 0 0 0 0 0 0 0 0 0 0 0 0 0 0 0 0 0 0 0
4.52368 1.12257e-07 4.73349e-08 6.49223e-08 0.578335 2.99416e-05 0 0 0 0 0 0 0 0 0 0 0 0 0 0 0 0 0 0 0 0 0 0 0 0 0 0 0 0 0 0 0 0 0 0 0 0 0 0 0 0 0 0
4.75588 1.12652e-07 4.74567e-08 6.51949e-08 0.57873 2.71796e-05 0 0 0 0 0 0 0 0 0 0 0 0 0 0 0 0 0 0 0 0 0 0 0 0 0 0 0 0 0 0 0 0 0 0 0 0 0 0 0 0 0 0
5 1.1369e-07 4.78499e-08 6.58404e-08 0.579121 2.45398e-05 0 0 0 0 0 0 0 0 0 0 0 0 0 0 0 0 0 0 0 0 0 0 0 0 0 0 0 0 0 0 0 0 0 0 0 0 0 0 0 0 0 0
5.25665 1.15159e-07 4.85597e-08 6.65997e-08 0.578326 2.21678e-05 0 0 0 0 0 0 0 0 0 0 0 0 0 0 0 0 0 0 0 0 0 0 0 0 0 0 0 0 0 0 0 0 0 0 0 0 0 0 0 0 0 0
5.52648 1.16666e-07 4.95571e-08 6.71085e-08 0.575221 2.00489e-05 0 0 0 0 0 0 0 0 0 0 0 0 0 0 0 0 0 0 0 0 0 0 0 0 0 0 0 0 0 0 0 0 0 0 0 0 0 0 0 0 0 0
5.81015 1.17758e-07 5.07503e-08 6.70072e-08 0.569027 1.8115e-05 0 0 0 0 0 0 0 0 0 0 0 0 0 0 0 0 0 0 0 0 0 0 0 0 0 0 0 0 0 0 0 0 0 0 0 0 0 0 0 0 0 0
6.10839 1.181e-07 5.20176e-08 6.60828e-08 0.559547 1.63023e-05 0 0 0 0 0 0 0 0 0 0 0 0 0 0 0 0 0 0 0 0 0 0 0 0 0 0 0 0 0 0 0 0 0 0 0 0 0 0 0 0 0 0
6.42193 1.17429e-07 5.35493e-08 6.38802e-08 0.543988 1.48144e-05 0 0 0 0 0 0 0 0 0 0 0 0 0 0 0 0 0 0 0 0 0 0 0 0 0 0 0 0 0 0 0 0 0 0 0 0 1.4013e-45 0 2.8026e-45 0 8.40779e-45 0
6.75157 1.16361e-07 5.48974e-08 6.14633e-08 0.528214 1.32279e-05 0 0 0 0 0 0 0 0 0 0 0 0 0 0 0 0 0 0 0 0 0 0 0 0 0 0 0 0 1.4013e-45 0 7.00649e-45 0 2.24208e-44 0 7.14662e-44 0 2.08793e-43 0 5.5071e-43 0 1.42652e-42 0
7.09813 1.14965e-07 5.6441e-08 5.85235e-08 0.509057 1.18448e-05 0 0 0 0 0 0 0 0 0 0 0 0 0 0 0 0 0 0 0 0 0 0 2.8026e-45 0 1.82169e-44 0 7.9874e-44 0 3.20897e-43 0 1.12664e-42 0 3.60974e-42 0 1.09511e-41 0 3.06156e-41 0 7.69831e-41 0 1.90392e-40 0
7.46248 1.13725e-07 5.81089e-08 5.56161e-08 0.48904 1.05694e-05 0 0 0 0 0 0 0 0 0 0 0 0 0 0 0 0 1.4013e-45 0 1.4013e-44 0 1.03696e-43 0 6.10966e-43 0 2.97916e-42 0 1.2253e-41 0 4.56627e-41 0 1.50651e-40 0 4.56273e-40 0 1.31112e-39 0 3.48608e-39 0 8.38002e-39 0 1.98287e-38 0
7.84553 1.12728e-07 5.96762e-08 5.30515e-08 0.470616 9.34187e-06 0 0 0 0 0 0 0 0 0 0 0 0 1.4013e-45 0 2.38221e-44 0 2.74654e-43 0 2.36819e-42 0 1.54353e-41 0 8.309e-41 0 3.75151e-40 0 1.43976e-39 0 5.03165e-39 0 1.56606e-38 0 4.49329e-38 0 1.22631e-37 0 3.10857e-37 0 7.1593e-37 0 1.62427e-36 0
8.24824 1.11479e-07 6.06477e-08 5.08308e-08 0.455969 8.19911e-06 0 0 0 0 0 0 0 0 0 0 8.40779e-45 0 2.25609e-43 0 3.64898e-42 0 3.8034e-41 0 2.95106e-40 0 1.75541e-39 0 8.70386e-39 0 3.65098e-38 0 1.31212e-37 0 4.31384e-37 0 1.27024e-36 0 3.46173e-36 0 8.99582e-36 0 2.1791e-35 0 4.81835e-35 0 1.0503e-34 0
8.67162 1.08987e-07 6.04293e-08 4.85581e-08 0.445539 7.20916e-06 0 0 0 0 0 0 0 0 2.10195e-44 0 1.24015e-42 0 3.05287e-41 0 4.31604e-40 0 4.01203e-39 0 2.8166e-38 0 1.53573e-37 0 7.04207e-37 0 2.7542e-36 0 9.29898e-36 0 2.88462e-35 0 8.05771e-35 0 2.09103e-34 0 5.1863e-34 0 1.20319e-33 0 2.55935e-33 0 5.3706e-33 0
9.11674 1.04342e-07 5.87782e-08 4.55643e-08 0.43668 6.32492e-06 0 0 0 0 0 0 1.68156e-44 0 3.10247e-42 0 1.4914e-40 0 3.13845e-39 0 3.89871e-38 0 3.2503e-37 0 2.07473e-36 0 1.04133e-35 0 4.43285e-35 0 1.62203e-34 0 5.16059e-34 0 1.51477e-33 0 4.02429e-33 0 9.96821e-33 0 2.36512e-32 0 5.26607e-32 0 1.07964e-31 0 2.18502e-31 0
9.5847 9.77015e-08 5.62628e-08 4.14387e-08 0.424136 5.52644e-06 0 0 0 0 1.4013e-45 0 2.4859e-42 0 3.46238e-40 0 1.37756e-38 0 2.49821e-37 0 2.74416e-36 0 2.06275e-35 0 1.20276e-34 0 5.57955e-34 0 2.21298e-33 0 7.60061e-33 0 2.28532e-32 0 6.36448e-32 0 1.61208e-31 0 3.82015e-31 0 8.68954e-31 0 1.86062e-30 0 3.68319e-30 0 7.202e-30 0
10.0767 9.03727e-08 5.4021e-08 3.63517e-08 0.402242 4.78203e-06 0 0 0 0 2.46629e-43 0 2.77254e-40 0 3.03478e-38 0 1.00869e-36 0 1.58792e-35 0 1.55166e-34 0 1.05697e-33 0 5.65468e-33 0 2.43383e-32 0 9.02514e-32 0 2.91851e-31 0 8.31604e-31 0 2.203e-30 0 5.33252e-30 0 1.21153e-29 0 2.64742e-29 0 5.46183e-29 0 1.04575e-28 0 1.97895e-28 0
10.5939 8.39514e-08 5.30267e-08 3.09247e-08 0.368364 4.06995e-06 0 0 0 0 3.10598e-41 0 2.47607e-38 0 2.15501e-36 0 6.03651e-35 0 8.30641e-34 0 7.26182e-33 0 4.5043e-32 0 2.22031e-31 0 8.89912e-31 0 3.09543e-30 0 9.45241e-30 0 2.55915e-29 0 6.46452e-29 0 1.49868e-28 0 3.27121e-28 0 6.88055e-28 0 1.3702e-27 0 2.54155e-27 0 4.66212e-27 0
11.1377 7.9304e-08 5.35795e-08 2.57245e-08 0.324378 3.40803e-06 0 0 2.10195e-44 0 3.13601e-39 0 1.80413e-36 0 1.26256e-34 0 3.00555e-33 0 3.63881e-32 0 2.86165e-31 0 1.62368e-30 0 7.40393e-30 0 2.77306e-29 0 9.07614e-29 0 2.62453e-28 0 6.76839e-28 0 1.6341e-27 0 3.63598e-27 0 7.63958e-27 0 1.5496e-26 0 2.98381e-26 0 5.37016e-26 0 9.56329e-26 0
11.7094 7.34558e-08 5.23393e-08 2.11165e-08 0.287472 2.82232e-06 0 0 2.9133e-42 0 2.41511e-37 0 1.01878e-34 0 5.79404e-33 0 1.18152e-31 0 1.26647e-30 0 9.00585e-30 0 4.69463e-29 0 1.98788e-28 0 6.98049e-28 0 2.15619e-27 0 5.92e-27 0 1.4577e-26 0 3.37109e-26 0 7.21365e-26 0 1.46171e-25 0 2.86426e-25 0 5.34162e-25 0 9.34174e-25 0 1.61738e-24 0
12.3105 7.03569e-08 5.33205e-08 1.70364e-08 0.242143 2.20615e-06 1.4013e-45 0 3.24616e-40 0 1.54818e-35 0 4.86174e-33 0 2.26994e-31 0 3.9952e-30 0 3.81416e-29 0 2.46452e-28 0 1.18522e-27 0 4.67719e-27 0 1.54471e-26 0 4.5158e-26 0 1.18019e-25 0 2.78094e-25 0 6.17331e-25 0 1.27284e-24 0 2.49174e-24 0 4.72488e-24 0 8.54745e-24 0 1.45459e-23 0 2.4518e-23 0
12.9424 6.41984e-08 5.06906e-08 1.35079e-08 0.210408 1.60871e-06 2.76056e-43 0 2.65162e-38 0 7.47378e-34 0 1.77255e-31 0 6.85998e-30 0 1.04963e-28 0 8.97544e-28 0 5.29451e-27 0 2.35826e-26 0 8.70299e-26 0 2.71143e-25 0 7.52209e-25 0 1.8758e-24 0 4.23889e-24 0 9.05041e-24 0 1.80127e-23 0 3.41245e-23 0 6.27173e-23 0 1.10221e-22 0 1.82765e-22 0 3.00308e-22 0
