# 2.3714e-05 1 113 : grain size, compostion index, size index
# Heating and cooling timescale: 0.0154511 2.50268e+06
# Ratio of heating to cooling to determine stochastic cutoff: 100
# Equilibrium emission is recorded even for those grains in the stochastic regime.
# Emission spectrum was computed for: 
# Type: IRSF
# Scales: 0.25 0.5 1 1.5 2 2.5 3 3.5 4 4.5 5 5.5 6 6.5 7 7.5 8 8.5 9 9.5 10
# StochasticallyHeated: 0 0 0 0 0 0 0 0 0 0 0 0 0 0 0 0 0 0 0 0 0
# Temperature: -1
# Wavelength  CExt  CAbs  CSca  Albedo G EqEm1 StEm1 EqEm2 StEm2 EqEm3 StEm3 EqEm4 StEm4 EqEm5 StEm5 EqEm6 StEm6 EqEm7 StEm7 EqEm8 StEm8 EqEm9 StEm9 EqEm10 StEm10 EqEm11 StEm11 EqEm12 StEm12 EqEm13 StEm13 EqEm14 StEm14 EqEm15 StEm15 EqEm16 StEm16 EqEm17 StEm17 EqEm18 StEm18 EqEm19 StEm19 EqEm20 StEm20 EqEm21 StEm21
0.05 1.02685e-09 4.67801e-10 5.5905e-10 0.544432 0.212823 0 0 0 0 0 0 0 0 0 0 0 0 0 0 0 0 0 0 0 0 0 0 0 0 0 0 0 0 0 0 0 0 0 0 0 0 0 0 0 0 0 0
0.0525665 1.13497e-09 5.17058e-10 6.17915e-10 0.544432 0.235233 0 0 0 0 0 0 0 0 0 0 0 0 0 0 0 0 0 0 0 0 0 0 0 0 0 0 0 0 0 0 0 0 0 0 0 0 0 0 0 0 0 0
0.0552647 1.25448e-09 5.71502e-10 6.82979e-10 0.544432 0.260002 0 0 0 0 0 0 0 0 0 0 0 0 0 0 0 0 0 0 0 0 0 0 0 0 0 0 0 0 0 0 0 0 0 0 0 0 0 0 0 0 0 0
0.0581015 1.38657e-09 6.31678e-10 7.54893e-10 0.544432 0.287378 0 0 0 0 0 0 0 0 0 0 0 0 0 0 0 0 0 0 0 0 0 0 0 0 0 0 0 0 0 0 0 0 0 0 0 0 0 0 0 0 0 0
0.0610839 1.53257e-09 6.98191e-10 8.3438e-10 0.544432 0.317638 0 0 0 0 0 0 0 0 0 0 0 0 0 0 0 0 0 0 0 0 0 0 0 0 0 0 0 0 0 0 0 0 0 0 0 0 0 0 0 0 0 0
0.0642193 1.69394e-09 7.71707e-10 9.22236e-10 0.544432 0.351084 0 0 0 0 0 0 0 0 0 0 0 0 0 0 0 0 0 0 0 0 0 0 0 0 0 0 0 0 0 0 0 0 0 0 0 0 0 0 0 0 0 0
0.0675157 1.87231e-09 8.52964e-10 1.01934e-09 0.544432 0.388051 0 0 0 0 0 0 0 0 0 0 0 0 0 0 0 0 0 0 0 0 0 0 0 0 0 0 0 0 0 0 0 0 0 0 0 0 0 0 0 0 0 0
0.0709813 2.06945e-09 9.42776e-10 1.12667e-09 0.544432 0.428911 0 0 0 0 0 0 0 0 0 0 0 0 0 0 0 0 0 0 0 0 0 0 0 0 0 0 0 0 0 0 0 0 0 0 0 0 0 0 0 0 0 0
0.0746248 2.28735e-09 1.04205e-09 1.24531e-09 0.544432 0.474073 0 0 0 0 0 0 0 0 0 0 0 0 0 0 0 0 0 0 0 0 0 0 0 0 0 0 0 0 0 0 0 0 0 0 0 0 0 0 0 0 0 0
0.0784553 2.5282e-09 1.15177e-09 1.37643e-09 0.544432 0.523991 0 0 0 0 0 0 0 0 0 0 0 0 0 0 0 0 0 0 0 0 0 0 0 0 0 0 0 0 0 0 0 0 0 0 0 0 0 0 0 0 0 0
0.0824824 2.79441e-09 1.27304e-09 1.52136e-09 0.544432 0.579165 0 0 0 0 0 0 0 0 0 0 0 0 0 0 0 0 0 0 0 0 0 0 0 0 0 0 0 0 0 0 0 0 0 0 0 0 0 0 0 0 0 0
0.0867162 3.08865e-09 1.40709e-09 1.68156e-09 0.544432 0.640148 0 0 0 0 0 0 0 0 0 0 0 0 0 0 0 0 0 0 0 0 0 0 0 0 0 0 0 0 0 0 0 0 0 0 0 0 0 0 0 0 0 0
0.0911674 3.41387e-09 1.55525e-09 1.85862e-09 0.544432 0.707553 0 0 0 0 0 0 0 0 0 0 0 0 0 0 0 0 0 0 0 0 0 0 0 0 0 0 0 0 0 0 0 0 0 0 0 0 0 0 0 0 0 0
0.095847 3.77333e-09 1.71901e-09 2.05432e-09 0.544432 0.782055 0 0 0 0 0 0 0 0 0 0 0 0 0 0 0 0 0 0 0 0 0 0 0 0 0 0 0 0 0 0 0 0 0 0 0 0 0 0 0 0 0 0
0.100767 4.11127e-09 1.87428e-09 2.23699e-09 0.544112 0.851171 0 0 0 0 0 0 0 0 0 0 0 0 0 0 0 0 0 0 0 0 0 0 0 0 0 0 0 0 0 0 0 0 0 0 0 0 0 0 0 0 0 0
0.105939 4.13669e-09 1.89419e-09 2.2425e-09 0.542099 0.853624 0 0 0 0 0 0 0 0 0 0 0 0 0 0 0 0 0 0 0 0 0 0 0 0 0 0 0 0 0 0 0 0 0 0 0 0 0 0 0 0 0 0
0.111377 4.16172e-09 1.91514e-09 2.24658e-09 0.53982 0.857101 0 0 0 0 0 0 0 0 0 0 0 0 0 0 0 0 0 0 0 0 0 0 0 0 0 0 0 0 0 0 0 0 0 0 0 0 0 0 0 0 0 0
0.117094 4.1864e-09 1.9357e-09 2.2507e-09 0.537621 0.85888 0 0 0 0 0 0 0 0 0 0 0 0 0 0 0 0 0 0 0 0 0 0 0 0 0 0 0 0 0 0 0 0 0 0 0 0 0 0 0 0 0 0
0.123105 4.21009e-09 1.95828e-09 2.25181e-09 0.53486 0.8595 0 0 0 0 0 0 0 0 0 0 0 0 0 0 0 0 0 0 0 0 0 0 0 0 0 0 0 0 0 0 0 0 0 0 0 0 0 0 0 0 0 0
0.129424 4.23249e-09 1.98248e-09 2.25001e-09 0.531605 0.859087 0 0 0 0 0 0 0 0 0 0 0 0 0 0 0 0 0 0 0 0 0 0 0 0 0 0 0 0 0 0 0 0 0 0 0 0 0 0 0 0 0 0
0.136067 4.25626e-09 2.00414e-09 2.25211e-09 0.52913 0.85745 0 0 0 0 0 0 0 0 0 0 0 0 0 0 0 0 0 0 0 0 0 0 0 0 0 0 0 0 0 0 0 0 0 0 0 0 0 0 0 0 0 0
0.143051 4.2801e-09 2.03087e-09 2.24923e-09 0.525508 0.853779 0 0 0 0 0 0 0 0 0 0 0 0 0 0 0 0 0 0 0 0 0 0 0 0 0 0 0 0 0 0 0 0 0 0 0 0 0 0 0 0 0 0
0.150394 4.30431e-09 2.06574e-09 2.23857e-09 0.520076 0.853218 0 0 0 0 0 0 0 0 0 0 0 0 0 0 0 0 0 0 0 0 0 0 0 0 0 0 0 0 0 0 0 0 0 0 0 0 0 0 0 0 0 0
0.158114 4.33532e-09 2.10636e-09 2.22896e-09 0.51414 0.857486 0 0 0 0 0 0 0 0 0 0 0 0 0 0 0 0 0 0 0 0 0 0 0 0 0 0 0 0 0 0 0 0 0 0 0 0 0 0 0 0 0 0
0.16623 4.41845e-09 2.13823e-09 2.28022e-09 0.516067 0.863585 0 0 0 0 0 0 0 0 0 0 0 0 0 0 0 0 0 0 0 0 0 0 0 0 0 0 0 0 0 0 0 0 0 0 0 0 0 0 0 0 0 0
0.174762 4.41089e-09 2.1413e-09 2.26959e-09 0.514543 0.865452 0 0 0 0 0 0 0 0 0 0 0 0 0 0 0 0 0 0 0 0 0 0 0 0 0 0 0 0 0 0 0 0 0 0 0 0 0 0 0 0 0 0
0.183733 4.33885e-09 2.07927e-09 2.25959e-09 0.52078 0.83373 0 0 0 0 0 0 0 0 0 0 0 0 0 0 0 0 0 0 0 0 0 0 0 0 0 0 0 0 0 0 0 0 0 0 0 0 0 0 0 0 0 0
0.193164 4.49174e-09 1.97089e-09 2.52085e-09 0.561219 0.770338 0 0 0 0 0 0 0 0 0 0 0 0 0 0 0 0 0 0 0 0 0 0 0 0 0 0 0 0 0 0 0 0 0 0 0 0 0 0 0 0 0 0
0.203079 4.64735e-09 1.94107e-09 2.70628e-09 0.582328 0.766516 0 0 0 0 0 0 0 0 0 0 0 0 0 0 0 0 0 0 0 0 0 0 0 0 0 0 0 0 0 0 0 0 0 0 0 0 0 0 0 0 0 0
0.213503 4.59308e-09 1.92563e-09 2.66745e-09 0.580755 0.793109 0 0 0 0 0 0 0 0 0 0 0 0 0 0 0 0 0 0 0 0 0 0 0 0 0 0 0 0 0 0 0 0 0 0 0 0 0 0 0 0 0 0
0.224463 4.45372e-09 1.88372e-09 2.57e-09 0.577045 0.793602 0 0 0 0 0 0 0 0 0 0 0 0 0 0 0 0 0 0 0 0 0 0 0 0 0 0 0 0 0 0 0 0 0 0 0 0 0 0 0 0 0 0
0.235984 4.3324e-09 1.85365e-09 2.47875e-09 0.572142 0.762544 0 0 0 0 0 0 0 0 0 0 0 0 0 0 0 0 0 0 0 0 0 0 0 0 0 0 0 0 0 0 0 0 0 0 0 0 0 0 0 0 0 0
0.248097 4.31556e-09 1.80373e-09 2.51183e-09 0.58204 0.718189 0 0 0 0 0 0 0 0 0 0 0 0 0 0 0 0 0 0 0 0 0 0 0 0 0 0 0 0 0 0 0 0 0 0 0 0 0 0 0 0 0 0
0.260832 4.43597e-09 1.79601e-09 2.63996e-09 0.595126 0.598303 0 0 0 0 0 0 0 0 0 0 0 0 0 0 0 0 0 0 0 0 0 0 0 0 0 0 0 0 0 0 0 0 0 0 0 0 0 0 0 0 0 0
0.274221 4.61974e-09 1.73808e-09 2.88165e-09 0.62377 0.536407 0 0 0 0 0 0 0 0 0 0 0 0 0 0 0 0 0 0 0 0 0 0 0 0 0 0 0 0 0 0 0 0 0 0 0 0 0 0 0 0 0 0
0.288297 4.97048e-09 1.70394e-09 3.26654e-09 0.657188 0.440491 0 0 0 0 0 0 0 0 0 0 0 0 0 0 0 0 0 0 0 0 0 0 0 0 0 0 0 0 0 0 0 0 0 0 0 0 0 0 0 0 0 0
0.303095 5.27424e-09 1.66895e-09 3.60529e-09 0.683565 0.468858 0 0 0 0 0 0 0 0 0 0 0 0 0 0 0 0 0 0 0 0 0 0 0 0 0 0 0 0 0 0 0 0 0 0 0 0 0 0 0 0 0 0
0.318653 5.61352e-09 1.62361e-09 3.98992e-09 0.710768 0.483895 0 0 0 0 0 0 0 0 0 0 0 0 0 0 0 0 0 0 0 0 0 0 0 0 0 0 0 0 0 0 0 0 0 0 0 0 0 0 0 0 0 0
0.335009 5.98819e-09 1.58941e-09 4.39879e-09 0.734577 0.505584 0 0 0 0 0 0 0 0 0 0 0 0 0 0 0 0 0 0 0 0 0 0 0 0 0 0 0 0 0 0 0 0 0 0 0 0 0 0 0 0 0 0
0.352205 6.26462e-09 1.54337e-09 4.72126e-09 0.753637 0.581347 0 0 0 0 0 0 0 0 0 0 0 0 0 0 0 0 0 0 0 0 0 0 0 0 0 0 0 0 0 0 0 0 0 0 0 0 0 0 0 0 0 0
0.370284 6.47989e-09 1.49688e-09 4.98301e-09 0.768996 0.602873 0 0 0 0 0 0 0 0 0 0 0 0 0 0 0 0 0 0 0 0 0 0 0 0 0 0 0 0 0 0 0 0 0 0 0 0 0 0 0 0 0 0
0.389291 6.62636e-09 1.43911e-09 5.18725e-09 0.78282 0.608113 0 0 0 0 0 0 0 0 0 0 0 0 0 0 0 0 0 0 0 0 0 0 0 0 0 0 0 0 0 0 0 0 0 0 0 0 0 0 0 0 0 0
0.409273 6.70596e-09 1.38378e-09 5.32218e-09 0.793649 0.645078 0 0 0 0 0 0 0 0 0 0 0 0 0 0 0 0 0 0 0 0 0 0 0 0 0 0 0 0 0 0 0 0 0 0 0 0 0 0 0 0 0 0
0.430281 6.76391e-09 1.35815e-09 5.40576e-09 0.799206 0.674771 0 0 0 0 0 0 0 0 0 0 0 0 0 0 0 0 0 0 0 0 0 0 0 0 0 0 0 0 0 0 0 0 0 0 0 0 0 0 0 0 0 0
0.452368 6.7334e-09 1.33368e-09 5.39972e-09 0.801931 0.683941 0 0 0 0 0 0 0 0 0 0 0 0 0 0 0 0 0 0 0 0 0 0 0 0 0 0 0 0 0 0 0 0 0 0 0 0 0 0 0 0 0 0
0.475588 6.56723e-09 1.27104e-09 5.29618e-09 0.806457 0.671415 0 0 0 0 0 0 0 0 0 0 0 0 0 0 0 0 0 0 0 0 0 0 0 0 0 0 0 0 0 0 0 0 0 0 0 0 0 0 0 0 0 0
0.5 6.33974e-09 1.1862e-09 5.15354e-09 0.812894 0.660357 0 0 0 0 0 0 0 0 0 0 0 0 0 0 0 0 0 0 0 0 0 0 0 0 0 0 0 0 0 0 0 0 0 0 0 0 0 0 0 0 0 0
0.525665 6.15039e-09 1.1243e-09 5.02609e-09 0.817198 0.667071 0 0 0 0 0 0 0 0 0 0 0 0 0 0 0 0 0 0 0 0 0 0 0 0 0 0 0 0 0 0 0 0 0 0 0 0 0 0 0 0 0 0
0.552648 5.97645e-09 1.09636e-09 4.88009e-09 0.816553 0.680318 0 0 0 0 0 0 0 0 0 0 0 0 0 0 0 0 0 0 0 0 0 0 0 0 0 0 0 0 0 0 0 0 0 0 0 0 0 0 0 0 0 0
0.581015 5.71967e-09 1.07526e-09 4.64442e-09 0.812007 0.689855 0 0 0 0 0 0 0 0 0 0 0 0 0 0 0 0 0 0 0 0 0 0 0 0 0 0 0 0 0 0 0 0 0 0 0 0 0 0 0 0 0 0
0.610839 5.34625e-09 1.02987e-09 4.31638e-09 0.807365 0.684235 0 0 0 0 0 0 0 0 0 0 0 0 0 0 0 0 0 0 0 0 0 0 0 0 0 0 0 0 0 0 0 0 0 0 0 0 0 0 0 0 0 0
0.642193 4.9283e-09 9.58773e-10 3.96952e-09 0.805455 0.659271 0 0 0 0 0 0 0 0 0 0 0 0 0 0 0 0 0 0 0 0 0 0 0 0 0 0 0 0 0 0 0 0 0 0 0 0 0 0 0 0 0 0
0.675157 4.55655e-09 8.86455e-10 3.67009e-09 0.805455 0.625762 0 0 0 0 0 0 0 0 0 0 0 0 0 0 0 0 0 0 0 0 0 0 0 0 0 0 0 0 0 0 0 0 0 0 0 0 0 0 0 0 0 0
0.709813 4.2553e-09 8.31613e-10 3.42369e-09 0.80457 0.596374 0 0 0 0 0 0 0 0 0 0 0 0 0 0 0 0 0 0 0 0 0 0 0 0 0 0 0 0 0 0 0 0 0 0 0 0 0 0 0 0 0 0
0.746248 3.99226e-09 7.95729e-10 3.19653e-09 0.800682 0.578234 0 0 0 0 0 0 0 0 0 0 0 0 0 0 0 0 0 0 0 0 0 0 0 0 0 0 0 0 0 0 0 0 0 0 0 0 0 0 0 0 0 0
0.784553 3.71897e-09 7.68473e-10 2.9505e-09 0.793364 0.573896 0 0 0 0 0 0 0 0 0 0 0 0 0 0 0 0 0 0 0 0 0 0 0 0 0 0 0 0 0 0 0 0 0 0 0 0 0 0 0 0 0 0
0.824824 3.4102e-09 7.38521e-10 2.67168e-09 0.783438 0.580488 0 0 0 0 0 0 0 0 0 0 0 0 0 0 0 0 0 0 0 0 0 0 0 0 0 0 0 0 0 0 0 0 0 0 0 0 0 0 0 0 0 0
0.867162 3.06945e-09 6.98743e-10 2.3707e-09 0.772355 0.589894 0 0 0 0 0 0 0 0 0 0 0 0 0 0 0 0 0 0 0 0 0 0 0 0 0 0 0 0 0 0 0 0 0 0 0 0 0 0 0 0 0 0
0.911674 2.72204e-09 6.49847e-10 2.07219e-09 0.761264 0.59166 0 0 0 0 0 0 0 0 0 0 0 0 0 0 0 0 0 0 0 0 0 0 0 0 0 0 0 0 0 0 0 0 0 0 0 0 0 0 0 0 0 0
0.95847 2.39427e-09 5.96379e-10 1.79789e-09 0.750914 0.577646 0 0 0 0 0 0 0 0 0 0 0 0 0 0 0 0 0 0 0 0 0 0 0 0 0 0 0 0 0 0 0 0 0 0 0 0 0 0 0 0 0 0
1.00767 2.0989e-09 5.43359e-10 1.55554e-09 0.741122 0.546131 0 0 0 0 0 0 0 0 0 0 0 0 0 0 0 0 0 0 0 0 0 0 0 0 0 0 0 0 0 0 0 0 0 0 0 0 0 0 0 0 0 0
1.05939 1.85207e-09 5.0548e-10 1.34659e-09 0.727073 0.501817 0 0 0 0 0 0 0 0 0 0 0 0 0 0 0 0 0 0 0 0 0 0 0 0 0 0 0 0 0 0 0 0 0 0 0 0 0 0 0 0 0 0
1.11377 1.64371e-09 4.74499e-10 1.16921e-09 0.711325 0.451644 0 0 0 0 0 0 0 0 0 0 0 0 0 0 0 0 0 0 0 0 0 0 0 0 0 0 0 0 0 0 0 0 0 0 0 0 0 0 0 0 0 0
1.17094 1.4653e-09 4.497e-10 1.0156e-09 0.693101 0.401418 0 0 0 0 0 0 0 0 0 0 0 0 0 0 0 0 0 0 0 0 0 0 0 0 0 0 0 0 0 0 0 0 0 0 0 0 0 0 0 0 0 0
1.23105 1.30697e-09 4.28803e-10 8.7817e-10 0.671911 0.354827 0 0 0 0 0 0 0 0 0 0 0 0 0 0 0 0 0 0 0 0 0 0 0 0 0 0 0 0 0 0 0 0 0 0 0 0 0 0 0 0 0 0
1.29424 1.16498e-09 4.09588e-10 7.55391e-10 0.648416 0.313441 0 0 0 0 0 0 0 0 0 0 0 0 0 0 0 0 0 0 0 0 0 0 0 0 0 0 0 0 0 0 0 0 0 0 0 0 0 0 0 0 0 0
1.36067 1.04048e-09 3.91577e-10 6.48905e-10 0.623658 0.277441 0 0 0 0 0 0 0 0 0 0 0 0 0 0 0 0 0 0 0 0 0 0 0 0 0 0 0 0 0 0 0 0 0 0 0 0 0 0 0 0 0 0
1.43051 9.19489e-10 3.72834e-10 5.46655e-10 0.594521 0.246242 0 0 0 0 0 0 0 0 0 0 0 0 0 0 0 0 0 0 0 0 0 0 0 0 0 0 0 0 0 0 0 0 0 0 0 0 0 0 0 0 0 0
1.50394 8.15456e-10 3.55321e-10 4.60135e-10 0.564267 0.21929 0 0 0 0 0 0 0 0 0 0 0 0 0 0 0 0 0 0 0 0 0 0 0 0 0 0 0 0 0 0 0 0 0 0 0 0 0 0 0 0 0 0
1.58114 7.2459e-10 3.38965e-10 3.85626e-10 0.532198 0.195937 0 0 0 0 0 0 0 0 0 0 0 0 0 0 0 0 0 0 0 0 0 0 0 0 0 0 0 0 0 0 0 0 0 0 0 0 0 0 0 0 0 0
1.6623 6.45542e-10 3.23978e-10 3.21564e-10 0.49813 0.175512 0 0 0 0 0 0 0 0 0 0 0 0 0 0 0 0 0 0 0 0 0 0 0 0 0 0 0 0 0 0 0 0 0 0 0 0 0 0 0 0 0 0
1.74763 5.77691e-10 3.10706e-10 2.66985e-10 0.462159 0.157571 0 0 0 0 0 0 0 0 0 0 0 0 0 0 0 0 0 0 0 0 0 0 0 0 0 0 0 0 0 0 0 0 0 0 0 0 0 0 0 0 0 0
1.83733 5.20304e-10 2.99508e-10 2.20795e-10 0.424359 0.141719 0 0 0 0 0 0 0 0 0 0 0 0 0 0 0 0 0 0 0 0 0 0 0 0 0 0 0 0 0 0 0 0 0 0 0 0 0 0 0 0 0 0
1.93164 4.72515e-10 2.90511e-10 1.82004e-10 0.385182 0.127679 0 0 0 0 0 0 0 0 0 0 0 0 0 0 0 0 0 0 0 0 0 0 0 0 0 0 0 0 0 0 0 0 0 0 0 0 0 0 0 0 0 0
2.03079 4.33438e-10 2.83648e-10 1.49791e-10 0.345587 0.115171 0 0 0 0 0 0 0 0 0 0 0 0 0 0 0 0 0 0 0 0 0 0 0 0 0 0 0 0 0 0 0 0 0 0 0 0 0 0 0 0 0 0
2.13503 4.01659e-10 2.78469e-10 1.2319e-10 0.306703 0.103967 0 0 0 0 0 0 0 0 0 0 0 0 0 0 0 0 0 0 0 0 0 0 0 0 0 0 0 0 0 0 0 0 0 0 0 0 0 0 0 0 0 0
2.24463 3.7529e-10 2.74003e-10 1.01286e-10 0.269888 0.0939081 0 0 0 0 0 0 0 0 0 0 0 0 0 0 0 0 0 0 0 0 0 0 0 0 0 0 0 0 0 0 0 0 0 0 0 0 0 0 0 0 0 0
2.35984 3.5322e-10 2.69974e-10 8.32467e-11 0.235679 0.0848812 0 0 0 0 0 0 0 0 0 0 0 0 0 0 0 0 0 0 0 0 0 0 0 0 0 0 0 0 0 0 0 0 0 0 0 0 0 0 0 0 0 0
2.48097 3.35077e-10 2.66685e-10 6.83914e-11 0.204107 0.0767389 0 0 0 0 0 0 0 0 0 0 0 0 0 0 0 0 0 0 0 0 0 0 0 0 0 0 0 0 0 0 0 0 0 0 0 0 0 0 0 0 0 0
2.60832 3.20357e-10 2.64168e-10 5.61884e-11 0.175393 0.0693916 0 0 0 0 0 0 0 0 0 0 0 0 0 0 0 0 0 0 0 0 0 0 0 0 0 0 0 0 0 0 0 0 0 0 0 0 0 0 0 0 0 0
2.74221 3.08888e-10 2.62711e-10 4.61769e-11 0.149494 0.0627563 0 0 0 0 0 0 0 0 0 0 0 0 0 0 0 0 0 0 0 0 0 0 0 0 0 0 0 0 0 0 0 0 0 0 0 0 0 0 0 0 0 0
2.88297 3.00341e-10 2.62338e-10 3.8003e-11 0.126533 0.0567535 0 0 0 0 0 0 0 0 0 0 0 0 0 0 0 0 0 0 0 0 0 0 0 0 0 0 0 0 0 0 0 0 0 0 0 0 0 0 0 0 0 0
3.03095 2.94373e-10 2.6298e-10 3.13933e-11 0.106645 0.0513269 0 0 0 0 0 0 0 0 0 0 0 0 0 0 0 0 0 0 0 0 0 0 0 0 0 0 0 0 0 0 0 0 0 0 0 0 0 0 0 0 0 0
3.18653 2.8745e-10 2.61452e-10 2.59975e-11 0.0904417 0.0464132 0 0 0 0 0 0 0 0 0 0 0 0 0 0 0 0 0 0 0 0 0 0 0 0 0 0 0 0 0 0 0 0 0 0 0 0 0 0 0 0 0 0
3.35009 2.86346e-10 2.6511e-10 2.12358e-11 0.0741613 0.0419597 0 0 0 0 0 0 0 0 0 0 0 0 0 0 0 0 0 0 0 0 0 0 0 0 0 0 0 0 0 0 0 0 0 0 0 0 0 0 0 0 0 0
3.52205 2.81197e-10 2.62672e-10 1.85256e-11 0.065881 0.0379246 0 0 0 0 0 0 0 0 0 0 0 0 0 0 0 0 0 0 0 0 0 0 0 0 0 0 0 0 0 0 0 0 0 0 0 0 0 0 0 0 0 0
3.70284 2.58162e-10 2.43095e-10 1.50668e-11 0.0583619 0.0342714 0 0 0 0 0 0 0 0 0 0 0 0 0 0 0 0 0 0 0 0 0 0 0 0 0 0 0 0 0 0 0 0 0 0 0 0 0 0 0 0 0 0
3.89291 2.48539e-10 2.362e-10 1.23384e-11 0.0496437 0.0309569 0 0 0 0 0 0 0 0 0 0 0 0 0 0 0 0 0 0 0 0 0 0 0 0 0 0 0 0 0 0 0 0 0 0 0 0 0 0 0 0 0 0
4.09273 2.40702e-10 2.30591e-10 1.01112e-11 0.0420073 0.0279474 0 0 0 0 0 0 0 0 0 0 0 0 0 0 0 0 0 0 0 0 0 0 0 0 0 0 0 0 0 0 0 0 0 0 0 0 0 0 0 0 0 0
4.30281 2.3454e-10 2.26251e-10 8.28921e-12 0.0353424 0.0252169 0 0 0 0 0 0 0 0 0 0 0 0 0 0 0 0 0 0 0 0 0 0 0 0 0 0 0 0 0 0 0 0 0 0 0 0 0 0 0 0 0 0
4.52368 2.30022e-10 2.23219e-10 6.80263e-12 0.0295738 0.0227428 0 0 0 0 0 0 0 0 0 0 0 0 0 0 0 0 0 0 0 0 0 0 0 0 0 0 0 0 0 0 0 0 0 0 0 0 0 0 0 0 0 0
4.75588 2.26759e-10 2.21167e-10 5.59219e-12 0.0246614 0.0204956 0 0 0 0 0 0 0 0 0 0 0 0 0 0 0 0 0 0 0 0 0 0 0 0 0 0 0 0 0 0 0 0 0 0 0 0 0 0 0 0 0 0
5 2.24067e-10 2.1946e-10 4.60681e-12 0.02056 0.01845 0 0 0 0 0 0 0 0 0 0 0 0 0 0 0 0 0 0 0 0 0 0 0 0 0 0 0 0 0 0 0 0 0 0 0 0 0 0 0 0 0 0
5.25665 2.21349e-10 2.17549e-10 3.79932e-12 0.0171644 0.0165889 0 0 0 0 0 0 0 0 0 0 0 0 0 0 0 0 0 0 0 0 0 0 0 0 0 0 0 0 0 0 0 0 0 0 0 0 0 0 0 0 0 0
5.52648 2.18594e-10 2.1546e-10 3.13336e-12 0.0143342 0.0149027 0 0 0 0 0 0 0 0 0 0 0 0 0 0 0 0 0 0 0 0 0 0 0 0 0 0 0 0 0 0 0 0 0 0 0 0 0 0 0 0 0 0
5.81015 2.15598e-10 2.13017e-10 2.58129e-12 0.0119727 0.0133641 0 0 0 0 0 0 0 0 0 0 0 0 0 0 0 0 0 0 0 0 0 0 0 0 0 0 0 0 0 0 0 0 0 0 0 0 0 0 0 0 0 0
6.10839 2.12579e-10 2.10457e-10 2.12201e-12 0.00998223 0.0119643 0 0 0 0 0 0 0 0 0 0 0 0 0 0 0 0 0 0 0 0 0 0 0 0 0 0 0 0 0 0 0 0 1.4013e-45 0 2.8026e-45 0 8.40779e-45 0 2.38221e-44 0 5.60519e-44 0
6.42193 2.09449e-10 2.07711e-10 1.73811e-12 0.00829847 0.0106861 0 0 0 0 0 0 0 0 0 0 0 0 0 0 0 0 0 0 0 0 0 0 0 0 1.4013e-45 0 4.2039e-45 0 1.68156e-44 0 5.1848e-44 0 1.61149e-43 0 4.44212e-43 0 1.14626e-42 0 2.83623e-42 0 6.56789e-42 0
6.75157 2.06981e-10 2.05569e-10 1.41235e-12 0.00682358 0.0095074 0 0 0 0 0 0 0 0 0 0 0 0 0 0 0 0 0 0 1.4013e-45 0 7.00649e-45 0 3.36312e-44 0 1.49939e-43 0 5.73131e-43 0 1.99825e-42 0 6.09565e-42 0 1.76956e-41 0 4.66324e-41 0 1.14869e-40 0 2.71723e-40 0 6.0408e-40 0
7.09813 2.02816e-10 2.01669e-10 1.14705e-12 0.00565559 0.00839711 0 0 0 0 0 0 0 0 0 0 0 0 0 0 1.4013e-45 0 1.82169e-44 0 1.41531e-43 0 8.28167e-43 0 3.96567e-42 0 1.62985e-41 0 5.80922e-41 0 1.9057e-40 0 5.50723e-40 0 1.51762e-39 0 3.81451e-39 0 8.99171e-39 0 2.03943e-38 0 4.36051e-38 0
7.46248 1.99293e-10 1.98385e-10 9.08399e-13 0.00455811 0.00731689 0 0 0 0 0 0 0 0 0 0 0 0 1.68156e-44 0 2.36819e-43 0 2.19864e-42 0 1.52559e-41 0 8.15626e-41 0 3.62089e-40 0 1.38894e-39 0 4.65252e-39 0 1.44024e-38 0 3.95195e-38 0 1.03645e-37 0 2.49046e-37 0 5.6299e-37 0 1.22688e-36 0 2.52765e-36 0
7.84553 1.95645e-10 1.94958e-10 6.86778e-13 0.00351032 0.00628719 0 0 0 0 0 0 0 0 1.4013e-45 0 9.52883e-44 0 2.0459e-42 0 2.45339e-41 0 2.03775e-40 0 1.28609e-39 0 6.33542e-39 0 2.61515e-38 0 9.39417e-38 0 2.96641e-37 0 8.68993e-37 0 2.26981e-36 0 5.67912e-36 0 1.30745e-35 0 2.84022e-35 0 5.95849e-35 0 1.18502e-34 0
8.24824 2.16904e-10 2.164e-10 5.0429e-13 0.00232495 0.00541051 0 0 0 0 0 0 1.4013e-45 0 2.98477e-43 0 1.15327e-41 0 2.12095e-40 0 2.25287e-39 0 1.68744e-38 0 9.73377e-38 0 4.43583e-37 0 1.70857e-36 0 5.76608e-36 0 1.72136e-35 0 4.78484e-35 0 1.19256e-34 0 2.85317e-34 0 6.30652e-34 0 1.31907e-33 0 2.66895e-33 0 5.13275e-33 0
8.67162 2.62458e-10 2.62021e-10 4.36713e-13 0.00166394 0.00471082 0 0 0 0 0 0 3.25101e-43 0 3.68976e-41 0 1.19009e-39 0 1.89857e-38 0 1.79693e-37 0 1.21991e-36 0 6.45983e-36 0 2.73372e-35 0 9.8587e-35 0 3.13527e-34 0 8.8731e-34 0 2.34635e-33 0 5.59299e-33 0 1.28231e-32 0 2.7267e-32 0 5.50131e-32 0 1.07547e-31 0 2.00327e-31 0
9.11674 3.59421e-10 3.58902e-10 5.19235e-13 0.00144464 0.00401929 0 0 0 0 5.60519e-44 0 4.50531e-41 0 4.0577e-39 0 1.10462e-37 0 1.53933e-36 0 1.3055e-35 0 8.07165e-35 0 3.94016e-34 0 1.55402e-33 0 5.2641e-33 0 1.58215e-32 0 4.25588e-32 0 1.07322e-31 0 2.452e-31 0 5.39851e-31 0 1.10643e-30 0 2.15709e-30 0 4.08117e-30 0 7.37459e-30 0
9.5847 4.39096e-10 4.38374e-10 7.22298e-13 0.00164497 0.00358937 0 0 0 0 7.50535e-42 0 4.38913e-39 0 3.17323e-37 0 7.35149e-36 0 9.00809e-35 0 6.88254e-34 0 3.89317e-33 0 1.75889e-32 0 6.48761e-32 0 2.07053e-31 0 5.89754e-31 0 1.51158e-30 0 3.64348e-30 0 7.99518e-30 0 1.69375e-29 0 3.35182e-29 0 6.32514e-29 0 1.16002e-28 0 2.03645e-28 0
10.0767 4.267e-10 4.25902e-10 7.97798e-13 0.00186969 0.00340115 0 0 7.00649e-45 0 6.33252e-40 0 2.71308e-37 0 1.59153e-35 0 3.16265e-34 0 3.42907e-33 0 2.37233e-32 0 1.23307e-31 0 5.1754e-31 0 1.79108e-30 0 5.40138e-30 0 1.46184e-29 0 3.57851e-29 0 8.2629e-29 0 1.74494e-28 0 3.56355e-28 0 6.8209e-28 0 1.24786e-27 0 2.22179e-27 0 3.7947e-27 0
10.5939 3.64055e-10 3.63345e-10 7.09653e-13 0.0019493 0.00333871 0 0 7.16064e-43 0 3.72681e-38 0 1.18775e-35 0 5.71136e-34 0 9.80822e-33 0 9.4662e-32 0 5.95885e-31 0 2.85776e-30 0 1.11832e-29 0 3.64262e-29 0 1.04087e-28 0 2.68338e-28 0 6.28783e-28 0 1.39376e-27 0 2.83782e-27 0 5.59689e-27 0 1.03786e-26 0 1.84356e-26 0 3.19125e-26 0 5.30988e-26 0
11.1377 3.0436e-10 3.03763e-10 5.96898e-13 0.00196116 0.00341795 0 0 5.63854e-41 0 1.72672e-36 0 4.1532e-34 0 1.65301e-32 0 2.47079e-31 0 2.13476e-30 0 1.22836e-29 0 5.45691e-29 0 1.99783e-28 0 6.1428e-28 0 1.66758e-27 0 4.10478e-27 0 9.22685e-27 0 1.96726e-26 0 3.86886e-26 0 7.38148e-26 0 1.32813e-25 0 2.29391e-25 0 3.86585e-25 0 6.27442e-25 0
11.7094 2.44271e-10 2.43805e-10 4.66667e-13 0.00191045 0.00344008 5.04467e-44 0 3.37236e-39 0 6.23673e-35 0 1.14779e-32 0 3.81628e-31 0 4.99866e-30 0 3.88725e-29 0 2.05359e-28 0 8.48235e-28 0 2.91481e-27 0 8.48401e-27 0 2.19354e-26 0 5.16712e-26 0 1.11645e-25 0 2.294e-25 0 4.36489e-25 0 8.06929e-25 0 1.41084e-24 0 2.37261e-24 0 3.89787e-24 0 6.17856e-24 0
12.3105 1.95884e-10 1.95537e-10 3.47474e-13 0.00177387 0.00342499 4.17727e-42 0 1.61309e-37 0 1.8465e-33 0 2.63434e-31 0 7.38161e-30 0 8.52742e-29 0 5.9995e-28 0 2.92209e-27 0 1.12621e-26 0 3.64367e-26 0 1.00664e-25 0 2.48473e-25 0 5.61324e-25 0 1.16806e-24 0 2.31714e-24 0 4.27259e-24 0 7.66522e-24 0 1.30413e-23 0 2.13819e-23 0 3.42864e-23 0 5.3139e-23 0
12.9424 1.77602e-10 1.77349e-10 2.5238e-13 0.00142104 0.00327925 3.06188e-40 0 7.06002e-36 0 5.12075e-32 0 5.7342e-30 0 1.36546e-28 0 1.39979e-27 0 8.95349e-27 0 4.03646e-26 0 1.45653e-25 0 4.44982e-25 0 1.16985e-24 0 2.76297e-24 0 5.99833e-24 0 1.20433e-23 0 2.3105e-23 0 4.13495e-23 0 7.20959e-23 0 1.19519e-22 0 1.91285e-22 0 2.99739e-22 0 4.54719e-22 0
