# 4.217e-05 0 123 : grain size, compostion index, size index
# Heating and cooling timescale: 0.0010714 1.48396e+06
# Ratio of heating to cooling to determine stochastic cutoff: 100
# Equilibrium emission is recorded even for those grains in the stochastic regime.
# Emission spectrum was computed for: 
# Type: IRSF
# Scales: 0.25 0.5 1 1.5 2 2.5 3 3.5 4 4.5 5 5.5 6 6.5 7 7.5 8 8.5 9 9.5 10
# StochasticallyHeated: 0 0 0 0 0 0 0 0 0 0 0 0 0 0 0 0 0 0 0 0 0
# Temperature: -1
# Wavelength  CExt  CAbs  CSca  Albedo G EqEm1 StEm1 EqEm2 StEm2 EqEm3 StEm3 EqEm4 StEm4 EqEm5 StEm5 EqEm6 StEm6 EqEm7 StEm7 EqEm8 StEm8 EqEm9 StEm9 EqEm10 StEm10 EqEm11 StEm11 EqEm12 StEm12 EqEm13 StEm13 EqEm14 StEm14 EqEm15 StEm15 EqEm16 StEm16 EqEm17 StEm17 EqEm18 StEm18 EqEm19 StEm19 EqEm20 StEm20 EqEm21 StEm21
0.05 3.13622e-09 1.21972e-09 1.9165e-09 0.611085 0.00576547 0 0 0 0 0 0 0 0 0 0 0 0 0 0 0 0 0 0 0 0 0 0 0 0 0 0 0 0 0 0 0 0 0 0 0 0 0 0 0 0 0 0
0.0525665 3.46645e-09 1.34816e-09 2.11829e-09 0.611085 0.00637255 0 0 0 0 0 0 0 0 0 0 0 0 0 0 0 0 0 0 0 0 0 0 0 0 0 0 0 0 0 0 0 0 0 0 0 0 0 0 0 0 0 0
0.0552647 3.83145e-09 1.49011e-09 2.34134e-09 0.611085 0.00704355 0 0 0 0 0 0 0 0 0 0 0 0 0 0 0 0 0 0 0 0 0 0 0 0 0 0 0 0 0 0 0 0 0 0 0 0 0 0 0 0 0 0
0.0581015 4.23488e-09 1.64701e-09 2.58787e-09 0.611085 0.0077852 0 0 0 0 0 0 0 0 0 0 0 0 0 0 0 0 0 0 0 0 0 0 0 0 0 0 0 0 0 0 0 0 0 0 0 0 0 0 0 0 0 0
0.0610839 4.6808e-09 1.82043e-09 2.86036e-09 0.611085 0.00860494 0 0 0 0 0 0 0 0 0 0 0 0 0 0 0 0 0 0 0 0 0 0 0 0 0 0 0 0 0 0 0 0 0 0 0 0 0 0 0 0 0 0
0.0642193 5.17366e-09 2.01212e-09 3.16154e-09 0.611085 0.009511 0 0 0 0 0 0 0 0 0 0 0 0 0 0 0 0 0 0 0 0 0 0 0 0 0 0 0 0 0 0 0 0 0 0 0 0 0 0 0 0 0 0
0.0675157 5.71842e-09 2.22398e-09 3.49444e-09 0.611085 0.0105125 0 0 0 0 0 0 0 0 0 0 0 0 0 0 0 0 0 0 0 0 0 0 0 0 0 0 0 0 0 0 0 0 0 0 0 0 0 0 0 0 0 0
0.0709813 6.32054e-09 2.45816e-09 3.86239e-09 0.611085 0.0116194 0 0 0 0 0 0 0 0 0 0 0 0 0 0 0 0 0 0 0 0 0 0 0 0 0 0 0 0 0 0 0 0 0 0 0 0 0 0 0 0 0 0
0.0746248 6.98607e-09 2.71699e-09 4.26908e-09 0.611085 0.0128428 0 0 0 0 0 0 0 0 0 0 0 0 0 0 0 0 0 0 0 0 0 0 0 0 0 0 0 0 0 0 0 0 0 0 0 0 0 0 0 0 0 0
0.0784553 7.72167e-09 3.00307e-09 4.71859e-09 0.611085 0.0141951 0 0 0 0 0 0 0 0 0 0 0 0 0 0 0 0 0 0 0 0 0 0 0 0 0 0 0 0 0 0 0 0 0 0 0 0 0 0 0 0 0 0
0.0824824 8.53472e-09 3.31928e-09 5.21544e-09 0.611085 0.0156898 0 0 0 0 0 0 0 0 0 0 0 0 0 0 0 0 0 0 0 0 0 0 0 0 0 0 0 0 0 0 0 0 0 0 0 0 0 0 0 0 0 0
0.0867162 9.43339e-09 3.66879e-09 5.7646e-09 0.611085 0.0173419 0 0 0 0 0 0 0 0 0 0 0 0 0 0 0 0 0 0 0 0 0 0 0 0 0 0 0 0 0 0 0 0 0 0 0 0 0 0 0 0 0 0
0.0911674 1.04267e-08 4.0551e-09 6.37158e-09 0.611085 0.0191679 0 0 0 0 0 0 0 0 0 0 0 0 0 0 0 0 0 0 0 0 0 0 0 0 0 0 0 0 0 0 0 0 0 0 0 0 0 0 0 0 0 0
0.095847 1.15246e-08 4.48208e-09 7.04248e-09 0.611085 0.0211862 0 0 0 0 0 0 0 0 0 0 0 0 0 0 0 0 0 0 0 0 0 0 0 0 0 0 0 0 0 0 0 0 0 0 0 0 0 0 0 0 0 0
0.100767 1.25384e-08 4.91332e-09 7.6251e-09 0.608139 0.0235692 0 0 0 0 0 0 0 0 0 0 0 0 0 0 0 0 0 0 0 0 0 0 0 0 0 0 0 0 0 0 0 0 0 0 0 0 0 0 0 0 0 0
0.105939 1.25196e-08 5.11613e-09 7.40343e-09 0.591349 0.0256046 0 0 0 0 0 0 0 0 0 0 0 0 0 0 0 0 0 0 0 0 0 0 0 0 0 0 0 0 0 0 0 0 0 0 0 0 0 0 0 0 0 0
0.111377 1.254e-08 5.17718e-09 7.36278e-09 0.587145 0.0289403 0 0 0 0 0 0 0 0 0 0 0 0 0 0 0 0 0 0 0 0 0 0 0 0 0 0 0 0 0 0 0 0 0 0 0 0 0 0 0 0 0 0
0.117094 1.2528e-08 5.35217e-09 7.17584e-09 0.572784 0.0274507 0 0 0 0 0 0 0 0 0 0 0 0 0 0 0 0 0 0 0 0 0 0 0 0 0 0 0 0 0 0 0 0 0 0 0 0 0 0 0 0 0 0
0.123105 1.25474e-08 5.57181e-09 6.97561e-09 0.55594 0.0236555 0 0 0 0 0 0 0 0 0 0 0 0 0 0 0 0 0 0 0 0 0 0 0 0 0 0 0 0 0 0 0 0 0 0 0 0 0 0 0 0 0 0
0.129424 1.25833e-08 5.75432e-09 6.82895e-09 0.542701 0.0199126 0 0 0 0 0 0 0 0 0 0 0 0 0 0 0 0 0 0 0 0 0 0 0 0 0 0 0 0 0 0 0 0 0 0 0 0 0 0 0 0 0 0
0.136067 1.26196e-08 5.9084e-09 6.71121e-09 0.531808 0.0168557 0 0 0 0 0 0 0 0 0 0 0 0 0 0 0 0 0 0 0 0 0 0 0 0 0 0 0 0 0 0 0 0 0 0 0 0 0 0 0 0 0 0
0.143051 1.2646e-08 6.04102e-09 6.60493e-09 0.522296 0.0143876 0 0 0 0 0 0 0 0 0 0 0 0 0 0 0 0 0 0 0 0 0 0 0 0 0 0 0 0 0 0 0 0 0 0 0 0 0 0 0 0 0 0
0.150394 1.26483e-08 6.14672e-09 6.50159e-09 0.514028 0.0122986 0 0 0 0 0 0 0 0 0 0 0 0 0 0 0 0 0 0 0 0 0 0 0 0 0 0 0 0 0 0 0 0 0 0 0 0 0 0 0 0 0 0
0.158114 1.26017e-08 6.20244e-09 6.39925e-09 0.507809 0.01055 0 0 0 0 0 0 0 0 0 0 0 0 0 0 0 0 0 0 0 0 0 0 0 0 0 0 0 0 0 0 0 0 0 0 0 0 0 0 0 0 0 0
0.16623 1.24961e-08 6.17219e-09 6.3239e-09 0.506071 0.00908216 0 0 0 0 0 0 0 0 0 0 0 0 0 0 0 0 0 0 0 0 0 0 0 0 0 0 0 0 0 0 0 0 0 0 0 0 0 0 0 0 0 0
0.174762 1.23923e-08 6.0533e-09 6.33903e-09 0.511528 0.00782097 0 0 0 0 0 0 0 0 0 0 0 0 0 0 0 0 0 0 0 0 0 0 0 0 0 0 0 0 0 0 0 0 0 0 0 0 0 0 0 0 0 0
0.183733 1.23908e-08 5.85149e-09 6.53934e-09 0.527756 0.00667218 0 0 0 0 0 0 0 0 0 0 0 0 0 0 0 0 0 0 0 0 0 0 0 0 0 0 0 0 0 0 0 0 0 0 0 0 0 0 0 0 0 0
0.193164 1.25735e-08 5.5757e-09 6.99775e-09 0.55655 0.00556038 0 0 0 0 0 0 0 0 0 0 0 0 0 0 0 0 0 0 0 0 0 0 0 0 0 0 0 0 0 0 0 0 0 0 0 0 0 0 0 0 0 0
0.203079 1.29017e-08 5.29604e-09 7.60571e-09 0.58951 0.00446034 0 0 0 0 0 0 0 0 0 0 0 0 0 0 0 0 0 0 0 0 0 0 0 0 0 0 0 0 0 0 0 0 0 0 0 0 0 0 0 0 0 0
0.213503 1.33011e-08 5.09924e-09 8.20182e-09 0.616629 0.00342932 0 0 0 0 0 0 0 0 0 0 0 0 0 0 0 0 0 0 0 0 0 0 0 0 0 0 0 0 0 0 0 0 0 0 0 0 0 0 0 0 0 0
0.224463 1.36981e-08 5.02043e-09 8.67762e-09 0.633493 0.00254317 0 0 0 0 0 0 0 0 0 0 0 0 0 0 0 0 0 0 0 0 0 0 0 0 0 0 0 0 0 0 0 0 0 0 0 0 0 0 0 0 0 0
0.235984 1.39979e-08 5.01322e-09 8.98468e-09 0.641859 0.00182186 0 0 0 0 0 0 0 0 0 0 0 0 0 0 0 0 0 0 0 0 0 0 0 0 0 0 0 0 0 0 0 0 0 0 0 0 0 0 0 0 0 0
0.248097 1.41294e-08 5.02035e-09 9.10905e-09 0.644688 0.00138916 0 0 0 0 0 0 0 0 0 0 0 0 0 0 0 0 0 0 0 0 0 0 0 0 0 0 0 0 0 0 0 0 0 0 0 0 0 0 0 0 0 0
0.260832 1.40837e-08 5.04274e-09 9.04096e-09 0.641945 0.00141961 0 0 0 0 0 0 0 0 0 0 0 0 0 0 0 0 0 0 0 0 0 0 0 0 0 0 0 0 0 0 0 0 0 0 0 0 0 0 0 0 0 0
0.274221 1.39363e-08 5.1281e-09 8.80815e-09 0.632032 0.00187131 0 0 0 0 0 0 0 0 0 0 0 0 0 0 0 0 0 0 0 0 0 0 0 0 0 0 0 0 0 0 0 0 0 0 0 0 0 0 0 0 0 0
0.288297 1.38034e-08 5.30047e-09 8.50296e-09 0.616003 0.00251556 0 0 0 0 0 0 0 0 0 0 0 0 0 0 0 0 0 0 0 0 0 0 0 0 0 0 0 0 0 0 0 0 0 0 0 0 0 0 0 0 0 0
0.303095 1.37503e-08 5.51975e-09 8.23051e-09 0.598571 0.0028362 0 0 0 0 0 0 0 0 0 0 0 0 0 0 0 0 0 0 0 0 0 0 0 0 0 0 0 0 0 0 0 0 0 0 0 0 0 0 0 0 0 0
0.318653 1.37657e-08 5.73333e-09 8.03234e-09 0.583505 0.00297223 0 0 0 0 0 0 0 0 0 0 0 0 0 0 0 0 0 0 0 0 0 0 0 0 0 0 0 0 0 0 0 0 0 0 0 0 0 0 0 0 0 0
0.335009 1.382e-08 5.91571e-09 7.90426e-09 0.571945 0.00293231 0 0 0 0 0 0 0 0 0 0 0 0 0 0 0 0 0 0 0 0 0 0 0 0 0 0 0 0 0 0 0 0 0 0 0 0 0 0 0 0 0 0
0.352205 1.3894e-08 6.06263e-09 7.83133e-09 0.56365 0.00278811 0 0 0 0 0 0 0 0 0 0 0 0 0 0 0 0 0 0 0 0 0 0 0 0 0 0 0 0 0 0 0 0 0 0 0 0 0 0 0 0 0 0
0.370284 1.39773e-08 6.17778e-09 7.79957e-09 0.558015 0.00261033 0 0 0 0 0 0 0 0 0 0 0 0 0 0 0 0 0 0 0 0 0 0 0 0 0 0 0 0 0 0 0 0 0 0 0 0 0 0 0 0 0 0
0.389291 1.40649e-08 6.26795e-09 7.79693e-09 0.554354 0.00243645 0 0 0 0 0 0 0 0 0 0 0 0 0 0 0 0 0 0 0 0 0 0 0 0 0 0 0 0 0 0 0 0 0 0 0 0 0 0 0 0 0 0
0.409273 1.41547e-08 6.34305e-09 7.81166e-09 0.551877 0.00226652 0 0 0 0 0 0 0 0 0 0 0 0 0 0 0 0 0 0 0 0 0 0 0 0 0 0 0 0 0 0 0 0 0 0 0 0 0 0 0 0 0 0
0.430281 1.42439e-08 6.40944e-09 7.83442e-09 0.550021 0.00210471 0 0 0 0 0 0 0 0 0 0 0 0 0 0 0 0 0 0 0 0 0 0 0 0 0 0 0 0 0 0 0 0 0 0 0 0 0 0 0 0 0 0
0.452368 1.43325e-08 6.47338e-09 7.85915e-09 0.548344 0.00193723 0 0 0 0 0 0 0 0 0 0 0 0 0 0 0 0 0 0 0 0 0 0 0 0 0 0 0 0 0 0 0 0 0 0 0 0 0 0 0 0 0 0
0.475588 1.44235e-08 6.54112e-09 7.88237e-09 0.546495 0.00177642 0 0 0 0 0 0 0 0 0 0 0 0 0 0 0 0 0 0 0 0 0 0 0 0 0 0 0 0 0 0 0 0 0 0 0 0 0 0 0 0 0 0
0.5 1.45138e-08 6.61157e-09 7.90225e-09 0.544464 0.00162159 0 0 0 0 0 0 0 0 0 0 0 0 0 0 0 0 0 0 0 0 0 0 0 0 0 0 0 0 0 0 0 0 0 0 0 0 0 0 0 0 0 0
0.525665 1.46051e-08 6.68337e-09 7.92175e-09 0.542395 0.0014751 0 0 0 0 0 0 0 0 0 0 0 0 0 0 0 0 0 0 0 0 0 0 0 0 0 0 0 0 0 0 0 0 0 0 0 0 0 0 0 0 0 0
0.552648 1.47029e-08 6.76067e-09 7.94223e-09 0.540181 0.00134175 0 0 0 0 0 0 0 0 0 0 0 0 0 0 0 0 0 0 0 0 0 0 0 0 0 0 0 0 0 0 0 0 0 0 0 0 0 0 0 0 0 0
0.581015 1.48051e-08 6.84252e-09 7.96258e-09 0.537827 0.00121775 0 0 0 0 0 0 0 0 0 0 0 0 0 0 0 0 0 0 0 0 0 0 0 0 0 0 0 0 0 0 0 0 0 0 0 0 0 0 0 0 0 0
0.610839 1.49049e-08 6.92004e-09 7.98489e-09 0.535721 0.00110516 0 0 0 0 0 0 0 0 0 0 0 0 0 0 0 0 0 0 0 0 0 0 0 0 0 0 0 0 0 0 0 0 0 0 0 0 0 0 0 0 0 0
0.642193 1.50075e-08 6.99333e-09 8.01415e-09 0.53401 0.00100302 0 0 0 0 0 0 0 0 0 0 0 0 0 0 0 0 0 0 0 0 0 0 0 0 0 0 0 0 0 0 0 0 0 0 0 0 0 0 0 0 0 0
0.675157 1.51208e-08 7.07066e-09 8.05015e-09 0.532389 0.000910957 0 0 0 0 0 0 0 0 0 0 0 0 0 0 0 0 0 0 0 0 0 0 0 0 0 0 0 0 0 0 0 0 0 0 0 0 0 0 0 0 0 0
0.709813 1.52401e-08 7.15186e-09 8.08826e-09 0.530721 0.00082817 0 0 0 0 0 0 0 0 0 0 0 0 0 0 0 0 0 0 0 0 0 0 0 0 0 0 0 0 0 0 0 0 0 0 0 0 0 0 0 0 0 0
0.746248 1.53518e-08 7.22649e-09 8.12535e-09 0.529275 0.000754183 0 0 0 0 0 0 0 0 0 0 0 0 0 0 0 0 0 0 0 0 0 0 0 0 0 0 0 0 0 0 0 0 0 0 0 0 0 0 0 0 0 0
0.784553 1.54536e-08 7.28645e-09 8.16711e-09 0.528494 0.000686995 0 0 0 0 0 0 0 0 0 0 0 0 0 0 0 0 0 0 0 0 0 0 0 0 0 0 0 0 0 0 0 0 0 0 0 0 0 0 0 0 0 0
0.824824 1.55598e-08 7.33939e-09 8.2204e-09 0.528311 0.000626788 0 0 0 0 0 0 0 0 0 0 0 0 0 0 0 0 0 0 0 0 0 0 0 0 0 0 0 0 0 0 0 0 0 0 0 0 0 0 0 0 0 0
0.867162 1.56839e-08 7.39982e-09 8.28405e-09 0.528189 0.000572518 0 0 0 0 0 0 0 0 0 0 0 0 0 0 0 0 0 0 0 0 0 0 0 0 0 0 0 0 0 0 0 0 0 0 0 0 0 0 0 0 0 0
0.911674 1.58214e-08 7.47336e-09 8.34803e-09 0.527642 0.000523427 0 0 0 0 0 0 0 0 0 0 0 0 0 0 0 0 0 0 0 0 0 0 0 0 0 0 0 0 0 0 0 0 0 0 0 0 0 0 0 0 0 0
0.95847 1.59479e-08 7.54654e-09 8.40132e-09 0.526799 0.00047944 0 0 0 0 0 0 0 0 0 0 0 0 0 0 0 0 0 0 0 0 0 0 0 0 0 0 0 0 0 0 0 0 0 0 0 0 0 0 0 0 0 0
1.00767 1.60436e-08 7.60026e-09 8.44336e-09 0.526275 0.0004395 0 0 0 0 0 0 0 0 0 0 0 0 0 0 0 0 0 0 0 0 0 0 0 0 0 0 0 0 0 0 0 0 0 0 0 0 0 0 0 0 0 0
1.05939 1.61121e-08 7.62665e-09 8.48545e-09 0.526651 0.000403275 0 0 0 0 0 0 0 0 0 0 0 0 0 0 0 0 0 0 0 0 0 0 0 0 0 0 0 0 0 0 0 0 0 0 0 0 0 0 0 0 0 0
1.11377 1.61823e-08 7.63879e-09 8.54349e-09 0.527953 0.000370298 0 0 0 0 0 0 0 0 0 0 0 0 0 0 0 0 0 0 0 0 0 0 0 0 0 0 0 0 0 0 0 0 0 0 0 0 0 0 0 0 0 0
1.17094 1.62856e-08 7.6619e-09 8.62365e-09 0.529527 0.000339515 0 0 0 0 0 0 0 0 0 0 0 0 0 0 0 0 0 0 0 0 0 0 0 0 0 0 0 0 0 0 0 0 0 0 0 0 0 0 0 0 0 0
1.23105 1.64334e-08 7.7159e-09 8.71753e-09 0.530475 0.000311294 0 0 0 0 0 0 0 0 0 0 0 0 0 0 0 0 0 0 0 0 0 0 0 0 0 0 0 0 0 0 0 0 0 0 0 0 0 0 0 0 0 0
1.29424 1.66048e-08 7.80073e-09 8.80408e-09 0.530213 0.000285362 0 0 0 0 0 0 0 0 0 0 0 0 0 0 0 0 0 0 0 0 0 0 0 0 0 0 0 0 0 0 0 0 0 0 0 0 0 0 0 0 0 0
1.36067 1.67577e-08 7.89737e-09 8.86031e-09 0.528731 0.000261742 0 0 0 0 0 0 0 0 0 0 0 0 0 0 0 0 0 0 0 0 0 0 0 0 0 0 0 0 0 0 0 0 0 0 0 0 0 0 0 0 0 0
1.43051 1.68488e-08 7.97688e-09 8.87188e-09 0.52656 0.000240209 0 0 0 0 0 0 0 0 0 0 0 0 0 0 0 0 0 0 0 0 0 0 0 0 0 0 0 0 0 0 0 0 0 0 0 0 0 0 0 0 0 0
1.50394 1.68562e-08 8.01468e-09 8.8415e-09 0.524526 0.000220279 0 0 0 0 0 0 0 0 0 0 0 0 0 0 0 0 0 0 0 0 0 0 0 0 0 0 0 0 0 0 0 0 0 0 0 0 0 0 0 0 0 0
1.58114 1.67919e-08 8.00247e-09 8.78947e-09 0.523434 0.000201732 0 0 0 0 0 0 0 0 0 0 0 0 0 0 0 0 0 0 0 0 0 0 0 0 0 0 0 0 0 0 0 0 0 0 0 0 0 0 0 0 0 0
1.6623 1.67004e-08 7.95288e-09 8.74753e-09 0.523791 0.000184534 0 0 0 0 0 0 0 0 0 0 0 0 0 0 0 0 0 0 0 0 0 0 0 0 0 0 0 0 0 0 0 0 0 0 0 0 0 0 0 0 0 0
1.74763 1.66403e-08 7.89574e-09 8.74453e-09 0.525504 0.000169005 0 0 0 0 0 0 0 0 0 0 0 0 0 0 0 0 0 0 0 0 0 0 0 0 0 0 0 0 0 0 0 0 0 0 0 0 0 0 0 0 0 0
1.83733 1.66606e-08 7.8628e-09 8.79782e-09 0.528061 0.000154804 0 0 0 0 0 0 0 0 0 0 0 0 0 0 0 0 0 0 0 0 0 0 0 0 0 0 0 0 0 0 0 0 0 0 0 0 0 0 0 0 0 0
1.93164 1.67876e-08 7.8793e-09 8.90827e-09 0.530647 0.000141793 0 0 0 0 0 0 0 0 0 0 0 0 0 0 0 0 0 0 0 0 0 0 0 0 0 0 0 0 0 0 0 0 0 0 0 0 0 0 0 0 0 0
2.03079 1.70191e-08 7.95751e-09 9.06156e-09 0.532436 0.000129725 0 0 0 0 0 0 0 0 0 0 0 0 0 0 0 0 0 0 0 0 0 0 0 0 0 0 0 0 0 0 0 0 0 0 0 0 0 0 0 0 0 0
2.13503 1.733e-08 8.09623e-09 9.23381e-09 0.532821 0.000118657 0 0 0 0 0 0 0 0 0 0 0 0 0 0 0 0 0 0 0 0 0 0 0 0 0 0 0 0 0 0 0 0 0 0 0 0 0 0 0 0 0 0
2.24463 1.76774e-08 8.28213e-09 9.39531e-09 0.531486 0.000108569 0 0 0 0 0 0 0 0 0 0 0 0 0 0 0 0 0 0 0 0 0 0 0 0 0 0 0 0 0 0 0 0 0 0 0 0 0 0 0 0 0 0
2.35984 1.80046e-08 8.49353e-09 9.51111e-09 0.528259 9.92926e-05 0 0 0 0 0 0 0 0 0 0 0 0 0 0 0 0 0 0 0 0 0 0 0 0 0 0 0 0 0 0 0 0 0 0 0 0 0 0 0 0 0 0
2.48097 1.82475e-08 8.70223e-09 9.54523e-09 0.523099 9.07218e-05 0 0 0 0 0 0 0 0 0 0 0 0 0 0 0 0 0 0 0 0 0 0 0 0 0 0 0 0 0 0 0 0 0 0 0 0 0 0 0 0 0 0
2.60832 1.83382e-08 8.876e-09 9.46219e-09 0.515983 8.27967e-05 0 0 0 0 0 0 0 0 0 0 0 0 0 0 0 0 0 0 0 0 0 0 0 0 0 0 0 0 0 0 0 0 0 0 0 0 0 0 0 0 0 0
2.74221 1.82099e-08 8.98218e-09 9.22771e-09 0.506742 7.55862e-05 0 0 0 0 0 0 0 0 0 0 0 0 0 0 0 0 0 0 0 0 0 0 0 0 0 0 0 0 0 0 0 0 0 0 0 0 0 0 0 0 0 0
2.88297 1.78188e-08 8.99615e-09 8.82261e-09 0.495131 6.90729e-05 0 0 0 0 0 0 0 0 0 0 0 0 0 0 0 0 0 0 0 0 0 0 0 0 0 0 0 0 0 0 0 0 0 0 0 0 0 0 0 0 0 0
3.03095 1.71517e-08 8.90617e-09 8.24552e-09 0.480741 6.31538e-05 0 0 0 0 0 0 0 0 0 0 0 0 0 0 0 0 0 0 0 0 0 0 0 0 0 0 0 0 0 0 0 0 0 0 0 0 0 0 0 0 0 0
3.18653 1.62314e-08 8.71625e-09 7.51513e-09 0.463 5.76567e-05 0 0 0 0 0 0 0 0 0 0 0 0 0 0 0 0 0 0 0 0 0 0 0 0 0 0 0 0 0 0 0 0 0 0 0 0 0 0 0 0 0 0
3.35009 1.51312e-08 8.45053e-09 6.68065e-09 0.441515 5.2603e-05 0 0 0 0 0 0 0 0 0 0 0 0 0 0 0 0 0 0 0 0 0 0 0 0 0 0 0 0 0 0 0 0 0 0 0 0 0 0 0 0 0 0
3.52205 1.39368e-08 8.13813e-09 5.79868e-09 0.416069 4.80102e-05 0 0 0 0 0 0 0 0 0 0 0 0 0 0 0 0 0 0 0 0 0 0 0 0 0 0 0 0 0 0 0 0 0 0 0 0 0 0 0 0 0 0
3.70284 1.27327e-08 7.80529e-09 4.92737e-09 0.386987 4.38066e-05 0 0 0 0 0 0 0 0 0 0 0 0 0 0 0 0 0 0 0 0 0 0 0 0 0 0 0 0 0 0 0 0 0 0 0 0 0 0 0 0 0 0
3.89291 1.15757e-08 7.462e-09 4.11366e-09 0.355372 3.9926e-05 0 0 0 0 0 0 0 0 0 0 0 0 0 0 0 0 0 0 0 0 0 0 0 0 0 0 0 0 0 0 0 0 0 0 0 0 0 0 0 0 0 0
4.09273 1.04846e-08 7.0996e-09 3.385e-09 0.322855 3.62643e-05 0 0 0 0 0 0 0 0 0 0 0 0 0 0 0 0 0 0 0 0 0 0 0 0 0 0 0 0 0 0 0 0 0 0 0 0 0 0 0 0 0 0
4.30281 9.44997e-09 6.69585e-09 2.75413e-09 0.291443 3.29535e-05 0 0 0 0 0 0 0 0 0 0 0 0 0 0 0 0 0 0 0 0 0 0 0 0 0 0 0 0 0 0 0 0 0 0 0 0 0 0 0 0 0 0
4.52368 8.4485e-09 6.22751e-09 2.22099e-09 0.262885 2.99416e-05 0 0 0 0 0 0 0 0 0 0 0 0 0 0 0 0 0 0 0 0 0 0 0 0 0 0 0 0 0 0 0 0 0 0 0 0 0 0 0 0 0 0
4.75588 7.46303e-09 5.68416e-09 1.77887e-09 0.238358 2.71796e-05 0 0 0 0 0 0 0 0 0 0 0 0 0 0 0 0 0 0 0 0 0 0 0 0 0 0 0 0 0 0 0 0 0 0 0 0 0 0 0 0 0 0
5 6.49726e-09 5.07965e-09 1.4176e-09 0.218185 2.45398e-05 0 0 0 0 0 0 0 0 0 0 0 0 0 0 0 0 0 0 0 0 0 0 0 0 0 0 0 0 0 0 0 0 0 0 0 0 0 0 0 0 1.4013e-45 0
5.25665 5.57093e-09 4.44446e-09 1.12647e-09 0.202205 2.21678e-05 0 0 0 0 0 0 0 0 0 0 0 0 0 0 0 0 0 0 0 0 0 0 0 0 0 0 0 0 0 0 1.4013e-45 0 2.8026e-45 0 8.40779e-45 0 2.66247e-44 0 7.70714e-44 0 2.07392e-43 0
5.52648 4.71307e-09 3.81891e-09 8.94159e-10 0.189719 2.00489e-05 0 0 0 0 0 0 0 0 0 0 0 0 0 0 0 0 0 0 0 0 0 0 0 0 1.4013e-45 0 7.00649e-45 0 3.08286e-44 0 1.14906e-43 0 3.96567e-43 0 1.20792e-42 0 3.43178e-42 0 9.33685e-42 0 2.38389e-41 0
5.81015 3.94752e-09 3.23739e-09 7.10132e-10 0.179893 1.8115e-05 0 0 0 0 0 0 0 0 0 0 0 0 0 0 0 0 0 0 1.4013e-45 0 7.00649e-45 0 4.2039e-44 0 2.18603e-43 0 9.72501e-43 0 3.7793e-42 0 1.32142e-41 0 4.28265e-41 0 1.23551e-40 0 3.33655e-40 0 8.64579e-40 0 2.1088e-39 0
6.10839 3.29084e-09 2.72562e-09 5.65223e-10 0.171756 1.63023e-05 0 0 0 0 0 0 0 0 0 0 0 0 0 0 1.4013e-45 0 1.4013e-44 0 1.21913e-43 0 8.68805e-43 0 4.95219e-42 0 2.36273e-41 0 9.79143e-41 0 3.55963e-40 0 1.17088e-39 0 3.58291e-39 0 9.81535e-39 0 2.52516e-38 0 6.24608e-38 0 1.45858e-37 0
6.42193 2.69421e-09 2.24512e-09 4.49085e-10 0.166685 1.48144e-05 0 0 0 0 0 0 0 0 0 0 0 0 7.00649e-45 0 1.35926e-43 0 1.60309e-42 0 1.30419e-41 0 8.42461e-41 0 4.41154e-40 0 1.95027e-39 0 7.54024e-39 0 2.57382e-38 0 7.98802e-38 0 2.31444e-37 0 6.03597e-37 0 1.48284e-36 0 3.50921e-36 0 7.8623e-36 0
6.75157 2.2498e-09 1.89029e-09 3.59502e-10 0.159793 1.32279e-05 0 0 0 0 0 0 0 0 0 0 3.36312e-44 0 9.3887e-43 0 1.44964e-41 0 1.50907e-40 0 1.10848e-39 0 6.53687e-39 0 3.15722e-38 0 1.29806e-37 0 4.69797e-37 0 1.51033e-36 0 4.43524e-36 0 1.22002e-35 0 3.03628e-35 0 7.13889e-35 0 1.61987e-34 0 3.48912e-34 0
7.09813 1.87126e-09 1.58314e-09 2.88127e-10 0.153974 1.18448e-05 0 0 0 0 0 0 0 0 6.5861e-44 0 3.70363e-42 0 8.84359e-41 0 1.19436e-39 0 1.10896e-38 0 7.39012e-38 0 3.99639e-37 0 1.78735e-36 0 6.8584e-36 0 2.33112e-35 0 7.07886e-35 0 1.97228e-34 0 5.16371e-34 0 1.22915e-33 0 2.77182e-33 0 6.04283e-33 0 1.25374e-32 0
7.46248 1.56187e-09 1.33042e-09 2.31447e-10 0.148186 1.05694e-05 0 0 0 0 0 0 4.06377e-44 0 6.96445e-42 0 3.20553e-40 0 6.55511e-39 0 7.79639e-38 0 6.49265e-37 0 3.94403e-36 0 1.96412e-35 0 8.16485e-35 0 2.93391e-34 0 9.3939e-34 0 2.70204e-33 0 7.16093e-33 0 1.78878e-32 0 4.0814e-32 0 8.84559e-32 0 1.85642e-31 0 3.71678e-31 0
7.84553 1.3103e-09 1.12395e-09 1.86348e-10 0.142218 9.34187e-06 0 0 0 0 2.8026e-45 0 4.34122e-42 0 5.75509e-40 0 2.19705e-38 0 3.87729e-37 0 4.0864e-36 0 3.06849e-35 0 1.70682e-34 0 7.85913e-34 0 3.0475e-33 0 1.02877e-32 0 3.11203e-32 0 8.50135e-32 0 2.14832e-31 0 5.13184e-31 0 1.1247e-30 0 2.34721e-30 0 4.75098e-30 0 9.19503e-30 0
8.24824 1.10558e-09 9.55263e-10 1.50318e-10 0.135963 8.19911e-06 0 0 0 0 3.51726e-43 0 3.61794e-40 0 3.7785e-38 0 1.20748e-36 0 1.85224e-35 0 1.74009e-34 0 1.18415e-33 0 6.05737e-33 0 2.58875e-32 0 9.39557e-32 0 2.98884e-31 0 8.56556e-31 0 2.22787e-30 0 5.38076e-30 0 1.23184e-29 0 2.59824e-29 0 5.23113e-29 0 1.023e-28 0 1.9171e-28 0
8.67162 9.38719e-10 8.17248e-10 1.21471e-10 0.1294 7.20916e-06 0 0 0 0 3.26503e-41 0 2.39702e-38 0 1.99508e-36 0 5.38346e-35 0 7.22743e-34 0 6.08638e-33 0 3.77165e-32 0 1.78155e-31 0 7.0926e-31 0 2.41716e-30 0 7.26685e-30 0 1.97822e-29 0 4.91067e-29 0 1.13605e-28 0 2.49773e-28 0 5.07977e-28 0 9.88377e-28 0 1.8706e-27 0 3.39963e-27 0
9.11674 8.02319e-10 7.04006e-10 9.83134e-11 0.122537 6.32492e-06 0 0 1.96182e-44 0 2.40144e-39 0 1.27743e-36 0 8.56779e-35 0 1.96833e-33 0 2.32782e-32 0 1.76663e-31 0 1.00147e-30 0 4.38516e-30 0 1.63192e-29 0 5.23841e-29 0 1.49245e-28 0 3.86896e-28 0 9.18716e-28 0 2.04011e-27 0 4.31615e-27 0 8.47897e-27 0 1.59701e-26 0 2.9298e-26 0 5.17157e-26 0
9.5847 6.90292e-10 6.10615e-10 7.96767e-11 0.115425 5.52644e-06 0 0 2.05711e-42 0 1.41392e-37 0 5.53605e-35 0 3.02381e-33 0 5.96104e-32 0 6.24877e-31 0 4.2955e-30 0 2.23728e-29 0 9.11493e-29 0 3.18128e-28 0 9.64658e-28 0 2.6114e-27 0 6.46203e-27 0 1.47102e-26 0 3.14177e-26 0 6.40808e-26 0 1.21803e-25 0 2.22432e-25 0 3.96151e-25 0 6.80136e-25 0
10.0767 5.97972e-10 5.33317e-10 6.46556e-11 0.108125 4.78203e-06 1.4013e-45 0 1.68931e-40 0 6.74e-36 0 1.97172e-33 0 8.85881e-32 0 1.50983e-30 0 1.41116e-29 0 8.82915e-29 0 4.24261e-28 0 1.61392e-27 0 5.29939e-27 0 1.52221e-26 0 3.92518e-26 0 9.29272e-26 0 2.03212e-25 0 4.1823e-25 0 8.23863e-25 0 1.51763e-24 0 2.69114e-24 0 4.65974e-24 0 7.79177e-24 0
10.5939 5.2134e-10 4.68841e-10 5.24989e-11 0.1007 4.06995e-06 1.34525e-43 0 1.10481e-38 0 2.62786e-34 0 5.8261e-32 0 2.17383e-30 0 3.22587e-29 0 2.70337e-28 0 1.54656e-27 0 6.88331e-27 0 2.4531e-26 0 7.60064e-26 0 2.07361e-25 0 5.10535e-25 0 1.15887e-24 0 2.43922e-24 0 4.84632e-24 0 9.23583e-24 0 1.65133e-23 0 2.84746e-23 0 4.80001e-23 0 7.82736e-23 0
11.1377 4.57286e-10 4.14667e-10 4.26188e-11 0.0931995 3.40803e-06 1.23188e-41 0 5.81856e-37 0 8.46177e-33 0 1.44114e-30 0 4.5062e-29 0 5.86191e-28 0 4.42812e-27 0 2.32648e-26 0 9.62656e-26 0 3.22436e-25 0 9.45362e-25 0 2.4558e-24 0 5.78611e-24 0 1.26187e-23 0 2.56124e-23 0 4.921e-23 0 9.08749e-23 0 1.57936e-22 0 2.65186e-22 0 4.35776e-22 0 6.93853e-22 0
11.7094 4.09613e-10 3.74566e-10 3.50466e-11 0.0855603 2.82232e-06 9.06758e-40 0 2.53243e-35 0 2.30646e-31 0 3.05671e-29 0 8.07905e-28 0 9.27231e-27 0 6.34588e-26 0 3.07465e-25 0 1.18701e-24 0 3.74795e-24 0 1.04266e-23 0 2.58519e-23 0 5.84138e-23 0 1.22634e-22 0 2.40456e-22 0 4.47499e-22 0 8.02003e-22 0 1.35673e-21 0 2.22114e-21 0 3.5625e-21 0 5.54494e-21 0
