# 5.97623e-07 0 27 : grain size, compostion index, size index
# Heating and cooling timescale: 377.693 6689.56
# Ratio of heating to cooling to determine stochastic cutoff: 100
# Equilibrium emission is recorded even for those grains in the stochastic regime.
# Emission spectrum was computed for: 
# Type: IRSF
# Scales: 0.5 1 2 5 10
StochasticallyHeated: 1 1 1 1 1
# Temperature: -1
# Wavelength  CExt  CAbs  CSca  Albedo G EqEm1 StEm1 EqEm2 StEm2 EqEm3 StEm3 EqEm4 StEm4 EqEm5 StEm5
0.05 7.6309e-13 6.75808e-13 8.72822e-14 0.11438 0.0897355 0 0 0 0 0 0 0 0 0 0
0.0525665 8.72673e-13 7.78018e-13 9.46555e-14 0.108466 0.0802044 0 0 0 0 0 0 0 0 0 0
0.0552647 9.97168e-13 8.94742e-13 1.02425e-13 0.102716 0.0715676 0 0 0 0 0 0 0 0 0 0
0.0581015 1.32846e-12 1.21963e-12 1.08826e-13 0.0819193 0.0636919 0 0 0 0 0 0 0 0 0 0
0.0610839 2.09317e-12 1.97614e-12 1.1703e-13 0.0559103 0.0561805 0 0 0 0 0 0 0 0 0 0
0.0642193 2.63069e-12 2.49746e-12 1.33225e-13 0.0506426 0.0488803 0 0 0 0 0 0 0 0 0 0
0.0675157 3.15014e-12 2.98735e-12 1.62787e-13 0.0516762 0.0414641 0 0 0 0 0 0 0 0 0 0
0.0709813 3.61602e-12 3.43231e-12 1.83709e-13 0.0508044 0.0344007 0 0 0 0 0 0 0 0 0 0
0.0746248 3.38745e-12 3.2067e-12 1.80747e-13 0.0533579 0.0288911 0 0 0 0 0 0 0 0 0 0
0.0784553 2.67696e-12 2.51988e-12 1.57081e-13 0.0586789 0.0250811 0 0 0 0 0 0 0 0 0 0
0.0824824 2.11986e-12 2.0002e-12 1.19665e-13 0.0564495 0.0227007 0 0 0 0 0 0 0 0 0 0
0.0867162 1.7698e-12 1.67556e-12 9.42395e-14 0.0532486 0.021145 0 0 0 0 0 0 0 0 0 0
0.0911674 1.54267e-12 1.46205e-12 8.06293e-14 0.0522659 0.0199269 0 0 0 0 0 0 0 0 0 0
0.095847 1.37475e-12 1.30845e-12 6.62992e-14 0.0482265 0.020392 0 0 0 0 0 0 0 0 0 0
0.100767 1.19477e-12 1.14863e-12 4.61418e-14 0.0386198 0.0235804 0 0 0 0 0 0 0 0 0 0
0.105939 1.03364e-12 1.00145e-12 3.2194e-14 0.0311461 0.0256437 0 0 0 0 0 0 0 0 0 0
0.111377 8.78939e-13 8.59446e-13 1.94928e-14 0.0221776 0.0291647 0 0 0 0 0 0 0 0 0 0
0.117094 7.40393e-13 7.28464e-13 1.19291e-14 0.0161118 0.0274536 0 0 0 0 0 0 0 0 0 0
0.123105 6.20032e-13 6.12354e-13 7.67869e-15 0.0123843 0.0236551 0 0 0 0 0 0 0 0 0 0
0.129424 5.19996e-13 5.15106e-13 4.88957e-15 0.0094031 0.0198997 0 0 0 0 0 0 0 0 0 0
0.136067 4.70301e-13 4.67156e-13 3.14448e-15 0.00668611 0.0168467 0 0 0 0 0 0 0 0 0 0
0.143051 4.26055e-13 4.24e-13 2.05425e-15 0.00482157 0.0143862 0 0 0 0 0 0 0 0 0 0
0.150394 4.01912e-13 4.0052e-13 1.392e-15 0.00346344 0.0122971 0 0 0 0 0 0 0 0 0 0
0.158114 3.96921e-13 3.95875e-13 1.04592e-15 0.00263508 0.0105457 0 0 0 0 0 0 0 0 0 0
0.16623 4.12561e-13 4.11603e-13 9.58152e-16 0.00232245 0.00908028 0 0 0 0 0 0 0 0 0 0
0.174762 4.52085e-13 4.50943e-13 1.14231e-15 0.00252675 0.00782053 0 0 0 0 0 0 0 0 0 0
0.183733 5.22637e-13 5.21021e-13 1.61571e-15 0.00309146 0.00667198 0 0 0 0 0 0 0 0 0 0
0.193164 6.4749e-13 6.44933e-13 2.55703e-15 0.00394915 0.00556004 0 0 0 0 0 0 0 0 0 0
0.203079 8.48688e-13 8.44746e-13 3.9422e-15 0.00464505 0.00445998 0 0 0 0 0 0 0 0 0 0
0.213503 1.04562e-12 1.04066e-12 4.96037e-15 0.00474396 0.00342914 0 0 0 0 0 0 0 0 0 0
0.224463 1.00359e-12 9.99371e-13 4.21407e-15 0.00419902 0.00254317 0 0 0 0 0 0 0 0 0 0
0.235984 7.75119e-13 7.72251e-13 2.86808e-15 0.00370018 0.00182169 0 0 0 0 0 0 0 0 0 0
0.248097 5.85116e-13 5.83269e-13 1.84736e-15 0.00315725 0.00138911 0 0 0 0 0 0 0 0 0 0
0.260832 4.68075e-13 4.66813e-13 1.26197e-15 0.00269609 0.00141758 0 0 0 0 0 0 0 0 0 0
0.274221 3.9799e-13 3.97084e-13 9.0645e-16 0.00227757 0.00186895 0 0 0 0 0 0 0 0 0 0
0.288297 3.54235e-13 3.53562e-13 6.7352e-16 0.00190134 0.00251637 0 0 0 0 0 0 0 0 0 0
0.303095 3.20898e-13 3.2038e-13 5.17883e-16 0.00161386 0.00283649 0 0 0 0 0 0 0 0 0 0
0.318653 2.80495e-13 2.80093e-13 4.02558e-16 0.00143517 0.00297251 0 0 0 0 0 0 0 0 0 0
0.335009 2.46452e-13 2.46135e-13 3.16627e-16 0.00128474 0.0029323 0 0 0 0 0 0 0 0 0 0
0.352205 2.15134e-13 2.14882e-13 2.52175e-16 0.00117218 0.00278807 0 0 0 0 0 0 0 0 0 0
0.370284 1.86478e-13 1.86275e-13 2.02657e-16 0.00108676 0.00261022 0 0 0 0 0 0 0 0 0 0
0.389291 1.60439e-13 1.60275e-13 1.64138e-16 0.00102306 0.00243614 0 0 0 0 0 0 0 0 0 0
0.409273 1.37011e-13 1.36878e-13 1.33352e-16 0.000973292 0.00226639 0 0 0 0 0 0 0 0 0 0
0.430281 1.16055e-13 1.15946e-13 1.08456e-16 0.000934523 0.00210468 0 0 0 0 0 0 0 0 0 0
0.452368 9.74531e-14 9.73649e-14 8.82006e-17 0.000905057 0.001937 0 0 0 0 0 0 0 0 0 0
0.475588 8.10941e-14 8.10223e-14 7.17799e-17 0.000885143 0.0017761 0 0 0 0 0 0 0 0 0 0
0.5 6.68721e-14 6.68135e-14 5.85736e-17 0.000875905 0.00162147 0 0 0 0 0 0 0 0 0 0
0.525665 5.45869e-14 5.4539e-14 4.78505e-17 0.000876593 0.00147509 0 0 0 0 0 0 0 0 0 0
0.552647 4.4081e-14 4.40419e-14 3.91065e-17 0.00088715 0.00134166 0 0 0 0 0 0 0 0 0 0
0.581015 3.521e-14 3.51779e-14 3.21176e-17 0.000912173 0.00121754 0 0 0 0 0 0 0 0 0 0
0.610839 2.77998e-14 2.77734e-14 2.63863e-17 0.000949155 0.00110507 0 0 0 0 0 0 0 0 0 0
0.642193 2.16651e-14 2.16434e-14 2.16746e-17 0.00100044 0.00100302 0 0 0 0 0 0 0 0 0 0
0.675157 1.6644e-14 1.66262e-14 1.78252e-17 0.00107096 0.000910808 0 0 0 0 0 0 0 0 0 0
0.709813 1.25939e-14 1.25792e-14 1.46846e-17 0.001166 0.000828075 0 0 0 0 0 0 0 0 0 0
0.746248 9.33506e-15 9.32296e-15 1.20997e-17 0.00129615 0.000754146 0 0 0 0 0 0 0 0 0 0
0.784553 6.68812e-15 6.67816e-15 9.96689e-18 0.00149024 0.000686995 0 0 0 0 0 0 0 0 0 0
0.824824 4.39764e-15 4.38943e-15 8.20833e-18 0.00186653 0.000626724 0 0 0 0 0 0 0 0 0 0
0.867162 2.32248e-15 2.31572e-15 6.76265e-18 0.00291182 0.000572488 0 0 0 0 0 0 0 0 0 0
0.911674 1.31472e-15 1.30915e-15 5.56869e-18 0.00423566 0.000523419 0 0 0 0 0 0 0 0 0 0
0.95847 8.88038e-16 8.83456e-16 4.58178e-18 0.00515944 0.000479439 0 0 0 0 0 0 0 0 0 0
1.00767 4.54712e-16 4.50941e-16 3.77008e-18 0.00829115 0.000439499 0 0 0 0 0 0 0 0 0 0
1.05939 1.30254e-16 1.27153e-16 3.10092e-18 0.0238068 0.000403271 0 0 0 0 0 0 0 0 0 0
1.11377 3.59871e-17 3.34374e-17 2.54975e-18 0.0708519 0.000370285 0 0 0 0 0 0 0 0 0 0
1.17094 1.26327e-17 1.05371e-17 2.09567e-18 0.165892 0.00033949 0 0 0 0 0 0 0 0 0 0
1.23105 5.71498e-18 3.99171e-18 1.72326e-18 0.301535 0.000311291 0 0 0 0 0 0 0 0 0 0
1.29424 3.22506e-18 1.80757e-18 1.4175e-18 0.439526 0.000285349 0 0 0 0 0 0 0 0 0 0
1.36067 2.20466e-18 1.03934e-18 1.16531e-18 0.528569 0.000261716 0 0 0 0 0 0 0 0 0 0
1.43051 1.73884e-18 7.81284e-19 9.57555e-19 0.550686 0.000240182 0 0 0 0 0 0 0 0 0 0
1.50394 1.50853e-18 7.21398e-19 7.87128e-19 0.521786 0.000220278 0 0 0 0 0 0 0 0 0 0
1.58114 1.39099e-18 7.43944e-19 6.47048e-19 0.46517 0.000201718 0 0 0 0 0 0 0 0 0 0
1.6623 1.33888e-18 8.06923e-19 5.31952e-19 0.397313 0.000184501 0 0 0 0 0 0 0 0 0 0
1.74762 1.33198e-18 8.94602e-19 4.37381e-19 0.328368 0.000168986 0 0 0 0 0 0 0 0 0 0
1.83733 1.36161e-18 1.00202e-18 3.59585e-19 0.264088 0.000154805 0 0 0 0 0 0 0 0 0 1.4013e-45
1.93164 1.42496e-18 1.12945e-18 2.95514e-19 0.207384 0.000141783 0 0 0 0 0 0 0 1.4013e-45 0 7.84727e-44
2.03079 1.52316e-18 1.28035e-18 2.42804e-19 0.159408 0.000129698 0 0 0 0 0 0 0 3.36312e-44 0 3.08146e-42
2.13503 1.6614e-18 1.46175e-18 1.99653e-19 0.120171 0.000118644 0 0 0 0 0 5.60519e-45 0 1.28219e-42 0 1.04136e-40
2.24463 1.84852e-18 1.68443e-18 1.64095e-19 0.0887709 0.000108569 0 0 0 7.00649e-45 0 2.34017e-43 0 4.24734e-41 0 3.06598e-39
2.35984 2.10203e-18 1.96721e-18 1.3482e-19 0.0641382 9.92827e-05 0 9.80909e-45 0 2.35418e-43 0 7.80243e-42 0 1.23445e-39 1.4013e-44 7.94053e-38
2.48097 2.45644e-18 2.34569e-18 1.10749e-19 0.045085 9.07044e-05 0 3.27904e-43 0 7.59644e-42 0 2.29774e-40 0 3.18801e-38 1.06919e-42 1.83247e-36
2.60832 2.98834e-18 2.89729e-18 9.10515e-20 0.0304689 8.27892e-05 0 1.02743e-41 0 2.20314e-40 0 6.11212e-39 7.00649e-45 7.4622e-37 6.91933e-41 3.84331e-35
2.74221 3.88171e-18 3.80688e-18 7.48323e-20 0.0192782 7.55851e-05 0 2.99449e-40 0 5.94483e-39 0 1.51628e-37 5.66125e-43 1.63426e-35 3.88031e-39 7.56178e-34
2.88297 5.70974e-18 5.64828e-18 6.1455e-20 0.0107632 6.90663e-05 0 8.64587e-39 0 1.59251e-37 0 3.74269e-36 4.53937e-41 3.57239e-34 2.02086e-37 1.4888e-32
3.03095 1.1208e-17 1.11575e-17 5.04776e-20 0.00450373 6.31462e-05 0 2.93047e-37 0 5.01829e-36 2.10195e-44 1.08909e-34 3.93868e-39 9.23414e-33 1.16346e-35 3.4747e-31
3.18653 5.72238e-17 5.71823e-17 4.14685e-20 0.000724672 5.76532e-05 0 2.28324e-35 0 3.64234e-34 7.15223e-42 7.31493e-33 7.28176e-37 5.5256e-31 1.45612e-33 1.88185e-29
3.35009 3.08542e-16 3.08508e-16 3.40559e-20 0.000110377 5.26024e-05 0 1.66699e-33 1.47136e-43 2.4821e-32 2.02672e-39 4.62227e-31 1.17517e-34 3.11962e-29 1.62142e-31 9.63835e-28
3.52205 1.82818e-17 1.82539e-17 2.79551e-20 0.00152912 4.80064e-05 0 1.1934e-33 5.95552e-43 1.66172e-32 5.12787e-39 2.87515e-31 1.74053e-34 1.73854e-29 1.68725e-31 4.88382e-28
3.70284 8.91623e-18 8.89328e-18 2.29573e-20 0.00257477 4.38042e-05 1.4013e-45 6.31698e-33 1.58641e-41 8.241e-32 8.78531e-38 1.32735e-30 1.79181e-33 7.21027e-29 1.24159e-30 1.84565e-27
3.89291 7.1034e-18 7.08456e-18 1.8846e-20 0.0026531 3.99253e-05 5.46506e-44 4.92977e-32 5.62003e-40 6.03658e-31 2.04328e-36 9.06793e-30 2.56717e-32 4.43651e-28 1.29255e-29 1.03701e-26
4.09273 6.9236e-18 6.90813e-18 1.54689e-20 0.00223423 3.62641e-05 3.06324e-42 4.26308e-31 2.00032e-38 4.90855e-30 4.87357e-35 6.88916e-29 3.86222e-31 3.04338e-27 1.43518e-28 6.50939e-26
4.30281 7.43649e-18 7.42379e-18 1.26945e-20 0.00170705 3.29535e-05 1.52929e-40 3.69227e-30 6.50265e-37 4.00437e-29 1.08264e-33 5.26017e-28 5.53489e-30 2.10331e-26 1.54063e-27 4.12475e-25
4.52368 8.4896e-18 8.47917e-18 1.04207e-20 0.00122747 2.99412e-05 6.6452e-39 3.10031e-29 1.87908e-35 3.17227e-28 2.17799e-32 3.90676e-27 7.33858e-29 1.41728e-25 1.55184e-26 2.55332e-24
4.75588 1.02965e-17 1.0288e-17 8.55095e-21 0.000830468 2.71792e-05 2.53694e-37 2.53166e-28 4.86669e-34 2.44778e-27 3.99709e-31 2.83075e-26 9.05878e-28 9.3382e-25 1.47495e-25 1.54843e-23
5 1.4289e-17 1.4282e-17 7.01463e-21 0.00049091 2.4537e-05 9.25036e-36 2.17287e-27 1.22686e-32 1.98811e-26 7.26119e-30 2.16237e-25 1.12853e-26 6.50089e-24 1.43296e-24 9.93989e-23
5.25665 3.92703e-17 3.92646e-17 5.75565e-21 0.000146565 2.21677e-05 5.62546e-34 3.40417e-26 5.25213e-31 2.95164e-25 2.27612e-28 3.02385e-24 2.47103e-25 8.30263e-23 2.47678e-23 1.17269e-21
5.52648 3.38295e-17 3.38247e-17 4.72234e-21 0.000139592 2.00481e-05 9.10335e-33 1.5452e-25 6.08644e-30 1.27132e-24 1.96102e-27 1.22853e-23 1.51339e-24 3.08713e-22 1.21133e-22 4.03498e-21
5.81015 5.74218e-17 5.74179e-17 3.87206e-21 6.74319e-05 1.8113e-05 2.48506e-31 1.2819e-24 1.20938e-28 1.00204e-23 2.93917e-26 9.14659e-23 1.63951e-23 2.10774e-21 1.0595e-21 2.55365e-20
6.10839 1.88647e-16 1.88643e-16 3.17403e-21 1.68253e-05 1.62991e-05 1.1325e-29 1.91462e-23 4.07439e-27 1.42362e-22 7.57264e-25 1.22914e-21 3.10202e-22 2.60255e-20 1.63546e-20 2.92769e-19
6.42193 1.25917e-16 1.25915e-16 2.60184e-21 2.06631e-05 1.48142e-05 9.11009e-29 5.41941e-23 2.45896e-26 3.83757e-22 3.54116e-24 3.13809e-21 1.08142e-21 6.11692e-20 4.698e-20 6.39947e-19
6.75157 1.03491e-16 1.03489e-16 2.13308e-21 2.06113e-05 1.32267e-05 7.89382e-28 1.76664e-22 1.62112e-25 1.19274e-21 1.83159e-23 9.24951e-21 4.23015e-21 1.66288e-19 1.52864e-19 1.62049e-18
7.09813 1.16281e-16 1.1628e-16 1.74779e-21 1.50307e-05 1.18427e-05 8.23393e-27 7.3826e-22 1.30385e-24 4.75766e-21 1.16951e-22 3.50335e-20 2.07078e-20 5.81949e-19 6.28085e-19 5.29073e-18
7.46248 2.67016e-16 2.67015e-16 1.43167e-21 5.36175e-06 1.05683e-05 1.55519e-25 5.92662e-21 1.92313e-23 3.64988e-20 1.38498e-21 2.55521e-19 1.90463e-19 3.92871e-18 4.89041e-18 3.33722e-17
7.84553 3.34343e-16 3.34342e-16 1.17316e-21 3.50886e-06 9.34146e-06 1.42759e-24 2.44443e-20 1.39534e-22 1.44025e-19 8.15502e-21 9.5979e-19 8.8184e-19 1.36824e-17 1.93243e-17 1.08754e-16
8.24824 1.35242e-16 1.35241e-16 9.61007e-22 7.10582e-06 8.19829e-06 3.7943e-24 3.07556e-20 2.96513e-22 1.73574e-19 1.42079e-20 1.10239e-18 1.22233e-18 1.45951e-17 2.3038e-17 1.08709e-16
8.67162 1.44937e-16 1.44936e-16 7.86693e-22 5.42783e-06 7.20773e-06 2.40763e-23 9.70267e-20 1.52083e-21 5.25125e-19 6.03282e-20 3.18227e-18 4.17561e-18 3.91915e-17 6.81887e-17 2.73935e-16
9.11674 5.45042e-17 5.45036e-17 6.43995e-22 1.18155e-05 6.32304e-06 4.85516e-23 1.01862e-19 2.50489e-21 5.29309e-19 8.30205e-20 3.06415e-18 4.6724e-18 3.51582e-17 6.65747e-17 2.30932e-16
9.5847 4.53289e-17 4.53283e-17 5.26966e-22 1.16254e-05 5.52618e-06 1.97063e-22 2.2475e-19 8.38637e-21 1.12262e-18 2.34282e-19 6.21508e-18 1.08301e-17 6.65398e-17 1.35541e-16 4.11281e-16
10.0767 4.82543e-17 4.82539e-17 4.31016e-22 8.93217e-06 4.78186e-06 9.3604e-22 6.04385e-19 3.31689e-20 2.9053e-18 7.87569e-19 1.5399e-17 3.01924e-17 1.54057e-16 3.34005e-16 8.97276e-16
10.5939 6.63211e-17 6.63207e-17 3.52271e-22 5.31161e-06 4.06863e-06 5.27142e-21 2.00187e-18 1.56933e-19 9.27164e-18 3.19235e-18 4.70978e-17 1.02424e-16 4.40921e-16 1.00761e-15 2.42308e-15
11.1377 3.39174e-16 3.39173e-16 2.87695e-22 8.48223e-07 3.40759e-06 1.0186e-19 2.35811e-17 2.5694e-18 1.05345e-16 4.51177e-17 5.13377e-16 1.22206e-15 4.50363e-15 1.07524e-14 2.33833e-14
11.7094 1.78107e-16 1.78107e-16 2.37147e-22 1.33148e-06 2.82193e-06 1.87096e-19 2.73092e-17 4.03137e-18 1.17802e-16 6.15468e-17 5.51282e-16 1.41906e-15 4.53778e-15 1.1228e-14 2.22888e-14
12.3105 1.83373e-16 1.83373e-16 1.92824e-22 1.05154e-06 2.20657e-06 6.26139e-19 5.94755e-17 1.16133e-17 2.47986e-16 1.55208e-16 1.11542e-15 3.07023e-15 8.62603e-15 2.19591e-14 4.01338e-14
12.9424 1.49738e-16 1.49738e-16 1.57451e-22 1.0515e-06 1.60755e-06 1.54993e-18 9.8702e-17 2.49274e-17 3.98181e-16 2.93535e-16 1.7229e-15 5.01914e-15 1.25337e-14 3.26104e-14 5.5308e-14
13.6067 1.12726e-16 1.12726e-16 1.2857e-22 1.14055e-06 1.1077e-06 3.31001e-18 1.45322e-16 4.64828e-17 5.67738e-16 4.85273e-16 2.36511e-15 7.22364e-15 1.62047e-14 4.28354e-14 6.79062e-14
14.3051 8.62796e-17 8.62795e-17 1.04903e-22 1.21584e-06 6.74289e-07 6.74713e-18 2.09667e-16 8.32836e-17 7.93926e-16 7.75383e-16 3.18667e-15 1.01164e-14 2.05881e-14 5.4996e-14 8.20326e-14
15.0394 7.04993e-17 7.04992e-17 8.55418e-23 1.21337e-06 2.84333e-07 1.3827e-17 3.11731e-16 1.50966e-16 1.14499e-15 1.26046e-15 4.43127e-15 1.45069e-14 2.70271e-14 7.26069e-14 1.02521e-13
15.8114 7.26249e-17 7.26248e-17 6.97525e-23 9.60449e-07 -8.11261e-08 3.37407e-17 5.64859e-16 3.27807e-16 2.01395e-15 2.46757e-15 7.52029e-15 2.52065e-14 4.33502e-14 1.16619e-13 1.56741e-13
16.623 1.01306e-16 1.01306e-16 5.6867e-23 5.61337e-07 -4.49263e-07 1.05594e-16 1.34166e-15 9.18107e-16 4.64643e-15 6.26241e-15 1.67511e-14 5.71096e-14 9.13631e-14 2.4518e-13 3.15264e-13
17.4762 8.67986e-17 8.67985e-17 4.63376e-23 5.33853e-07 -8.02957e-07 1.92756e-16 1.8973e-15 1.50801e-15 6.38616e-15 9.3657e-15 2.22414e-14 7.66723e-14 1.14905e-13 3.06564e-13 3.78868e-13
18.3733 5.69513e-17 5.69512e-17 3.77376e-23 6.62629e-07 -1.13805e-06 2.56536e-16 1.99421e-15 1.8152e-15 6.52725e-15 1.03119e-14 2.19733e-14 7.61824e-14 1.07646e-13 2.84676e-13 3.39561e-13
19.3164 4.77429e-17 4.77428e-17 3.07731e-23 6.4456e-07 -1.48001e-06 4.16291e-16 2.60236e-15 2.67721e-15 8.28687e-15 1.39721e-14 2.69797e-14 9.36217e-14 1.25469e-13 3.28038e-13 3.79097e-13
20.3079 4.07429e-17 4.07429e-17 2.511e-23 6.16304e-07 -1.86749e-06 6.5777e-16 3.36329e-15 3.86275e-15 1.0424e-14 1.85969e-14 3.28385e-14 1.13559e-13 1.45127e-13 3.74271e-13 4.20515e-13
21.3503 3.5198e-17 3.5198e-17 2.0511e-23 5.82731e-07 -2.15094e-06 1.00857e-15 4.2857e-15 5.43237e-15 1.29332e-14 2.4222e-14 3.94435e-14 1.35403e-13 1.65834e-13 4.21026e-13 4.61363e-13
22.4463 3.05284e-17 3.05284e-17 1.68084e-23 5.50583e-07 -2.3771e-06 1.49136e-15 5.34564e-15 7.39884e-15 1.57125e-14 3.06681e-14 4.64138e-14 1.57622e-13 1.85843e-13 4.63715e-13 4.97013e-13
23.5984 2.65234e-17 2.65234e-17 1.38566e-23 5.22429e-07 -2.58377e-06 2.12608e-15 6.51861e-15 9.75438e-15 1.86679e-14 3.77202e-14 5.34363e-14 1.78978e-13 2.03988e-13 4.99535e-13 5.25039e-13
24.8097 2.3072e-17 2.3072e-17 1.15218e-23 4.99386e-07 -2.86698e-06 2.92618e-15 7.77501e-15 1.24629e-14 2.16999e-14 4.51147e-14 6.02203e-14 1.98398e-13 2.19408e-13 5.26692e-13 5.4414e-13
26.0832 2.01011e-17 2.0101e-17 9.7045e-24 4.82786e-07 -3.05486e-06 3.8964e-15 9.08198e-15 1.54617e-14 2.47097e-14 5.25632e-14 6.65121e-14 2.15035e-13 2.31539e-13 5.44319e-13 5.53934e-13
27.4221 1.75518e-17 1.75518e-17 8.28679e-24 4.72134e-07 -3.20425e-06 5.03147e-15 1.04056e-14 1.86666e-14 2.76053e-14 5.9779e-14 7.2107e-14 2.2831e-13 2.40099e-13 5.52346e-13 5.54752e-13
28.8297 1.53603e-17 1.53603e-17 7.19543e-24 4.68444e-07 -3.26259e-06 6.31098e-15 1.1704e-14 2.1962e-14 3.02827e-14 6.64483e-14 7.6796e-14 2.37726e-13 2.4486e-13 5.50906e-13 5.47015e-13
30.3095 1.34717e-17 1.34717e-17 6.32489e-24 4.69494e-07 -3.28805e-06 7.70031e-15 1.29329e-14 2.52142e-14 3.26431e-14 7.22762e-14 8.04092e-14 2.42996e-13 2.45772e-13 5.40562e-13 5.31468e-13
31.8653 1.18414e-17 1.18414e-17 5.55715e-24 4.69298e-07 -3.23393e-06 9.15314e-15 1.40507e-14 2.82855e-14 3.46041e-14 7.70199e-14 8.28372e-14 2.44091e-13 2.42987e-13 5.22312e-13 5.09188e-13
33.5009 1.04357e-17 1.04357e-17 4.87424e-24 4.67072e-07 -3.17463e-06 1.06186e-14 1.50258e-14 3.10562e-14 3.61162e-14 8.05327e-14 8.40629e-14 2.4129e-13 2.36908e-13 4.97619e-13 4.81623e-13
35.2206 9.21572e-18 9.21572e-18 4.17425e-24 4.52949e-07 -2.99474e-06 1.20314e-14 1.58188e-14 3.33934e-14 3.71172e-14 8.26641e-14 8.40437e-14 2.3481e-13 2.27818e-13 4.6759e-13 4.49806e-13
37.0284 8.15415e-18 8.15414e-18 3.53085e-24 4.33013e-07 -2.81542e-06 1.33299e-14 1.64042e-14 3.52004e-14 3.75835e-14 8.33746e-14 8.28299e-14 2.25127e-13 2.16207e-13 4.33654e-13 4.15039e-13
38.9291 7.2291e-18 7.2291e-18 2.93319e-24 4.05748e-07 -2.57221e-06 1.44586e-14 1.67678e-14 3.64159e-14 3.75207e-14 8.27101e-14 8.05303e-14 2.12842e-13 2.02644e-13 3.9727e-13 3.78619e-13
40.9273 6.42156e-18 6.42155e-18 2.41319e-24 3.75796e-07 -2.31279e-06 1.5371e-14 1.69044e-14 3.70109e-14 3.69546e-14 8.07773e-14 7.72856e-14 1.98589e-13 1.87699e-13 3.59756e-13 3.41697e-13
43.0282 5.713e-18 5.713e-18 1.96873e-24 3.44604e-07 -1.96729e-06 1.60269e-14 1.68116e-14 3.69749e-14 3.5915e-14 7.77015e-14 7.32318e-14 1.82928e-13 1.71851e-13 3.22138e-13 3.05136e-13
45.2368 5.08986e-18 5.08986e-18 1.60073e-24 3.14493e-07 -1.59459e-06 1.64046e-14 1.65008e-14 3.63396e-14 3.44591e-14 7.3671e-14 6.85455e-14 1.66459e-13 1.55602e-13 2.85386e-13 2.69756e-13
47.5588 4.54182e-18 4.54182e-18 1.29827e-24 2.85848e-07 -9.55066e-07 1.65024e-14 1.59954e-14 3.51724e-14 3.2664e-14 6.89145e-14 6.34252e-14 1.49767e-13 1.39439e-13 2.50341e-13 2.36261e-13
50 4.05801e-18 4.05801e-18 1.05314e-24 2.59523e-07 -3.43136e-07 1.63259e-14 1.53177e-14 3.35447e-14 3.05982e-14 6.36337e-14 5.80332e-14 1.33285e-13 1.23703e-13 2.17517e-13 2.05058e-13
52.5665 3.6296e-18 3.6296e-18 8.53792e-25 2.3523e-07 3.3123e-07 1.58949e-14 1.44955e-14 3.15432e-14 2.8335e-14 5.80303e-14 5.25256e-14 1.17381e-13 1.08681e-13 1.87274e-13 1.76426e-13
55.2648 3.2496e-18 3.2496e-18 6.9231e-25 2.13045e-07 9.41234e-07 1.52414e-14 1.35612e-14 2.92651e-14 2.59506e-14 5.22983e-14 4.70483e-14 1.02353e-13 9.46018e-14 1.59845e-13 1.50535e-13
58.1015 2.91295e-18 2.91295e-18 5.62147e-25 1.92982e-07 1.47135e-06 1.44094e-14 1.25519e-14 2.68159e-14 2.35232e-14 4.66218e-14 4.1738e-14 8.84423e-14 8.16492e-14 1.35365e-13 1.27475e-13
61.0839 2.61321e-18 2.61321e-18 4.56636e-25 1.74741e-07 1.90225e-06 1.3436e-14 1.14943e-14 2.42747e-14 2.11057e-14 4.112e-14 3.66746e-14 7.5742e-14 6.98773e-14 1.13745e-13 1.07138e-13
64.2193 2.34596e-18 2.34596e-18 3.71082e-25 1.58179e-07 2.23814e-06 1.23651e-14 1.04181e-14 2.1722e-14 1.87513e-14 3.59021e-14 3.19319e-14 6.43185e-14 5.93236e-14 9.48767e-14 8.94027e-14
67.5157 2.10766e-18 2.10766e-18 3.01792e-25 1.43189e-07 2.4602e-06 1.12402e-14 9.35082e-15 1.92286e-14 1.65055e-14 3.10512e-14 2.75644e-14 5.41897e-14 4.99869e-14 7.86003e-14 7.41093e-14
70.9813 1.89503e-18 1.89503e-18 2.45681e-25 1.29645e-07 2.59315e-06 1.00995e-14 8.31507e-15 1.68492e-14 1.44011e-14 2.66186e-14 2.36016e-14 4.53212e-14 4.18237e-14 6.47035e-14 6.10512e-14
