# 0.00023714 1 153 : grain size, compostion index, size index
# Heating and cooling timescale: 3.62983e-05 4.29162e+12
# Ratio of heating to cooling to determine stochastic cutoff: 100
# Equilibrium emission is recorded even for those grains in the stochastic regime.
# Emission spectrum was computed for: 
# Type: IRSF
# Scales: 0.25 0.5 1 1.5 2 2.5 3 3.5 4 4.5 5 5.5 6 6.5 7 7.5 8 8.5 9 9.5 10
# StochasticallyHeated: 0 0 0 0 0 0 0 0 0 0 0 0 0 0 0 0 0 0 0 0 0
# Temperature: -1
# Wavelength  CExt  CAbs  CSca  Albedo G EqEm1 StEm1 EqEm2 StEm2 EqEm3 StEm3 EqEm4 StEm4 EqEm5 StEm5 EqEm6 StEm6 EqEm7 StEm7 EqEm8 StEm8 EqEm9 StEm9 EqEm10 StEm10 EqEm11 StEm11 EqEm12 StEm12 EqEm13 StEm13 EqEm14 StEm14 EqEm15 StEm15 EqEm16 StEm16 EqEm17 StEm17 EqEm18 StEm18 EqEm19 StEm19 EqEm20 StEm20 EqEm21 StEm21
0.05 9.09873e-08 4.04875e-08 5.04998e-08 0.555021 0.214754 0 0 0 0 0 0 0 0 0 0 0 0 0 0 0 0 0 0 0 0 0 0 0 0 0 0 0 0 0 0 0 0 0 0 0 0 0 0 0 0 0 0
0.0525665 1.00568e-07 4.47506e-08 5.58172e-08 0.555021 0.237367 0 0 0 0 0 0 0 0 0 0 0 0 0 0 0 0 0 0 0 0 0 0 0 0 0 0 0 0 0 0 0 0 0 0 0 0 0 0 0 0 0 0
0.0552647 1.11157e-07 4.94627e-08 6.16945e-08 0.555021 0.262361 0 0 0 0 0 0 0 0 0 0 0 0 0 0 0 0 0 0 0 0 0 0 0 0 0 0 0 0 0 0 0 0 0 0 0 0 0 0 0 0 0 0
0.0581015 1.22861e-07 5.46708e-08 6.81906e-08 0.555021 0.289986 0 0 0 0 0 0 0 0 0 0 0 0 0 0 0 0 0 0 0 0 0 0 0 0 0 0 0 0 0 0 0 0 0 0 0 0 0 0 0 0 0 0
0.0610839 1.35798e-07 6.04274e-08 7.53708e-08 0.555021 0.32052 0 0 0 0 0 0 0 0 0 0 0 0 0 0 0 0 0 0 0 0 0 0 0 0 0 0 0 0 0 0 0 0 0 0 0 0 0 0 0 0 0 0
0.0642193 1.50097e-07 6.67901e-08 8.3307e-08 0.555021 0.354269 0 0 0 0 0 0 0 0 0 0 0 0 0 0 0 0 0 0 0 0 0 0 0 0 0 0 0 0 0 0 0 0 0 0 0 0 0 0 0 0 0 0
0.0675157 1.65902e-07 7.38228e-08 9.20788e-08 0.555021 0.391572 0 0 0 0 0 0 0 0 0 0 0 0 0 0 0 0 0 0 0 0 0 0 0 0 0 0 0 0 0 0 0 0 0 0 0 0 0 0 0 0 0 0
0.0709813 1.8337e-07 8.1596e-08 1.01774e-07 0.555021 0.432803 0 0 0 0 0 0 0 0 0 0 0 0 0 0 0 0 0 0 0 0 0 0 0 0 0 0 0 0 0 0 0 0 0 0 0 0 0 0 0 0 0 0
0.0746248 2.02678e-07 9.01876e-08 1.12491e-07 0.555021 0.478375 0 0 0 0 0 0 0 0 0 0 0 0 0 0 0 0 0 0 0 0 0 0 0 0 0 0 0 0 0 0 0 0 0 0 0 0 0 0 0 0 0 0
0.0784553 2.24019e-07 9.9684e-08 1.24335e-07 0.55502 0.528745 0 0 0 0 0 0 0 0 0 0 0 0 0 0 0 0 0 0 0 0 0 0 0 0 0 0 0 0 0 0 0 0 0 0 0 0 0 0 0 0 0 0
0.0824824 2.47607e-07 1.1018e-07 1.37427e-07 0.555021 0.584419 0 0 0 0 0 0 0 0 0 0 0 0 0 0 0 0 0 0 0 0 0 0 0 0 0 0 0 0 0 0 0 0 0 0 0 0 0 0 0 0 0 0
0.0867162 2.73679e-07 1.21782e-07 1.51898e-07 0.555021 0.645956 0 0 0 0 0 0 0 0 0 0 0 0 0 0 0 0 0 0 0 0 0 0 0 0 0 0 0 0 0 0 0 0 0 0 0 0 0 0 0 0 0 0
0.0911674 3.02496e-07 1.34605e-07 1.67892e-07 0.555021 0.713973 0 0 0 0 0 0 0 0 0 0 0 0 0 0 0 0 0 0 0 0 0 0 0 0 0 0 0 0 0 0 0 0 0 0 0 0 0 0 0 0 0 0
0.095847 3.34348e-07 1.48778e-07 1.8557e-07 0.55502 0.78915 0 0 0 0 0 0 0 0 0 0 0 0 0 0 0 0 0 0 0 0 0 0 0 0 0 0 0 0 0 0 0 0 0 0 0 0 0 0 0 0 0 0
0.100767 3.63998e-07 1.61998e-07 2.01999e-07 0.554947 0.859052 0 0 0 0 0 0 0 0 0 0 0 0 0 0 0 0 0 0 0 0 0 0 0 0 0 0 0 0 0 0 0 0 0 0 0 0 0 0 0 0 0 0
0.105939 3.64372e-07 1.62337e-07 2.02035e-07 0.554476 0.862829 0 0 0 0 0 0 0 0 0 0 0 0 0 0 0 0 0 0 0 0 0 0 0 0 0 0 0 0 0 0 0 0 0 0 0 0 0 0 0 0 0 0
0.111377 3.64747e-07 1.62764e-07 2.01983e-07 0.553762 0.867693 0 0 0 0 0 0 0 0 0 0 0 0 0 0 0 0 0 0 0 0 0 0 0 0 0 0 0 0 0 0 0 0 0 0 0 0 0 0 0 0 0 0
0.117094 3.65125e-07 1.63165e-07 2.0196e-07 0.553125 0.870775 0 0 0 0 0 0 0 0 0 0 0 0 0 0 0 0 0 0 0 0 0 0 0 0 0 0 0 0 0 0 0 0 0 0 0 0 0 0 0 0 0 0
0.123105 3.65502e-07 1.63754e-07 2.01748e-07 0.551974 0.872684 0 0 0 0 0 0 0 0 0 0 0 0 0 0 0 0 0 0 0 0 0 0 0 0 0 0 0 0 0 0 0 0 0 0 0 0 0 0 0 0 0 0
0.129424 3.65869e-07 1.64439e-07 2.0143e-07 0.550553 0.873574 0 0 0 0 0 0 0 0 0 0 0 0 0 0 0 0 0 0 0 0 0 0 0 0 0 0 0 0 0 0 0 0 0 0 0 0 0 0 0 0 0 0
0.136067 3.66259e-07 1.64881e-07 2.01378e-07 0.549824 0.873267 0 0 0 0 0 0 0 0 0 0 0 0 0 0 0 0 0 0 0 0 0 0 0 0 0 0 0 0 0 0 0 0 0 0 0 0 0 0 0 0 0 0
0.143051 3.66652e-07 1.6567e-07 2.00982e-07 0.548155 0.870959 0 0 0 0 0 0 0 0 0 0 0 0 0 0 0 0 0 0 0 0 0 0 0 0 0 0 0 0 0 0 0 0 0 0 0 0 0 0 0 0 0 0
0.150394 3.67072e-07 1.66943e-07 2.00129e-07 0.545204 0.872058 0 0 0 0 0 0 0 0 0 0 0 0 0 0 0 0 0 0 0 0 0 0 0 0 0 0 0 0 0 0 0 0 0 0 0 0 0 0 0 0 0 0
0.158114 3.67581e-07 1.68601e-07 1.9898e-07 0.541323 0.87823 0 0 0 0 0 0 0 0 0 0 0 0 0 0 0 0 0 0 0 0 0 0 0 0 0 0 0 0 0 0 0 0 0 0 0 0 0 0 0 0 0 0
0.16623 3.68161e-07 1.70332e-07 1.97829e-07 0.537343 0.885822 0 0 0 0 0 0 0 0 0 0 0 0 0 0 0 0 0 0 0 0 0 0 0 0 0 0 0 0 0 0 0 0 0 0 0 0 0 0 0 0 0 0
0.174762 3.68766e-07 1.71905e-07 1.9686e-07 0.533836 0.892715 0 0 0 0 0 0 0 0 0 0 0 0 0 0 0 0 0 0 0 0 0 0 0 0 0 0 0 0 0 0 0 0 0 0 0 0 0 0 0 0 0 0
0.183733 3.69373e-07 1.72362e-07 1.97011e-07 0.533366 0.898862 0 0 0 0 0 0 0 0 0 0 0 0 0 0 0 0 0 0 0 0 0 0 0 0 0 0 0 0 0 0 0 0 0 0 0 0 0 0 0 0 0 0
0.193164 3.71195e-07 1.68146e-07 2.03049e-07 0.547015 0.904064 0 0 0 0 0 0 0 0 0 0 0 0 0 0 0 0 0 0 0 0 0 0 0 0 0 0 0 0 0 0 0 0 0 0 0 0 0 0 0 0 0 0
0.203079 3.71518e-07 1.68788e-07 2.0273e-07 0.54568 0.908464 0 0 0 0 0 0 0 0 0 0 0 0 0 0 0 0 0 0 0 0 0 0 0 0 0 0 0 0 0 0 0 0 0 0 0 0 0 0 0 0 0 0
0.213503 3.71192e-07 1.70995e-07 2.00197e-07 0.539335 0.912221 0 0 0 0 0 0 0 0 0 0 0 0 0 0 0 0 0 0 0 0 0 0 0 0 0 0 0 0 0 0 0 0 0 0 0 0 0 0 0 0 0 0
0.224463 3.70958e-07 1.72598e-07 1.9836e-07 0.534723 0.915263 0 0 0 0 0 0 0 0 0 0 0 0 0 0 0 0 0 0 0 0 0 0 0 0 0 0 0 0 0 0 0 0 0 0 0 0 0 0 0 0 0 0
0.235984 3.70809e-07 1.74204e-07 1.96605e-07 0.530205 0.917374 0 0 0 0 0 0 0 0 0 0 0 0 0 0 0 0 0 0 0 0 0 0 0 0 0 0 0 0 0 0 0 0 0 0 0 0 0 0 0 0 0 0
0.248097 3.7083e-07 1.75602e-07 1.95228e-07 0.526462 0.919085 0 0 0 0 0 0 0 0 0 0 0 0 0 0 0 0 0 0 0 0 0 0 0 0 0 0 0 0 0 0 0 0 0 0 0 0 0 0 0 0 0 0
0.260832 3.71065e-07 1.76764e-07 1.94301e-07 0.523631 0.920371 0 0 0 0 0 0 0 0 0 0 0 0 0 0 0 0 0 0 0 0 0 0 0 0 0 0 0 0 0 0 0 0 0 0 0 0 0 0 0 0 0 0
0.274221 3.71441e-07 1.7771e-07 1.93731e-07 0.521566 0.921434 0 0 0 0 0 0 0 0 0 0 0 0 0 0 0 0 0 0 0 0 0 0 0 0 0 0 0 0 0 0 0 0 0 0 0 0 0 0 0 0 0 0
0.288297 3.71942e-07 1.78497e-07 1.93445e-07 0.520094 0.922137 0 0 0 0 0 0 0 0 0 0 0 0 0 0 0 0 0 0 0 0 0 0 0 0 0 0 0 0 0 0 0 0 0 0 0 0 0 0 0 0 0 0
0.303095 3.72543e-07 1.79183e-07 1.9336e-07 0.519028 0.922168 0 0 0 0 0 0 0 0 0 0 0 0 0 0 0 0 0 0 0 0 0 0 0 0 0 0 0 0 0 0 0 0 0 0 0 0 0 0 0 0 0 0
0.318653 3.73216e-07 1.79782e-07 1.93434e-07 0.518289 0.922652 0 0 0 0 0 0 0 0 0 0 0 0 0 0 0 0 0 0 0 0 0 0 0 0 0 0 0 0 0 0 0 0 0 0 0 0 0 0 0 0 0 0
0.335009 3.73963e-07 1.80337e-07 1.93625e-07 0.517767 0.922753 0 0 0 0 0 0 0 0 0 0 0 0 0 0 0 0 0 0 0 0 0 0 0 0 0 0 0 0 0 0 0 0 0 0 0 0 0 0 0 0 0 0
0.352205 3.74773e-07 1.80865e-07 1.93908e-07 0.517401 0.92203 0 0 0 0 0 0 0 0 0 0 0 0 0 0 0 0 0 0 0 0 0 0 0 0 0 0 0 0 0 0 0 0 0 0 0 0 0 0 0 0 0 0
0.370284 3.75633e-07 1.8138e-07 1.94253e-07 0.517135 0.922472 0 0 0 0 0 0 0 0 0 0 0 0 0 0 0 0 0 0 0 0 0 0 0 0 0 0 0 0 0 0 0 0 0 0 0 0 0 0 0 0 0 0
0.389291 3.76542e-07 1.81886e-07 1.94657e-07 0.516958 0.920931 0 0 0 0 0 0 0 0 0 0 0 0 0 0 0 0 0 0 0 0 0 0 0 0 0 0 0 0 0 0 0 0 0 0 0 0 0 0 0 0 0 0
0.409273 3.77506e-07 1.82401e-07 1.95105e-07 0.516826 0.920957 0 0 0 0 0 0 0 0 0 0 0 0 0 0 0 0 0 0 0 0 0 0 0 0 0 0 0 0 0 0 0 0 0 0 0 0 0 0 0 0 0 0
0.430281 3.78519e-07 1.82922e-07 1.95597e-07 0.516742 0.919578 0 0 0 0 0 0 0 0 0 0 0 0 0 0 0 0 0 0 0 0 0 0 0 0 0 0 0 0 0 0 0 0 0 0 0 0 0 0 0 0 0 0
0.452368 3.79584e-07 1.83462e-07 1.96122e-07 0.516676 0.917725 0 0 0 0 0 0 0 0 0 0 0 0 0 0 0 0 0 0 0 0 0 0 0 0 0 0 0 0 0 0 0 0 0 0 0 0 0 0 0 0 0 0
0.475588 3.80698e-07 1.84019e-07 1.96679e-07 0.516627 0.918225 0 0 0 0 0 0 0 0 0 0 0 0 0 0 0 0 0 0 0 0 0 0 0 0 0 0 0 0 0 0 0 0 0 0 0 0 0 0 0 0 0 0
0.5 3.81871e-07 1.84593e-07 1.97278e-07 0.516609 0.9144 0 0 0 0 0 0 0 0 0 0 0 0 0 0 0 0 0 0 0 0 0 0 0 0 0 0 0 0 0 0 0 0 0 0 0 0 0 0 0 0 0 0
0.525665 3.83106e-07 1.85188e-07 1.97917e-07 0.516613 0.912546 0 0 0 0 0 0 0 0 0 0 0 0 0 0 0 0 0 0 0 0 0 0 0 0 0 0 0 0 0 0 0 0 0 0 0 0 0 0 0 0 0 0
0.552648 3.84388e-07 1.85807e-07 1.98581e-07 0.516616 0.912678 0 0 0 0 0 0 0 0 0 0 0 0 0 0 0 0 0 0 0 0 0 0 0 0 0 0 0 0 0 0 0 0 0 0 0 0 0 0 0 0 0 0
0.581015 3.85754e-07 1.86464e-07 1.99289e-07 0.516623 0.908617 0 0 0 0 0 0 0 0 0 0 0 0 0 0 0 0 0 0 0 0 0 0 0 0 0 0 0 0 0 0 0 0 0 0 0 0 0 0 0 0 0 0
0.610839 3.87169e-07 1.87142e-07 2.00026e-07 0.516639 0.904483 0 0 0 0 0 0 0 0 0 0 0 0 0 0 0 0 0 0 0 0 0 0 0 0 0 0 0 0 0 0 0 0 0 0 0 0 0 0 0 0 0 0
0.642193 3.8867e-07 1.87857e-07 2.00813e-07 0.516667 0.904236 0 0 0 0 0 0 0 0 0 0 0 0 0 0 0 0 0 0 0 0 0 0 0 0 0 0 0 0 0 0 0 0 0 0 0 0 0 0 0 0 0 0
0.675157 3.90225e-07 1.88596e-07 2.01629e-07 0.516698 0.90272 0 0 0 0 0 0 0 0 0 0 0 0 0 0 0 0 0 0 0 0 0 0 0 0 0 0 0 0 0 0 0 0 0 0 0 0 0 0 0 0 0 0
0.709813 3.91885e-07 1.89398e-07 2.02486e-07 0.516699 0.895737 0 0 0 0 0 0 0 0 0 0 0 0 0 0 0 0 0 0 0 0 0 0 0 0 0 0 0 0 0 0 0 0 0 0 0 0 0 0 0 0 0 0
0.746248 3.93623e-07 1.90226e-07 2.03397e-07 0.516731 0.888151 0 0 0 0 0 0 0 0 0 0 0 0 0 0 0 0 0 0 0 0 0 0 0 0 0 0 0 0 0 0 0 0 0 0 0 0 0 0 0 0 0 0
0.784553 3.95454e-07 1.91111e-07 2.04343e-07 0.516731 0.886259 0 0 0 0 0 0 0 0 0 0 0 0 0 0 0 0 0 0 0 0 0 0 0 0 0 0 0 0 0 0 0 0 0 0 0 0 0 0 0 0 0 0
0.824824 3.9738e-07 1.92033e-07 2.05346e-07 0.516751 0.888416 0 0 0 0 0 0 0 0 0 0 0 0 0 0 0 0 0 0 0 0 0 0 0 0 0 0 0 0 0 0 0 0 0 0 0 0 0 0 0 0 0 0
0.867162 3.99405e-07 1.93007e-07 2.06398e-07 0.516765 0.886934 0 0 0 0 0 0 0 0 0 0 0 0 0 0 0 0 0 0 0 0 0 0 0 0 0 0 0 0 0 0 0 0 0 0 0 0 0 0 0 0 0 0
0.911674 4.01546e-07 1.93988e-07 2.07558e-07 0.516897 0.878417 0 0 0 0 0 0 0 0 0 0 0 0 0 0 0 0 0 0 0 0 0 0 0 0 0 0 0 0 0 0 0 0 0 0 0 0 0 0 0 0 0 0
0.95847 4.04473e-07 1.94854e-07 2.09619e-07 0.518253 0.865712 0 0 0 0 0 0 0 0 0 0 0 0 0 0 0 0 0 0 0 0 0 0 0 0 0 0 0 0 0 0 0 0 0 0 0 0 0 0 0 0 0 0
1.00767 4.11893e-07 1.95499e-07 2.16394e-07 0.525365 0.858257 0 0 0 0 0 0 0 0 0 0 0 0 0 0 0 0 0 0 0 0 0 0 0 0 0 0 0 0 0 0 0 0 0 0 0 0 0 0 0 0 0 0
1.05939 4.22952e-07 1.9675e-07 2.26203e-07 0.534819 0.857931 0 0 0 0 0 0 0 0 0 0 0 0 0 0 0 0 0 0 0 0 0 0 0 0 0 0 0 0 0 0 0 0 0 0 0 0 0 0 0 0 0 0
1.11377 4.31238e-07 1.98389e-07 2.32848e-07 0.539954 0.857423 0 0 0 0 0 0 0 0 0 0 0 0 0 0 0 0 0 0 0 0 0 0 0 0 0 0 0 0 0 0 0 0 0 0 0 0 0 0 0 0 0 0
1.17094 4.33598e-07 1.99885e-07 2.33713e-07 0.539009 0.854539 0 0 0 0 0 0 0 0 0 0 0 0 0 0 0 0 0 0 0 0 0 0 0 0 0 0 0 0 0 0 0 0 0 0 0 0 0 0 0 0 0 0
1.23105 4.3097e-07 2.0181e-07 2.2916e-07 0.531731 0.84724 0 0 0 0 0 0 0 0 0 0 0 0 0 0 0 0 0 0 0 0 0 0 0 0 0 0 0 0 0 0 0 0 0 0 0 0 0 0 0 0 0 0
1.29424 4.26871e-07 2.03466e-07 2.23405e-07 0.523355 0.826465 0 0 0 0 0 0 0 0 0 0 0 0 0 0 0 0 0 0 0 0 0 0 0 0 0 0 0 0 0 0 0 0 0 0 0 0 0 0 0 0 0 0
1.36067 4.24591e-07 2.05253e-07 2.19338e-07 0.516586 0.806662 0 0 0 0 0 0 0 0 0 0 0 0 0 0 0 0 0 0 0 0 0 0 0 0 0 0 0 0 0 0 0 0 0 0 0 0 0 0 0 0 0 0
1.43051 4.25665e-07 2.06619e-07 2.19045e-07 0.514596 0.796744 0 0 0 0 0 0 0 0 0 0 0 0 0 0 0 0 0 0 0 0 0 0 0 0 0 0 0 0 0 0 0 0 0 0 0 0 0 0 0 0 0 0
1.50394 4.3089e-07 2.08243e-07 2.22647e-07 0.516714 0.798033 0 0 0 0 0 0 0 0 0 0 0 0 0 0 0 0 0 0 0 0 0 0 0 0 0 0 0 0 0 0 0 0 0 0 0 0 0 0 0 0 0 0
1.58114 4.37544e-07 2.09961e-07 2.27582e-07 0.520136 0.81165 0 0 0 0 0 0 0 0 0 0 0 0 0 0 0 0 0 0 0 0 0 0 0 0 0 0 0 0 0 0 0 0 0 0 0 0 0 0 0 0 0 0
1.6623 4.43106e-07 2.10716e-07 2.3239e-07 0.524456 0.826833 0 0 0 0 0 0 0 0 0 0 0 0 0 0 0 0 0 0 0 0 0 0 0 0 0 0 0 0 0 0 0 0 0 0 0 0 0 0 0 0 0 0
1.74763 4.46543e-07 2.12393e-07 2.3415e-07 0.524361 0.835056 0 0 0 0 0 0 0 0 0 0 0 0 0 0 0 0 0 0 0 0 0 0 0 0 0 0 0 0 0 0 0 0 0 0 0 0 0 0 0 0 0 0
1.83733 4.46766e-07 2.13874e-07 2.32892e-07 0.521284 0.84142 0 0 0 0 0 0 0 0 0 0 0 0 0 0 0 0 0 0 0 0 0 0 0 0 0 0 0 0 0 0 0 0 0 0 0 0 0 0 0 0 0 0
1.93164 4.4474e-07 2.14735e-07 2.30005e-07 0.517167 0.828554 0 0 0 0 0 0 0 0 0 0 0 0 0 0 0 0 0 0 0 0 0 0 0 0 0 0 0 0 0 0 0 0 0 0 0 0 0 0 0 0 0 0
2.03079 4.42843e-07 2.16977e-07 2.25866e-07 0.510036 0.815438 0 0 0 0 0 0 0 0 0 0 0 0 0 0 0 0 0 0 0 0 0 0 0 0 0 0 0 0 0 0 0 0 0 0 0 0 0 0 0 0 0 0
2.13503 4.41941e-07 2.18247e-07 2.23694e-07 0.506162 0.770481 0 0 0 0 0 0 0 0 0 0 0 0 0 0 0 0 0 0 0 0 0 0 0 0 0 0 0 0 0 0 0 0 0 0 0 0 0 0 0 0 0 0
2.24463 4.4553e-07 2.20154e-07 2.25377e-07 0.505862 0.729788 0 0 0 0 0 0 0 0 0 0 0 0 0 0 0 0 0 0 0 0 0 0 0 0 0 0 0 0 0 0 0 0 0 0 0 0 0 0 0 0 0 0
2.35984 4.506e-07 2.21056e-07 2.29544e-07 0.509418 0.665828 0 0 0 0 0 0 0 0 0 0 0 0 0 0 0 0 0 0 0 0 0 0 0 0 0 0 0 0 0 0 0 0 0 0 0 0 0 0 0 0 0 0
2.48097 4.61797e-07 2.23234e-07 2.38563e-07 0.516597 0.585548 0 0 0 0 0 0 0 0 0 0 0 0 0 0 0 0 0 0 0 0 0 0 0 0 0 0 0 0 0 0 0 0 0 0 0 0 0 0 0 0 0 0
2.60832 4.73624e-07 2.25003e-07 2.48621e-07 0.524933 0.569629 0 0 0 0 0 0 0 0 0 0 0 0 0 0 0 0 0 0 0 0 0 0 0 0 0 0 0 0 0 0 0 0 0 0 0 0 0 0 0 0 0 0
2.74221 4.87827e-07 2.25717e-07 2.62109e-07 0.5373 0.530707 0 0 0 0 0 0 0 0 0 0 0 0 0 0 0 0 0 0 0 0 0 0 0 0 0 0 0 0 0 0 0 0 0 0 0 0 0 0 0 0 0 0
2.88297 5.03574e-07 2.27895e-07 2.75679e-07 0.547445 0.540369 0 0 0 0 0 0 0 0 0 0 0 0 0 0 0 0 0 0 0 0 0 0 0 0 0 0 0 0 0 0 0 0 0 0 0 0 0 0 0 0 0 0
3.03095 5.15873e-07 2.29868e-07 2.86005e-07 0.554409 0.577845 0 0 0 0 0 0 0 0 0 0 0 0 0 0 0 0 0 0 0 0 0 0 0 0 0 0 0 0 0 0 0 0 0 0 0 0 0 0 0 0 0 0
3.18653 5.27474e-07 2.31168e-07 2.96306e-07 0.561745 0.591009 0 0 0 0 0 0 0 0 0 0 0 0 0 0 0 0 0 0 0 0 0 0 0 0 0 0 0 0 0 0 0 0 0 0 0 0 0 0 0 0 0 0
3.35009 5.38016e-07 2.33141e-07 3.04875e-07 0.566665 0.634177 0 0 0 0 0 0 0 0 0 0 0 0 0 0 0 0 0 0 0 0 0 0 0 0 0 0 0 0 0 0 0 0 0 0 0 0 0 0 0 0 0 0
3.52205 5.43251e-07 2.36278e-07 3.06973e-07 0.565067 0.666025 0 0 0 0 0 0 0 0 0 0 0 0 0 0 0 0 0 0 0 0 0 0 0 0 0 0 0 0 0 0 0 0 0 0 0 0 0 0 0 0 0 0
3.70284 5.56451e-07 2.33377e-07 3.23075e-07 0.580598 0.677272 0 0 0 0 0 0 0 0 0 0 0 0 0 0 0 0 0 0 0 0 0 0 0 0 0 0 0 0 0 0 0 0 0 0 0 0 0 0 0 0 0 0
3.89291 5.62429e-07 2.32356e-07 3.30073e-07 0.586871 0.690054 0 0 0 0 0 0 0 0 0 0 0 0 0 0 0 0 0 0 0 0 0 0 0 0 0 0 0 0 0 0 0 0 0 0 0 0 0 0 0 0 0 0
4.09273 5.65156e-07 2.3161e-07 3.33546e-07 0.590184 0.715649 0 0 0 0 0 0 0 0 0 0 0 0 0 0 0 0 0 0 0 0 0 0 0 0 0 0 0 0 0 0 0 0 0 0 0 0 0 0 0 0 0 0
4.30281 5.64754e-07 2.31848e-07 3.32907e-07 0.589472 0.727759 0 0 0 0 0 0 0 0 0 0 0 0 0 0 0 0 0 0 0 0 0 0 0 0 0 0 0 0 0 0 0 0 0 0 0 0 0 0 0 0 0 0
4.52368 5.60333e-07 2.32504e-07 3.27829e-07 0.585061 0.726635 0 0 0 0 0 0 0 0 0 0 0 0 0 0 0 0 0 0 0 0 0 0 0 0 0 0 0 0 0 0 0 0 0 0 0 0 0 0 0 0 0 0
4.75588 5.51406e-07 2.3213e-07 3.19276e-07 0.579022 0.717648 0 0 0 0 0 0 0 0 0 0 0 0 0 0 0 0 0 0 0 0 0 0 0 0 0 0 0 0 0 0 0 0 0 0 0 0 0 0 0 0 0 0
5 5.3963e-07 2.3063e-07 3.09e-07 0.572615 0.719557 0 0 0 0 0 0 0 0 0 0 0 0 0 0 0 0 0 0 0 0 0 0 0 0 0 0 0 0 0 0 0 0 0 0 0 0 0 0 0 0 0 0
5.25665 5.27053e-07 2.29193e-07 2.97861e-07 0.565144 0.728813 0 0 0 0 0 0 0 0 0 0 0 0 0 0 0 0 0 0 0 0 0 0 0 0 0 0 0 0 0 0 0 0 0 0 0 0 0 0 0 0 0 0
5.52648 5.14205e-07 2.28798e-07 2.85407e-07 0.555045 0.735261 0 0 0 0 0 0 0 0 0 0 0 0 0 0 0 0 0 0 0 0 0 0 0 0 0 0 0 0 0 0 0 0 0 0 0 0 0 0 0 0 0 0
5.81015 5.00184e-07 2.28986e-07 2.71198e-07 0.542196 0.727782 0 0 0 0 0 0 0 0 0 0 0 0 0 0 0 0 0 0 0 0 0 0 0 0 0 0 0 0 0 0 0 0 0 0 0 0 0 0 0 0 0 0
6.10839 4.83603e-07 2.28566e-07 2.55036e-07 0.527367 0.705608 0 0 0 0 0 0 0 0 0 0 0 0 0 0 0 0 0 0 0 0 0 0 0 0 0 0 0 0 0 0 0 0 0 0 0 0 0 0 0 0 0 0
6.42193 4.6418e-07 2.26591e-07 2.37588e-07 0.511846 0.681958 0 0 0 0 0 0 0 0 0 0 0 0 0 0 0 0 0 0 0 0 0 0 0 0 0 0 0 0 0 0 0 0 0 0 0 0 0 0 0 0 0 0
6.75157 4.41633e-07 2.23119e-07 2.18515e-07 0.494788 0.670188 0 0 0 0 0 0 0 0 0 0 0 0 0 0 0 0 0 0 0 0 0 0 0 0 0 0 0 0 0 0 0 0 0 0 0 0 0 0 0 0 0 0
7.09813 4.20082e-07 2.1881e-07 2.01272e-07 0.479125 0.674042 0 0 0 0 0 0 0 0 0 0 0 0 0 0 0 0 0 0 0 0 0 0 0 0 0 0 0 0 0 0 0 0 0 0 0 0 0 0 0 0 0 0
7.46248 3.9374e-07 2.13501e-07 1.80239e-07 0.457761 0.676799 0 0 0 0 0 0 0 0 0 0 0 0 0 0 0 0 0 0 0 0 0 0 0 0 0 0 0 0 0 0 0 0 1.4013e-45 0 5.60519e-45 0 1.54143e-44 0 3.92364e-44 0 9.94922e-44 0
7.84553 3.59256e-07 2.06035e-07 1.53221e-07 0.426495 0.645743 0 0 0 0 0 0 0 0 0 0 0 0 0 0 0 0 0 0 0 0 0 0 0 0 1.4013e-45 0 7.00649e-45 0 2.8026e-44 0 9.66896e-44 0 3.06884e-43 0 8.84219e-43 0 2.41304e-42 0 6.0424e-42 0 1.48874e-41 0
8.24824 3.20496e-07 2.04819e-07 1.15677e-07 0.360931 0.598703 0 0 0 0 0 0 0 0 0 0 0 0 0 0 0 0 0 0 1.4013e-45 0 1.12104e-44 0 6.44597e-44 0 3.01279e-43 0 1.22333e-42 0 4.45193e-42 0 1.4659e-41 0 4.38985e-41 0 1.20192e-40 0 3.12293e-40 0 7.47556e-40 0 1.76257e-39 0
8.67162 3.11532e-07 2.15158e-07 9.6374e-08 0.309355 0.558386 0 0 0 0 0 0 0 0 0 0 0 0 0 0 2.8026e-45 0 3.78351e-44 0 3.06884e-43 0 1.9394e-42 0 1.03066e-41 0 4.5105e-41 0 1.70708e-40 0 5.83496e-40 0 1.81248e-39 0 5.14466e-39 0 1.341e-38 0 3.3256e-38 0 7.62854e-38 0 1.72487e-37 0
9.11674 3.39543e-07 2.40099e-07 9.94434e-08 0.292874 0.520122 0 0 0 0 0 0 0 0 0 0 1.4013e-45 0 3.92364e-44 0 6.29183e-43 0 6.4726e-42 0 4.82383e-41 0 2.78365e-40 0 1.36367e-39 0 5.55326e-39 0 1.96947e-38 0 6.33976e-38 0 1.86326e-37 0 5.02617e-37 0 1.25024e-36 0 2.96604e-36 0 6.53348e-36 0 1.41958e-35 0
9.5847 3.95718e-07 2.67645e-07 1.28073e-07 0.323648 0.490356 0 0 0 0 0 0 0 0 4.2039e-45 0 2.81661e-43 0 6.86636e-42 0 9.46045e-41 0 8.69234e-40 0 5.87273e-39 0 3.11099e-38 0 1.41026e-37 0 5.36245e-37 0 1.78781e-36 0 5.4357e-36 0 1.51565e-35 0 3.8951e-35 0 9.26729e-35 0 2.10775e-34 0 4.46726e-34 0 9.3455e-34 0
10.0767 4.38203e-07 2.82099e-07 1.56104e-07 0.356237 0.454982 0 0 0 0 0 0 4.2039e-45 0 8.67404e-43 0 4.14504e-41 0 8.63358e-40 0 1.04652e-38 0 8.62866e-38 0 5.31052e-37 0 2.59325e-36 0 1.09194e-35 0 3.88991e-35 0 1.22283e-34 0 3.52144e-34 0 9.3394e-34 0 2.29206e-33 0 5.22735e-33 0 1.14215e-32 0 2.33356e-32 0 4.709e-32 0
10.5939 4.58073e-07 2.85629e-07 1.72444e-07 0.376455 0.415139 0 0 0 0 0 0 8.28167e-43 0 1.14852e-40 0 4.54174e-39 0 8.15658e-38 0 8.7531e-37 0 6.51066e-36 0 3.6668e-35 0 1.65717e-34 0 6.50486e-34 0 2.17792e-33 0 6.47413e-33 0 1.77055e-32 0 4.4774e-32 0 1.05171e-31 0 2.30393e-31 0 4.8455e-31 0 9.56057e-31 0 1.86426e-30 0
11.1377 4.70776e-07 2.86662e-07 1.84114e-07 0.391087 0.383146 0 0 0 0 9.24857e-44 0 1.07707e-40 0 1.17313e-38 0 3.87665e-37 0 6.0465e-36 0 5.77879e-35 0 3.89719e-34 0 2.01727e-33 0 8.46956e-33 0 3.10982e-32 0 9.8156e-32 0 2.76666e-31 0 7.20361e-31 0 1.74099e-30 0 3.92246e-30 0 8.26996e-30 0 1.67729e-29 0 3.20143e-29 0 6.04237e-29 0
11.7094 4.72081e-07 2.83098e-07 1.88983e-07 0.400319 0.3584 0 0 0 0 1.30111e-41 0 1.07296e-38 0 9.29462e-37 0 2.58924e-35 0 3.53158e-34 0 3.023e-33 0 1.8573e-32 0 8.87223e-32 0 3.47303e-31 0 1.19675e-30 0 3.57119e-30 0 9.56927e-30 0 2.37784e-29 0 5.50448e-29 0 1.19194e-28 0 2.42318e-28 0 4.74784e-28 0 8.78061e-28 0 1.60664e-27 0
12.3105 4.51367e-07 2.69807e-07 1.8156e-07 0.402246 0.345963 0 0 8.40779e-45 0 1.3692e-39 0 8.13464e-37 0 5.66738e-35 0 1.34207e-33 0 1.61126e-32 0 1.24196e-31 0 6.98325e-31 0 3.09065e-30 0 1.13185e-29 0 3.67156e-29 0 1.03867e-28 0 2.65243e-28 0 6.30445e-28 0 1.40082e-27 0 2.92106e-27 0 5.73621e-27 0 1.08761e-26 0 1.95193e-26 0 3.46775e-26 0
12.9424 4.00121e-07 2.48199e-07 1.51922e-07 0.379691 0.343285 0 0 1.14486e-42 0 1.0919e-37 0 4.74922e-35 0 2.68955e-33 0 5.45719e-32 0 5.80311e-31 0 4.04855e-30 0 2.09234e-29 0 8.61161e-29 0 2.96005e-28 0 9.06586e-28 0 2.43773e-27 0 5.94665e-27 0 1.35493e-26 0 2.89551e-26 0 5.82504e-26 0 1.10681e-25 0 2.03403e-25 0 3.54771e-25 0 6.12838e-25 0
13.6067 3.62966e-07 2.3464e-07 1.28326e-07 0.353548 0.33326 0 0 1.30524e-40 0 7.10924e-36 0 2.2985e-33 0 1.06884e-31 0 1.87229e-30 0 1.77393e-29 0 1.1256e-28 0 5.36897e-28 0 2.06226e-27 0 6.67387e-27 0 1.93533e-26 0 4.95858e-26 0 1.15807e-25 0 2.53465e-25 0 5.21943e-25 0 1.01479e-24 0 1.8687e-24 0 3.33365e-24 0 5.65867e-24 0 9.51747e-24 0
14.3051 3.3088e-07 2.24178e-07 1.06703e-07 0.322481 0.290507 9.3887e-44 0 1.1752e-38 0 3.75841e-34 0 9.16422e-32 0 3.53305e-30 0 5.38147e-29 0 4.56863e-28 0 2.64884e-27 0 1.17067e-26 0 4.21066e-26 0 1.28672e-25 0 3.54229e-25 0 8.66838e-25 0 1.94236e-24 0 4.09171e-24 0 8.13378e-24 0 1.5309e-23 0 2.73631e-23 0 4.74539e-23 0 7.84959e-23 0 1.28715e-22 0
