# 2.5e-06 2 3 : grain size, compostion index, size index
# Heating and cooling timescale: 6.27392 37437.2
# Ratio of heating to cooling to determine stochastic cutoff: 100
# Equilibrium emission is recorded even for those grains in the stochastic regime.
# Emission spectrum was computed for: 
# Type: ISRF
# Scales: 0.25 0.5 1 1.5 2 2.5 3 3.5 4 4.5 5 5.5 6 6.5 7 7.5 8 8.5 9 9.5 10
# StochasticallyHeated: 0 0 0 0 0 0 0 0 0 0 0 0 0 0 0 0 0 0 0 0 0
# Temperature: -1
# Wavelength  CExt  CAbs  CSca  Albedo G EqEm1 StEm1 EqEm2 StEm2 EqEm3 StEm3 EqEm4 StEm4 EqEm5 StEm5 EqEm6 StEm6 EqEm7 StEm7 EqEm8 StEm8 EqEm9 StEm9 EqEm10 StEm10 EqEm11 StEm11 EqEm12 StEm12 EqEm13 StEm13 EqEm14 StEm14 EqEm15 StEm15 EqEm16 StEm16 EqEm17 StEm17 EqEm18 StEm18 EqEm19 StEm19 EqEm20 StEm20 EqEm21 StEm21
0.05 6.77437e-11 4.37464e-11 2.39973e-11 0.354236 0.756961 0 0 0 0 0 0 0 0 0 0 0 0 0 0 0 0 0 0 0 0 0 0 0 0 0 0 0 0 0 0 0 0 0 0 0 0 0 0 0 0 0 0
0.0525665 6.68351e-11 4.31982e-11 2.36369e-11 0.353661 0.746927 0 0 0 0 0 0 0 0 0 0 0 0 0 0 0 0 0 0 0 0 0 0 0 0 0 0 0 0 0 0 0 0 0 0 0 0 0 0 0 0 0 0
0.0552647 6.58824e-11 4.26226e-11 2.32597e-11 0.353049 0.73637 0 0 0 0 0 0 0 0 0 0 0 0 0 0 0 0 0 0 0 0 0 0 0 0 0 0 0 0 0 0 0 0 0 0 0 0 0 0 0 0 0 0
0.0581015 6.48776e-11 4.20167e-11 2.28609e-11 0.35237 0.725283 0 0 0 0 0 0 0 0 0 0 0 0 0 0 0 0 0 0 0 0 0 0 0 0 0 0 0 0 0 0 0 0 0 0 0 0 0 0 0 0 0 0
0.0610839 6.38225e-11 4.13798e-11 2.24428e-11 0.351644 0.713615 0 0 0 0 0 0 0 0 0 0 0 0 0 0 0 0 0 0 0 0 0 0 0 0 0 0 0 0 0 0 0 0 0 0 0 0 0 0 0 0 0 0
0.0642193 6.27144e-11 4.07101e-11 2.20043e-11 0.350865 0.701354 0 0 0 0 0 0 0 0 0 0 0 0 0 0 0 0 0 0 0 0 0 0 0 0 0 0 0 0 0 0 0 0 0 0 0 0 0 0 0 0 0 0
0.0675157 6.15495e-11 4.00068e-11 2.15427e-11 0.350006 0.688458 0 0 0 0 0 0 0 0 0 0 0 0 0 0 0 0 0 0 0 0 0 0 0 0 0 0 0 0 0 0 0 0 0 0 0 0 0 0 0 0 0 0
0.0709813 6.03242e-11 3.92672e-11 2.1057e-11 0.349065 0.674905 0 0 0 0 0 0 0 0 0 0 0 0 0 0 0 0 0 0 0 0 0 0 0 0 0 0 0 0 0 0 0 0 0 0 0 0 0 0 0 0 0 0
0.0746248 5.9036e-11 3.84896e-11 2.05464e-11 0.348032 0.660655 0 0 0 0 0 0 0 0 0 0 0 0 0 0 0 0 0 0 0 0 0 0 0 0 0 0 0 0 0 0 0 0 0 0 0 0 0 0 0 0 0 0
0.0784553 5.76792e-11 3.76708e-11 2.00084e-11 0.346891 0.645674 0 0 0 0 0 0 0 0 0 0 0 0 0 0 0 0 0 0 0 0 0 0 0 0 0 0 0 0 0 0 0 0 0 0 0 0 0 0 0 0 0 0
0.0824824 5.62558e-11 3.68116e-11 1.94442e-11 0.345639 0.629922 0 0 0 0 0 0 0 0 0 0 0 0 0 0 0 0 0 0 0 0 0 0 0 0 0 0 0 0 0 0 0 0 0 0 0 0 0 0 0 0 0 0
0.0867162 5.47584e-11 3.59075e-11 1.88509e-11 0.344255 0.613361 0 0 0 0 0 0 0 0 0 0 0 0 0 0 0 0 0 0 0 0 0 0 0 0 0 0 0 0 0 0 0 0 0 0 0 0 0 0 0 0 0 0
0.0911674 5.3184e-11 3.4957e-11 1.82269e-11 0.342715 0.595953 0 0 0 0 0 0 0 0 0 0 0 0 0 0 0 0 0 0 0 0 0 0 0 0 0 0 0 0 0 0 0 0 0 0 0 0 0 0 0 0 0 0
0.095847 5.15291e-11 3.39581e-11 1.7571e-11 0.340992 0.577654 0 0 0 0 0 0 0 0 0 0 0 0 0 0 0 0 0 0 0 0 0 0 0 0 0 0 0 0 0 0 0 0 0 0 0 0 0 0 0 0 0 0
0.100767 4.97891e-11 3.29076e-11 1.68815e-11 0.33906 0.55841 0 0 0 0 0 0 0 0 0 0 0 0 0 0 0 0 0 0 0 0 0 0 0 0 0 0 0 0 0 0 0 0 0 0 0 0 0 0 0 0 0 0
0.105939 4.79601e-11 3.18035e-11 1.61565e-11 0.336875 0.53818 0 0 0 0 0 0 0 0 0 0 0 0 0 0 0 0 0 0 0 0 0 0 0 0 0 0 0 0 0 0 0 0 0 0 0 0 0 0 0 0 0 0
0.111377 4.60359e-11 3.06416e-11 1.53943e-11 0.334398 0.516918 0 0 0 0 0 0 0 0 0 0 0 0 0 0 0 0 0 0 0 0 0 0 0 0 0 0 0 0 0 0 0 0 0 0 0 0 0 0 0 0 0 0
0.117094 4.40137e-11 2.94206e-11 1.45931e-11 0.331558 0.494551 0 0 0 0 0 0 0 0 0 0 0 0 0 0 0 0 0 0 0 0 0 0 0 0 0 0 0 0 0 0 0 0 0 0 0 0 0 0 0 0 0 0
0.123105 4.18886e-11 2.8138e-11 1.37505e-11 0.328264 0.471051 0 0 0 0 0 0 0 0 0 0 0 0 0 0 0 0 0 0 0 0 0 0 0 0 0 0 0 0 0 0 0 0 0 0 0 0 0 0 0 0 0 0
0.129424 3.96535e-11 2.67886e-11 1.28649e-11 0.324432 0.446329 0 0 0 0 0 0 0 0 0 0 0 0 0 0 0 0 0 0 0 0 0 0 0 0 0 0 0 0 0 0 0 0 0 0 0 0 0 0 0 0 0 0
0.136067 3.73049e-11 2.53712e-11 1.19337e-11 0.319896 0.420351 0 0 0 0 0 0 0 0 0 0 0 0 0 0 0 0 0 0 0 0 0 0 0 0 0 0 0 0 0 0 0 0 0 0 0 0 0 0 0 0 0 0
0.143051 3.4834e-11 2.38792e-11 1.09548e-11 0.314485 0.39303 0 0 0 0 0 0 0 0 0 0 0 0 0 0 0 0 0 0 0 0 0 0 0 0 0 0 0 0 0 0 0 0 0 0 0 0 0 0 0 0 0 0
0.150394 3.22373e-11 2.23118e-11 9.92555e-12 0.30789 0.364317 0 0 0 0 0 0 0 0 0 0 0 0 0 0 0 0 0 0 0 0 0 0 0 0 0 0 0 0 0 0 0 0 0 0 0 0 0 0 0 0 0 0
0.158114 2.9507e-11 2.06633e-11 8.84366e-12 0.299714 0.334127 0 0 0 0 0 0 0 0 0 0 0 0 0 0 0 0 0 0 0 0 0 0 0 0 0 0 0 0 0 0 0 0 0 0 0 0 0 0 0 0 0 0
0.16623 2.66369e-11 1.89308e-11 7.70607e-12 0.289301 0.302384 0 0 0 0 0 0 0 0 0 0 0 0 0 0 0 0 0 0 0 0 0 0 0 0 0 0 0 0 0 0 0 0 0 0 0 0 0 0 0 0 0 0
0.174762 2.36193e-11 1.71092e-11 6.5101e-12 0.275626 0.269006 0 0 0 0 0 0 0 0 0 0 0 0 0 0 0 0 0 0 0 0 0 0 0 0 0 0 0 0 0 0 0 0 0 0 0 0 0 0 0 0 0 0
0.183733 2.04466e-11 1.51938e-11 5.25279e-12 0.256903 0.233923 0 0 0 0 0 0 0 0 0 0 0 0 0 0 0 0 0 0 0 0 0 0 0 0 0 0 0 0 0 0 0 0 0 0 0 0 0 0 0 0 0 0
0.193164 1.71111e-11 1.31802e-11 3.93084e-12 0.229725 0.197035 0 0 0 0 0 0 0 0 0 0 0 0 0 0 0 0 0 0 0 0 0 0 0 0 0 0 0 0 0 0 0 0 0 0 0 0 0 0 0 0 0 0
0.203079 1.41729e-11 1.14093e-11 2.76357e-12 0.19499 0.163778 0 0 0 0 0 0 0 0 0 0 0 0 0 0 0 0 0 0 0 0 0 0 0 0 0 0 0 0 0 0 0 0 0 0 0 0 0 0 0 0 0 0
0.213503 1.36692e-11 1.11212e-11 2.54808e-12 0.18641 0.153884 0 0 0 0 0 0 0 0 0 0 0 0 0 0 0 0 0 0 0 0 0 0 0 0 0 0 0 0 0 0 0 0 0 0 0 0 0 0 0 0 0 0
0.224463 1.32102e-11 1.08611e-11 2.34913e-12 0.177827 0.144163 0 0 0 0 0 0 0 0 0 0 0 0 0 0 0 0 0 0 0 0 0 0 0 0 0 0 0 0 0 0 0 0 0 0 0 0 0 0 0 0 0 0
0.235984 1.27274e-11 1.05877e-11 2.13979e-12 0.168124 0.133949 0 0 0 0 0 0 0 0 0 0 0 0 0 0 0 0 0 0 0 0 0 0 0 0 0 0 0 0 0 0 0 0 0 0 0 0 0 0 0 0 0 0
0.248097 1.22202e-11 1.03004e-11 1.91989e-12 0.157107 0.123208 0 0 0 0 0 0 0 0 0 0 0 0 0 0 0 0 0 0 0 0 0 0 0 0 0 0 0 0 0 0 0 0 0 0 0 0 0 0 0 0 0 0
0.260832 1.16868e-11 9.99817e-12 1.68865e-12 0.144492 0.111918 0 0 0 0 0 0 0 0 0 0 0 0 0 0 0 0 0 0 0 0 0 0 0 0 0 0 0 0 0 0 0 0 0 0 0 0 0 0 0 0 0 0
0.274221 1.1126e-11 9.68048e-12 1.44554e-12 0.129924 0.100039 0 0 0 0 0 0 0 0 0 0 0 0 0 0 0 0 0 0 0 0 0 0 0 0 0 0 0 0 0 0 0 0 0 0 0 0 0 0 0 0 0 0
0.288297 1.05364e-11 9.34643e-12 1.18994e-12 0.112937 0.0875614 0 0 0 0 0 0 0 0 0 0 0 0 0 0 0 0 0 0 0 0 0 0 0 0 0 0 0 0 0 0 0 0 0 0 0 0 0 0 0 0 0 0
0.303095 9.91348e-12 8.97895e-12 9.3453e-13 0.0942686 0.0750728 0 0 0 0 0 0 0 0 0 0 0 0 0 0 0 0 0 0 0 0 0 0 0 0 0 0 0 0 0 0 0 0 0 0 0 0 0 0 0 0 0 0
0.318653 9.22107e-12 8.38994e-12 8.31126e-13 0.0901334 0.0698051 0 0 0 0 0 0 0 0 0 0 0 0 0 0 0 0 0 0 0 0 0 0 0 0 0 0 0 0 0 0 0 0 0 0 0 0 0 0 0 0 0 0
0.335009 8.49057e-12 7.75616e-12 7.34408e-13 0.0864969 0.0648383 0 0 0 0 0 0 0 0 0 0 0 0 0 0 0 0 0 0 0 0 0 0 0 0 0 0 0 0 0 0 0 0 0 0 0 0 0 0 0 0 0 0
0.352205 7.72245e-12 7.08972e-12 6.32732e-13 0.081934 0.0596175 0 0 0 0 0 0 0 0 0 0 0 0 0 0 0 0 0 0 0 0 0 0 0 0 0 0 0 0 0 0 0 0 0 0 0 0 0 0 0 0 0 0
0.370284 6.91497e-12 6.38913e-12 5.25836e-13 0.0760432 0.0541278 0 0 0 0 0 0 0 0 0 0 0 0 0 0 0 0 0 0 0 0 0 0 0 0 0 0 0 0 0 0 0 0 0 0 0 0 0 0 0 0 0 0
0.389291 6.06603e-12 5.65259e-12 4.13442e-13 0.0681569 0.0483565 0 0 0 0 0 0 0 0 0 0 0 0 0 0 0 0 0 0 0 0 0 0 0 0 0 0 0 0 0 0 0 0 0 0 0 0 0 0 0 0 0 0
0.409273 5.30045e-12 4.98543e-12 3.15021e-13 0.0594328 0.0430439 0 0 0 0 0 0 0 0 0 0 0 0 0 0 0 0 0 0 0 0 0 0 0 0 0 0 0 0 0 0 0 0 0 0 0 0 0 0 0 0 0 0
0.430281 4.91056e-12 4.63458e-12 2.75979e-13 0.0562012 0.0399233 0 0 0 0 0 0 0 0 0 0 0 0 0 0 0 0 0 0 0 0 0 0 0 0 0 0 0 0 0 0 0 0 0 0 0 0 0 0 0 0 0 0
0.452368 4.50063e-12 4.26569e-12 2.34942e-13 0.0522021 0.036643 0 0 0 0 0 0 0 0 0 0 0 0 0 0 0 0 0 0 0 0 0 0 0 0 0 0 0 0 0 0 0 0 0 0 0 0 0 0 0 0 0 0
0.475588 4.06964e-12 3.87783e-12 1.91806e-13 0.047131 0.0331952 0 0 0 0 0 0 0 0 0 0 0 0 0 0 0 0 0 0 0 0 0 0 0 0 0 0 0 0 0 0 0 0 0 0 0 0 0 0 0 0 0 0
0.5 3.61701e-12 3.47049e-12 1.46516e-13 0.0405075 0.0295727 0 0 0 0 0 0 0 0 0 0 0 0 0 0 0 0 0 0 0 0 0 0 0 0 0 0 0 0 0 0 0 0 0 0 0 0 0 0 0 0 0 0
0.525665 3.31811e-12 3.19602e-12 1.22084e-13 0.0367933 0.0270558 0 0 0 0 0 0 0 0 0 0 0 0 0 0 0 0 0 0 0 0 0 0 0 0 0 0 0 0 0 0 0 0 0 0 0 0 0 0 0 0 0 0
0.552648 3.05977e-12 2.95602e-12 1.0375e-13 0.0339077 0.0248194 0 0 0 0 0 0 0 0 0 0 0 0 0 0 0 0 0 0 0 0 0 0 0 0 0 0 0 0 0 0 0 0 0 0 0 0 0 0 0 0 0 0
0.581015 2.78834e-12 2.70387e-12 8.44735e-14 0.0302953 0.0224674 0 0 0 0 0 0 0 0 0 0 0 0 0 0 0 0 0 0 0 0 0 0 0 0 0 0 0 0 0 0 0 0 0 0 0 0 0 0 0 0 0 0
0.610839 2.51615e-12 2.4506e-12 6.55448e-14 0.0260497 0.0201075 0 0 0 0 0 0 0 0 0 0 0 0 0 0 0 0 0 0 0 0 0 0 0 0 0 0 0 0 0 0 0 0 0 0 0 0 0 0 0 0 0 0
0.642193 2.33456e-12 2.27829e-12 5.62658e-14 0.0241013 0.018522 0 0 0 0 0 0 0 0 0 0 0 0 0 0 0 0 0 0 0 0 0 0 0 0 0 0 0 0 0 0 0 0 0 0 0 0 0 0 0 0 0 0
0.675157 2.14386e-12 2.09735e-12 4.65099e-14 0.0216945 0.0168555 0 0 0 0 0 0 0 0 0 0 0 0 0 0 0 0 0 0 0 0 0 0 0 0 0 0 0 0 0 0 0 0 0 0 0 0 0 0 0 0 0 0
0.709813 1.94986e-12 1.9131e-12 3.67642e-14 0.0188548 0.0151609 0 0 0 0 0 0 0 0 0 0 0 0 0 0 0 0 0 0 0 0 0 0 0 0 0 0 0 0 0 0 0 0 0 0 0 0 0 0 0 0 0 0
0.746248 1.80406e-12 1.77298e-12 3.1083e-14 0.0172295 0.0138964 0 0 0 0 0 0 0 0 0 0 0 0 0 0 0 0 0 0 0 0 0 0 0 0 0 0 0 0 0 0 0 0 0 0 0 0 0 0 0 0 0 0
0.784553 1.65563e-12 1.63014e-12 2.54906e-14 0.0153963 0.0126103 0 0 0 0 0 0 0 0 0 0 0 0 0 0 0 0 0 0 0 0 0 0 0 0 0 0 0 0 0 0 0 0 0 0 0 0 0 0 0 0 0 0
0.824824 1.51613e-12 1.49554e-12 2.05856e-14 0.0135777 0.0114077 0 0 0 0 0 0 0 0 0 0 0 0 0 0 0 0 0 0 0 0 0 0 0 0 0 0 0 0 0 0 0 0 0 0 0 0 0 0 0 0 0 0
0.867162 1.40024e-12 1.383e-12 1.72455e-14 0.0123161 0.010421 0 0 0 0 0 0 0 0 0 0 0 0 0 0 0 0 0 0 0 0 0 0 0 0 0 0 0 0 0 0 0 0 0 0 0 0 0 0 0 0 0 0
0.911674 1.27937e-12 1.26559e-12 1.37783e-14 0.0107696 0.00939222 0 0 0 0 0 0 0 0 0 0 0 0 0 0 0 0 0 0 0 0 0 0 0 0 0 0 0 0 0 0 0 0 0 0 0 0 0 0 0 0 0 0
0.95847 1.18419e-12 1.1726e-12 1.15949e-14 0.00979139 0.00859538 0 0 0 0 0 0 0 0 0 0 0 0 0 0 0 0 0 0 0 0 0 0 0 0 0 0 0 0 0 0 0 0 0 0 0 0 0 0 0 0 0 0
1.00767 1.08539e-12 1.07604e-12 9.35671e-15 0.00862056 0.00776913 0 0 0 0 0 0 0 0 0 0 0 0 0 0 0 0 0 0 0 0 0 0 0 0 0 0 0 0 0 0 0 0 0 0 0 0 0 0 0 0 0 0
1.05939 1.00381e-12 9.96007e-13 7.80808e-15 0.00777841 0.00709434 0 0 0 0 0 0 0 0 0 0 0 0 0 0 0 0 0 0 0 0 0 0 0 0 0 0 0 0 0 0 0 0 0 0 0 0 0 0 0 0 0 0
1.11377 9.21992e-13 9.15675e-13 6.31688e-15 0.00685134 0.00641913 0 0 0 0 0 0 0 0 0 0 0 0 0 0 0 0 0 0 0 0 0 0 0 0 0 0 0 0 0 0 0 0 0 0 0 0 0 0 0 0 0 0
1.17094 8.53043e-13 8.47779e-13 5.26393e-15 0.00617076 0.00585966 0 0 0 0 0 0 0 0 0 0 0 0 0 0 0 0 0 0 0 0 0 0 0 0 0 0 0 0 0 0 0 0 0 0 0 0 0 0 0 0 0 0
1.23105 7.85302e-13 7.8102e-13 4.28263e-15 0.00545348 0.00531319 0 0 0 0 0 0 0 0 0 0 0 0 0 0 0 0 0 0 0 0 0 0 0 0 0 0 0 0 0 0 0 0 0 0 0 0 0 0 0 0 0 0
1.29424 7.25417e-13 7.21881e-13 3.5363e-15 0.00487486 0.00483807 0 0 0 0 0 0 0 0 0 0 0 0 0 0 0 0 0 0 0 0 0 0 0 0 0 0 0 0 0 0 0 0 0 0 0 0 0 0 0 0 0 0
1.36067 6.69837e-13 6.66924e-13 2.91205e-15 0.00434741 0.00440438 0 0 0 0 0 0 0 0 0 0 0 0 0 0 0 0 0 0 0 0 0 0 0 0 0 0 0 0 0 0 0 0 0 0 0 0 0 0 0 0 0 0
1.43051 6.17149e-13 6.14772e-13 2.37612e-15 0.00385016 0.00399957 0 0 0 0 0 0 0 0 0 0 0 0 0 0 0 0 0 0 0 0 0 0 0 0 0 0 0 0 0 0 0 0 0 0 0 0 0 0 0 0 0 0
1.50394 5.69369e-13 5.67411e-13 1.95731e-15 0.00343768 0.00364267 0 0 0 0 0 0 0 0 0 0 0 0 0 0 0 0 0 0 0 0 0 0 0 0 0 0 0 0 0 0 0 0 0 0 0 0 0 0 0 0 0 0
1.58114 5.24809e-13 5.23195e-13 1.61434e-15 0.00307604 0.00332052 0 0 0 0 0 0 0 0 0 0 0 0 0 0 0 0 0 0 0 0 0 0 0 0 0 0 0 0 0 0 0 0 0 0 0 0 0 0 0 0 0 0
1.6623 4.82764e-13 4.81439e-13 1.32487e-15 0.00274434 0.00302387 0 0 0 0 0 0 0 0 0 0 0 0 0 0 0 0 0 0 0 0 0 0 0 0 0 0 0 0 0 0 0 0 0 0 0 0 0 0 0 0 0 0
1.74763 4.43648e-13 4.42563e-13 1.08514e-15 0.00244596 0.00275343 0 0 0 0 0 0 0 0 0 0 0 0 0 0 0 0 0 0 0 0 0 0 0 0 0 0 0 0 0 0 0 0 0 0 0 0 0 0 0 0 0 0
1.83733 4.07974e-13 4.07085e-13 8.89283e-16 0.00217975 0.00250874 0 0 0 0 0 0 0 0 0 0 0 0 0 0 0 0 0 0 0 0 0 0 0 0 0 0 0 0 0 0 0 0 0 0 0 0 0 0 0 0 0 0
1.93164 3.75661e-13 3.74933e-13 7.28072e-16 0.00193811 0.00228642 0 0 0 0 0 0 0 0 0 0 0 0 0 0 0 0 0 0 0 0 0 0 0 0 0 0 0 0 0 0 0 0 0 0 0 0 0 0 0 0 0 0
2.03079 3.46717e-13 3.4612e-13 5.96853e-16 0.00172144 0.00208564 0 0 0 0 0 0 0 0 0 0 0 0 0 0 0 0 0 0 0 0 0 0 0 0 0 0 0 0 0 0 0 0 0 0 0 0 0 0 0 0 0 0
2.13503 3.19927e-13 3.19438e-13 4.89867e-16 0.00153118 0.0019044 0 0 0 0 0 0 0 0 0 0 0 0 0 0 0 0 0 0 0 0 0 0 0 0 0 0 0 0 0 0 0 0 0 0 0 0 0 0 0 0 0 0
2.24463 2.96835e-13 2.96433e-13 4.02142e-16 0.00135477 0.00174013 0 0 0 0 0 0 0 0 0 0 0 0 0 0 0 0 0 0 0 0 0 0 0 0 0 0 0 0 0 0 0 0 0 0 0 0 0 0 0 0 0 0
2.35984 2.75984e-13 2.75654e-13 3.30397e-16 0.00119716 0.00159145 0 0 0 0 0 0 0 0 0 0 0 0 0 0 0 0 0 0 0 0 0 0 0 0 0 0 0 0 0 0 0 0 0 0 0 0 0 0 0 0 0 0
2.48097 2.56183e-13 2.55911e-13 2.7137e-16 0.00105928 0.00145649 0 0 0 0 0 0 0 0 0 0 0 0 0 0 0 0 0 0 0 0 0 0 0 0 0 0 0 0 0 0 0 0 0 0 0 0 0 0 0 0 0 0
2.60832 2.37727e-13 2.37505e-13 2.22503e-16 0.000935959 0.00133366 0 0 0 0 0 0 0 0 0 0 0 0 0 0 0 0 0 0 0 0 0 0 0 0 0 0 0 0 0 0 0 0 0 0 0 0 0 0 0 0 0 0
2.74221 2.20703e-13 2.2052e-13 1.8257e-16 0.00082722 0.00122257 0 0 0 0 0 0 0 0 0 0 0 0 0 0 0 0 0 0 0 0 0 0 0 0 0 0 0 0 0 0 0 0 0 0 0 0 0 0 0 0 0 0
2.88297 2.04804e-13 2.04654e-13 1.49802e-16 0.000731442 0.00112203 0 0 0 0 0 0 0 0 0 0 0 0 0 0 0 0 0 0 0 0 0 0 0 0 0 0 0 0 0 0 0 0 0 0 0 0 0 0 0 0 0 0
3.03095 1.90002e-13 1.89879e-13 1.22666e-16 0.000645607 0.00103023 0 0 0 0 0 0 0 0 0 0 0 0 0 0 0 0 0 0 0 0 0 0 0 0 0 0 0 0 0 0 0 0 0 0 0 0 0 0 0 0 0 0
3.18653 1.76816e-13 1.76716e-13 1.00684e-16 0.000569425 0.000947856 0 0 0 0 0 0 0 0 0 0 0 0 0 0 0 0 0 0 0 0 0 0 0 0 0 0 0 0 0 0 0 0 0 0 0 0 0 0 0 0 0 0
3.35009 1.64132e-13 1.6405e-13 8.2484e-17 0.000502546 0.000872707 0 0 0 0 0 0 0 0 0 0 0 0 0 0 0 0 0 0 0 0 0 0 0 0 0 0 0 0 0 0 0 0 0 0 0 0 0 0 0 0 0 0
3.52205 1.52125e-13 1.52058e-13 6.77966e-17 0.000445663 0.000805263 0 0 0 0 0 0 0 0 0 0 0 0 0 0 0 0 0 0 0 0 0 0 0 0 0 0 0 0 0 0 0 0 0 0 0 0 0 0 0 0 0 0
3.70284 1.40521e-13 1.40465e-13 5.55283e-17 0.000395161 0.000743653 0 0 0 0 0 0 0 0 0 0 0 0 0 0 0 0 0 0 0 0 0 0 0 0 0 0 0 0 0 0 0 0 0 0 0 0 0 0 0 0 0 0
3.89291 1.30355e-13 1.30309e-13 4.54627e-17 0.000348761 0.000687763 0 0 0 0 0 0 0 0 0 0 0 0 0 0 0 0 0 0 0 0 0 0 0 0 0 0 0 0 0 0 0 0 0 0 0 0 0 0 0 0 0 0
4.09273 1.21001e-13 1.20964e-13 3.72125e-17 0.000307538 0.000637126 0 0 0 0 0 0 0 0 0 0 0 0 0 0 0 0 0 0 0 0 0 0 0 0 0 0 0 0 0 0 0 0 0 0 0 0 0 0 0 0 0 0
4.30281 1.124e-13 1.12369e-13 3.04517e-17 0.000270923 0.000591246 0 0 0 0 0 0 0 0 0 0 0 0 0 0 0 0 0 0 0 0 0 0 0 0 0 0 0 0 0 0 0 0 0 0 0 0 0 0 0 0 0 0
4.52368 1.04518e-13 1.04493e-13 2.49016e-17 0.000238253 0.000549634 0 0 0 0 0 0 0 0 0 0 0 0 0 0 0 0 0 0 0 0 0 0 0 0 0 0 0 0 0 0 0 0 0 0 0 0 0 0 0 0 0 0
4.75588 9.73122e-14 9.72919e-14 2.03353e-17 0.00020897 0.000511841 0 0 0 0 0 0 0 0 0 0 0 0 0 0 0 0 0 0 0 0 0 0 0 0 0 0 0 0 0 0 0 0 0 0 0 0 0 0 0 0 0 0
5 9.08173e-14 9.08007e-14 1.65935e-17 0.000182712 0.000477603 0 0 0 0 0 0 0 0 0 0 0 0 0 0 0 0 0 0 0 0 0 0 0 0 0 0 0 0 0 0 0 0 0 0 0 0 0 0 0 0 0 0
5.25665 8.53933e-14 8.53799e-14 1.34922e-17 0.000158001 0.000446367 0 0 0 0 0 0 0 0 0 0 0 0 0 0 0 0 0 0 0 0 0 0 0 0 0 0 0 0 0 0 0 0 1.4013e-45 0 2.8026e-45 0 8.40779e-45 0 2.10195e-44 0 5.04467e-44 0
5.52648 8.05541e-14 8.05431e-14 1.09942e-17 0.000136482 0.000418255 0 0 0 0 0 0 0 0 0 0 0 0 0 0 0 0 0 0 0 0 0 0 0 0 1.4013e-45 0 2.8026e-45 0 1.12104e-44 0 3.64338e-44 0 1.06499e-43 0 2.95674e-43 0 7.44089e-43 0 1.76844e-42 0 4.06517e-42 0
5.81015 7.69055e-14 7.68966e-14 8.93029e-18 0.00011612 0.000392639 0 0 0 0 0 0 0 0 0 0 0 0 0 0 0 0 0 0 0 0 4.2039e-45 0 1.82169e-44 0 7.9874e-44 0 2.95674e-43 0 9.80909e-43 0 2.98336e-42 0 8.18919e-42 0 2.15912e-41 0 5.18789e-41 0 1.18274e-40 0 2.60983e-40 0
6.10839 7.78929e-14 7.78857e-14 7.2488e-18 9.30611e-05 0.00036936 0 0 0 0 0 0 0 0 0 0 0 0 0 0 1.4013e-45 0 9.80909e-45 0 6.44597e-44 0 3.54529e-43 0 1.64512e-42 0 6.45858e-42 0 2.25539e-41 0 7.06128e-41 0 2.03299e-40 0 5.31321e-40 0 1.33609e-39 0 3.07575e-39 0 6.73558e-39 0 1.42994e-38 0
6.42193 7.42151e-14 7.42091e-14 5.97396e-18 8.04953e-05 0.000349073 0 0 0 0 0 0 0 0 0 0 0 0 7.00649e-45 0 8.82818e-44 0 7.80523e-43 0 4.95219e-42 0 2.48955e-41 0 1.0733e-40 0 3.94187e-40 0 1.29499e-39 0 3.83464e-39 0 1.04846e-38 0 2.61459e-38 0 6.28534e-38 0 1.3892e-37 0 2.92798e-37 0 5.99167e-37 0
6.75157 7.13913e-14 7.13865e-14 4.83638e-18 6.77447e-05 0.000329982 0 0 0 0 0 0 0 0 1.4013e-45 0 3.22299e-44 0 6.05361e-43 0 6.63935e-42 0 5.25263e-41 0 3.04617e-40 0 1.41542e-39 0 5.68205e-39 0 1.95841e-38 0 6.07084e-38 0 1.70485e-37 0 4.438e-37 0 1.05843e-36 0 2.43775e-36 0 5.18334e-36 0 1.05342e-35 0 2.08161e-35 0
7.09813 7.01894e-14 7.01855e-14 3.92124e-18 5.58666e-05 0.000338186 0 0 0 0 0 0 0 0 7.70714e-44 0 2.60361e-42 0 4.15737e-41 0 4.05794e-40 0 2.90173e-39 0 1.54442e-38 0 6.65772e-38 0 2.49731e-37 0 8.10277e-37 0 2.37678e-36 0 6.34648e-36 0 1.57669e-35 0 3.60406e-35 0 7.96946e-35 0 1.63325e-34 0 3.20634e-34 0 6.12863e-34 0
7.46248 7.33342e-14 7.3331e-14 3.15377e-18 4.30055e-05 0.000325209 0 0 0 0 0 0 6.86636e-44 0 6.13769e-42 0 1.74686e-40 0 2.43671e-39 0 2.12802e-38 0 1.38234e-37 0 6.78068e-37 0 2.72177e-36 0 9.5712e-36 0 2.93204e-35 0 8.16033e-35 0 2.07695e-34 0 4.93565e-34 0 1.08358e-33 0 2.30499e-33 0 4.5612e-33 0 8.66426e-33 0 1.60453e-32 0
7.84553 7.94859e-14 7.94833e-14 2.60204e-18 3.27358e-05 0.000311446 0 0 0 0 9.80909e-45 0 5.615e-42 0 4.05604e-40 0 9.80337e-39 0 1.20238e-37 0 9.44627e-37 0 5.60046e-36 0 2.54191e-35 0 9.53387e-35 0 3.15297e-34 0 9.14505e-34 0 2.42114e-33 0 5.88747e-33 0 1.3412e-32 0 2.83357e-32 0 5.8095e-32 0 1.11193e-31 0 2.04703e-31 0 3.67854e-31 0
8.24824 7.90515e-14 7.90494e-14 2.08859e-18 2.64206e-05 0.000298441 0 0 0 0 8.22562e-43 0 3.39186e-40 0 1.98789e-38 0 4.11272e-37 0 4.46314e-36 0 3.17068e-35 0 1.72336e-34 0 7.26505e-34 0 2.55457e-33 0 7.96905e-33 0 2.19428e-32 0 5.53964e-32 0 1.28988e-31 0 2.82264e-31 0 5.74959e-31 0 1.1382e-30 0 2.11053e-30 0 3.77136e-30 0 6.58598e-30 0
8.67162 9.17594e-14 9.17577e-14 1.70839e-18 1.86181e-05 0.000286802 0 0 1.4013e-45 0 6.29267e-41 0 1.93294e-38 0 9.28656e-37 0 1.65711e-35 0 1.60068e-34 0 1.03334e-33 0 5.17094e-33 0 2.032e-32 0 6.71955e-32 0 1.98293e-31 0 5.19655e-31 0 1.25391e-30 0 2.80165e-30 0 5.90085e-30 0 1.16094e-29 0 2.22286e-29 0 3.99936e-29 0 6.94686e-29 0 1.18057e-28 0
9.11674 1.03442e-13 1.0344e-13 1.41271e-18 1.36571e-05 0.000276433 0 0 1.49939e-43 0 3.76263e-39 0 8.73836e-37 0 3.47506e-35 0 5.3871e-34 0 4.65821e-33 0 2.74544e-32 0 1.26998e-31 0 4.668e-31 0 1.45609e-30 0 4.07576e-30 0 1.01903e-29 0 2.35539e-29 0 5.06014e-29 0 1.02771e-28 0 1.95621e-28 0 3.62864e-28 0 6.34408e-28 0 1.07265e-27 0 1.7763e-27 0
9.5847 1.15192e-13 1.1519e-13 1.20632e-18 1.04723e-05 0.000267486 0 0 1.17947e-41 0 1.80851e-37 0 3.21917e-35 0 1.0695e-33 0 1.45029e-32 0 1.12869e-31 0 6.10036e-31 0 2.61856e-30 0 9.03224e-30 0 2.6652e-29 0 7.09456e-29 0 1.69619e-28 0 3.76343e-28 0 7.78876e-28 0 1.5281e-27 0 2.8187e-27 0 5.07313e-27 0 8.63088e-27 0 1.42236e-26 0 2.29811e-26 0
10.0767 1.17963e-13 1.17962e-13 1.05186e-18 8.91682e-06 0.000259907 2.66247e-44 0 6.86013e-40 0 6.57064e-36 0 9.08147e-34 0 2.54279e-32 0 3.03599e-31 0 2.13755e-30 0 1.06394e-29 0 4.25337e-29 0 1.38106e-28 0 3.86547e-28 0 9.8093e-28 0 2.24753e-27 0 4.7964e-27 0 9.58026e-27 0 1.81874e-26 0 3.25601e-26 0 5.69445e-26 0 9.43981e-26 0 1.51818e-25 0 2.39615e-25 0
10.5939 1.10628e-13 1.10628e-13 9.07635e-19 8.20435e-06 0.000253169 1.93099e-42 0 2.96355e-38 0 1.81429e-34 0 1.97126e-32 0 4.69075e-31 0 4.96192e-30 0 3.176e-29 0 1.46168e-28 0 5.46115e-28 0 1.67414e-27 0 4.45613e-27 0 1.08056e-26 0 2.37758e-26 0 4.88958e-26 0 9.44199e-26 0 1.73726e-25 0 3.02295e-25 0 5.14452e-25 0 8.32029e-25 0 1.30745e-24 0 2.01807e-24 0
11.1377 9.99242e-14 9.99234e-14 7.72732e-19 7.73318e-06 0.000246943 1.05392e-40 0 1.01031e-36 0 4.04072e-33 0 3.49212e-31 0 7.11838e-30 0 6.71078e-29 0 3.9232e-28 0 1.67588e-27 0 5.8712e-27 0 1.70404e-26 0 4.32403e-26 0 1.00414e-25 0 2.12599e-25 0 4.22095e-25 0 7.89313e-25 0 1.40968e-24 0 2.3875e-24 0 3.95897e-24 0 6.25434e-24 0 9.61356e-24 0 1.45276e-23 0
11.7094 8.52465e-14 8.52458e-14 6.55146e-19 7.68531e-06 0.000241362 4.39296e-39 0 2.69158e-35 0 7.18036e-32 0 4.9914e-30 0 8.78192e-29 0 7.42007e-28 0 3.97955e-27 0 1.58361e-26 0 5.21853e-26 0 1.43783e-25 0 3.48635e-25 0 7.76987e-25 0 1.58589e-24 0 3.04495e-24 0 5.52264e-24 0 9.58786e-24 0 1.5826e-23 0 2.56028e-23 0 3.9554e-23 0 5.95356e-23 0 8.81721e-23 0
