# 6.6834e-07 1 51 : grain size, compostion index, size index
# Heating and cooling timescale: 777.268 1111.11
# Ratio of heating to cooling to determine stochastic cutoff: 100
# Equilibrium emission is recorded even for those grains in the stochastic regime.
# Emission spectrum was computed for: 
# Type: IRSF
# Scales: 0.25 0.5 1 1.5 2 2.5 3 3.5 4 4.5 5 5.5 6 6.5 7 7.5 8 8.5 9 9.5 10
# StochasticallyHeated: 1 1 1 1 1 1 1 1 1 1 1 1 1 1 1 1 1 1 1 1 1
# Temperature: -1
# Wavelength  CExt  CAbs  CSca  Albedo G EqEm1 StEm1 EqEm2 StEm2 EqEm3 StEm3 EqEm4 StEm4 EqEm5 StEm5 EqEm6 StEm6 EqEm7 StEm7 EqEm8 StEm8 EqEm9 StEm9 EqEm10 StEm10 EqEm11 StEm11 EqEm12 StEm12 EqEm13 StEm13 EqEm14 StEm14 EqEm15 StEm15 EqEm16 StEm16 EqEm17 StEm17 EqEm18 StEm18 EqEm19 StEm19 EqEm20 StEm20 EqEm21 StEm21
0.05 2.4035e-13 2.32877e-13 7.47275e-15 0.0310911 0.00770837 0 0 0 0 0 0 0 0 0 0 0 0 0 0 0 0 0 0 0 0 0 0 0 0 0 0 0 0 0 0 0 0 0 0 0 0 0 0 0 0 0 0
0.0525665 2.65658e-13 2.57398e-13 8.2596e-15 0.0310911 0.00852003 0 0 0 0 0 0 0 0 0 0 0 0 0 0 0 0 0 0 0 0 0 0 0 0 0 0 0 0 0 0 0 0 0 0 0 0 0 0 0 0 0 0
0.0552647 2.9363e-13 2.84501e-13 9.12929e-15 0.0310911 0.00941715 0 0 0 0 0 0 0 0 0 0 0 0 0 0 0 0 0 0 0 0 0 0 0 0 0 0 0 0 0 0 0 0 0 0 0 0 0 0 0 0 0 0
0.0581015 3.24548e-13 3.14458e-13 1.00906e-14 0.0310911 0.0104087 0 0 0 0 0 0 0 0 0 0 0 0 0 0 0 0 0 0 0 0 0 0 0 0 0 0 0 0 0 0 0 0 0 0 0 0 0 0 0 0 0 0
0.0610839 3.58721e-13 3.47568e-13 1.11531e-14 0.0310911 0.0115047 0 0 0 0 0 0 0 0 0 0 0 0 0 0 0 0 0 0 0 0 0 0 0 0 0 0 0 0 0 0 0 0 0 0 0 0 0 0 0 0 0 0
0.0642193 3.96493e-13 3.84166e-13 1.23274e-14 0.0310911 0.0127161 0 0 0 0 0 0 0 0 0 0 0 0 0 0 0 0 0 0 0 0 0 0 0 0 0 0 0 0 0 0 0 0 0 0 0 0 0 0 0 0 0 0
0.0675157 4.38242e-13 4.24616e-13 1.36254e-14 0.0310911 0.014055 0 0 0 0 0 0 0 0 0 0 0 0 0 0 0 0 0 0 0 0 0 0 0 0 0 0 0 0 0 0 0 0 0 0 0 0 0 0 0 0 0 0
0.0709813 4.84387e-13 4.69326e-13 1.50601e-14 0.0310911 0.015535 0 0 0 0 0 0 0 0 0 0 0 0 0 0 0 0 0 0 0 0 0 0 0 0 0 0 0 0 0 0 0 0 0 0 0 0 0 0 0 0 0 0
0.0746248 5.3539e-13 5.18744e-13 1.66459e-14 0.0310911 0.0171707 0 0 0 0 0 0 0 0 0 0 0 0 0 0 0 0 0 0 0 0 0 0 0 0 0 0 0 0 0 0 0 0 0 0 0 0 0 0 0 0 0 0
0.0784553 5.91764e-13 5.73365e-13 1.83986e-14 0.0310911 0.0189787 0 0 0 0 0 0 0 0 0 0 0 0 0 0 0 0 0 0 0 0 0 0 0 0 0 0 0 0 0 0 0 0 0 0 0 0 0 0 0 0 0 0
0.0824824 6.54074e-13 6.33738e-13 2.03359e-14 0.0310911 0.0209771 0 0 0 0 0 0 0 0 0 0 0 0 0 0 0 0 0 0 0 0 0 0 0 0 0 0 0 0 0 0 0 0 0 0 0 0 0 0 0 0 0 0
0.0867162 7.22945e-13 7.00468e-13 2.24772e-14 0.0310911 0.0231859 0 0 0 0 0 0 0 0 0 0 0 0 0 0 0 0 0 0 0 0 0 0 0 0 0 0 0 0 0 0 0 0 0 0 0 0 0 0 0 0 0 0
0.0911674 7.99068e-13 7.74224e-13 2.48439e-14 0.0310911 0.0256273 0 0 0 0 0 0 0 0 0 0 0 0 0 0 0 0 0 0 0 0 0 0 0 0 0 0 0 0 0 0 0 0 0 0 0 0 0 0 0 0 0 0
0.095847 8.83206e-13 8.55746e-13 2.74599e-14 0.0310911 0.0283257 0 0 0 0 0 0 0 0 0 0 0 0 0 0 0 0 0 0 0 0 0 0 0 0 0 0 0 0 0 0 0 0 0 0 0 0 0 0 0 0 0 0
0.100767 9.47829e-13 9.18649e-13 2.91809e-14 0.0307871 0.0307159 0 0 0 0 0 0 0 0 0 0 0 0 0 0 0 0 0 0 0 0 0 0 0 0 0 0 0 0 0 0 0 0 0 0 0 0 0 0 0 0 0 0
0.105939 8.56889e-13 8.32022e-13 2.48666e-14 0.0290196 0.0301812 0 0 0 0 0 0 0 0 0 0 0 0 0 0 0 0 0 0 0 0 0 0 0 0 0 0 0 0 0 0 0 0 0 0 0 0 0 0 0 0 0 0
0.111377 7.60708e-13 7.39777e-13 2.0931e-14 0.0275152 0.0288772 0 0 0 0 0 0 0 0 0 0 0 0 0 0 0 0 0 0 0 0 0 0 0 0 0 0 0 0 0 0 0 0 0 0 0 0 0 0 0 0 0 0
0.117094 6.65025e-13 6.47494e-13 1.7531e-14 0.0263614 0.0272845 0 0 0 0 0 0 0 0 0 0 0 0 0 0 0 0 0 0 0 0 0 0 0 0 0 0 0 0 0 0 0 0 0 0 0 0 0 0 0 0 0 0
0.123105 5.6527e-13 5.50831e-13 1.44384e-14 0.0255425 0.025626 0 0 0 0 0 0 0 0 0 0 0 0 0 0 0 0 0 0 0 0 0 0 0 0 0 0 0 0 0 0 0 0 0 0 0 0 0 0 0 0 0 0
0.129424 4.72352e-13 4.60656e-13 1.16955e-14 0.02476 0.0240129 0 0 0 0 0 0 0 0 0 0 0 0 0 0 0 0 0 0 0 0 0 0 0 0 0 0 0 0 0 0 0 0 0 0 0 0 0 0 0 0 0 0
0.136067 3.86758e-13 3.77158e-13 9.60045e-15 0.0248229 0.0225323 0 0 0 0 0 0 0 0 0 0 0 0 0 0 0 0 0 0 0 0 0 0 0 0 0 0 0 0 0 0 0 0 0 0 0 0 0 0 0 0 0 0
0.143051 2.95156e-13 2.87476e-13 7.67976e-15 0.0260193 0.0213944 0 0 0 0 0 0 0 0 0 0 0 0 0 0 0 0 0 0 0 0 0 0 0 0 0 0 0 0 0 0 0 0 0 0 0 0 0 0 0 0 0 0
0.150394 2.08227e-13 2.0231e-13 5.91725e-15 0.0284174 0.0204081 0 0 0 0 0 0 0 0 0 0 0 0 0 0 0 0 0 0 0 0 0 0 0 0 0 0 0 0 0 0 0 0 0 0 0 0 0 0 0 0 0 0
0.158114 1.38198e-13 1.33787e-13 4.41085e-15 0.0319169 0.0186903 0 0 0 0 0 0 0 0 0 0 0 0 0 0 0 0 0 0 0 0 0 0 0 0 0 0 0 0 0 0 0 0 0 0 0 0 0 0 0 0 0 0
0.16623 9.02891e-14 8.70593e-14 3.22981e-15 0.0357719 0.0166309 0 0 0 0 0 0 0 0 0 0 0 0 0 0 0 0 0 0 0 0 0 0 0 0 0 0 0 0 0 0 0 0 0 0 0 0 0 0 0 0 0 0
0.174762 6.42208e-14 6.18354e-14 2.38541e-15 0.0371439 0.0146788 0 0 0 0 0 0 0 0 0 0 0 0 0 0 0 0 0 0 0 0 0 0 0 0 0 0 0 0 0 0 0 0 0 0 0 0 0 0 0 0 0 0
0.183733 4.56915e-14 4.3922e-14 1.76944e-15 0.0387259 0.0129524 0 0 0 0 0 0 0 0 0 0 0 0 0 0 0 0 0 0 0 0 0 0 0 0 0 0 0 0 0 0 0 0 0 0 0 0 0 0 0 0 0 0
0.193164 3.44508e-14 3.31255e-14 1.32533e-15 0.0384701 0.011461 0 0 0 0 0 0 0 0 0 0 0 0 0 0 0 0 0 0 0 0 0 0 0 0 0 0 0 0 0 0 0 0 0 0 0 0 0 0 0 0 0 0
0.203079 3.15453e-14 3.05389e-14 1.00646e-15 0.0319051 0.0101707 0 0 0 0 0 0 0 0 0 0 0 0 0 0 0 0 0 0 0 0 0 0 0 0 0 0 0 0 0 0 0 0 0 0 0 0 0 0 0 0 0 0
0.213503 2.99853e-14 2.92078e-14 7.77477e-16 0.0259286 0.00904485 0 0 0 0 0 0 0 0 0 0 0 0 0 0 0 0 0 0 0 0 0 0 0 0 0 0 0 0 0 0 0 0 0 0 0 0 0 0 0 0 0 0
0.224463 2.81786e-14 2.75675e-14 6.11094e-16 0.0216865 0.00806689 0 0 0 0 0 0 0 0 0 0 0 0 0 0 0 0 0 0 0 0 0 0 0 0 0 0 0 0 0 0 0 0 0 0 0 0 0 0 0 0 0 0
0.235984 2.67679e-14 2.62846e-14 4.83378e-16 0.0180581 0.00721942 0 0 0 0 0 0 0 0 0 0 0 0 0 0 0 0 0 0 0 0 0 0 0 0 0 0 0 0 0 0 0 0 0 0 0 0 0 0 0 0 0 0
0.248097 2.55248e-14 2.51405e-14 3.84359e-16 0.0150582 0.0064787 0 0 0 0 0 0 0 0 0 0 0 0 0 0 0 0 0 0 0 0 0 0 0 0 0 0 0 0 0 0 0 0 0 0 0 0 0 0 0 0 0 0
0.260832 2.44518e-14 2.41442e-14 3.07534e-16 0.0125772 0.00582364 0 0 0 0 0 0 0 0 0 0 0 0 0 0 0 0 0 0 0 0 0 0 0 0 0 0 0 0 0 0 0 0 0 0 0 0 0 0 0 0 0 0
0.274221 2.34088e-14 2.31618e-14 2.46979e-16 0.0105507 0.00524026 0 0 0 0 0 0 0 0 0 0 0 0 0 0 0 0 0 0 0 0 0 0 0 0 0 0 0 0 0 0 0 0 0 0 0 0 0 0 0 0 0 0
0.288297 2.23816e-14 2.21826e-14 1.99038e-16 0.00889292 0.00472042 0 0 0 0 0 0 0 0 0 0 0 0 0 0 0 0 0 0 0 0 0 0 0 0 0 0 0 0 0 0 0 0 0 0 0 0 0 0 0 0 0 0
0.303095 2.13777e-14 2.12169e-14 1.60779e-16 0.00752086 0.00425542 0 0 0 0 0 0 0 0 0 0 0 0 0 0 0 0 0 0 0 0 0 0 0 0 0 0 0 0 0 0 0 0 0 0 0 0 0 0 0 0 0 0
0.318653 2.03979e-14 2.02677e-14 1.30194e-16 0.00638269 0.00383796 0 0 0 0 0 0 0 0 0 0 0 0 0 0 0 0 0 0 0 0 0 0 0 0 0 0 0 0 0 0 0 0 0 0 0 0 0 0 0 0 0 0
0.335009 1.94481e-14 1.93425e-14 1.05627e-16 0.0054312 0.00346298 0 0 0 0 0 0 0 0 0 0 0 0 0 0 0 0 0 0 0 0 0 0 0 0 0 0 0 0 0 0 0 0 0 0 0 0 0 0 0 0 0 0
0.352205 1.85314e-14 1.84456e-14 8.58277e-17 0.00463147 0.00312594 0 0 0 0 0 0 0 0 0 0 0 0 0 0 0 0 0 0 0 0 0 0 0 0 0 0 0 0 0 0 0 0 0 0 0 0 0 0 0 0 0 0
0.370284 1.76485e-14 1.75787e-14 6.98709e-17 0.00395902 0.0028227 0 0 0 0 0 0 0 0 0 0 0 0 0 0 0 0 0 0 0 0 0 0 0 0 0 0 0 0 0 0 0 0 0 0 0 0 0 0 0 0 0 0
0.389291 1.68007e-14 1.67438e-14 5.69246e-17 0.00338823 0.00254965 0 0 0 0 0 0 0 0 0 0 0 0 0 0 0 0 0 0 0 0 0 0 0 0 0 0 0 0 0 0 0 0 0 0 0 0 0 0 0 0 0 0
0.409273 1.59882e-14 1.59417e-14 4.64394e-17 0.00290462 0.00230348 0 0 0 0 0 0 0 0 0 0 0 0 0 0 0 0 0 0 0 0 0 0 0 0 0 0 0 0 0 0 0 0 0 0 0 0 0 0 0 0 0 0
0.430281 1.52115e-14 1.51736e-14 3.79117e-17 0.00249231 0.00208133 0 0 0 0 0 0 0 0 0 0 0 0 0 0 0 0 0 0 0 0 0 0 0 0 0 0 0 0 0 0 0 0 0 0 0 0 0 0 0 0 0 0
0.452368 1.44682e-14 1.44373e-14 3.0972e-17 0.00214069 0.00188141 0 0 0 0 0 0 0 0 0 0 0 0 0 0 0 0 0 0 0 0 0 0 0 0 0 0 0 0 0 0 0 0 0 0 0 0 0 0 0 0 0 0
0.475588 1.37595e-14 1.37342e-14 2.53155e-17 0.00183986 0.00170077 0 0 0 0 0 0 0 0 0 0 0 0 0 0 0 0 0 0 0 0 0 0 0 0 0 0 0 0 0 0 0 0 0 0 0 0 0 0 0 0 0 0
0.5 1.30833e-14 1.30626e-14 2.07057e-17 0.00158261 0.00153754 0 0 0 0 0 0 0 0 0 0 0 0 0 0 0 0 0 0 0 0 0 0 0 0 0 0 0 0 0 0 0 0 0 0 0 0 0 0 0 0 0 0
0.525665 1.24384e-14 1.24215e-14 1.6946e-17 0.00136239 0.00139008 0 0 0 0 0 0 0 0 0 0 0 0 0 0 0 0 0 0 0 0 0 0 0 0 0 0 0 0 0 0 0 0 0 0 0 0 0 0 0 0 0 0
0.552648 1.18229e-14 1.1809e-14 1.38763e-17 0.00117369 0.00125696 0 0 0 0 0 0 0 0 0 0 0 0 0 0 0 0 0 0 0 0 0 0 0 0 0 0 0 0 0 0 0 0 0 0 0 0 0 0 0 0 0 0
0.581015 1.12397e-14 1.12284e-14 1.13602e-17 0.00101072 0.00113689 0 0 0 0 0 0 0 0 0 0 0 0 0 0 0 0 0 0 0 0 0 0 0 0 0 0 0 0 0 0 0 0 0 0 0 0 0 0 0 0 0 0
0.610839 1.0685e-14 1.06757e-14 9.30128e-18 0.000870499 0.00102822 0 0 0 0 0 0 0 0 0 0 0 0 0 0 0 0 0 0 0 0 0 0 0 0 0 0 0 0 0 0 0 0 0 0 0 0 0 0 0 0 0 0
0.642193 1.01523e-14 1.01447e-14 7.61998e-18 0.000750564 0.000929868 0 0 0 0 0 0 0 0 0 0 0 0 0 0 0 0 0 0 0 0 0 0 0 0 0 0 0 0 0 0 0 0 0 0 0 0 0 0 0 0 0 0
0.675157 9.64828e-15 9.64203e-15 6.24254e-18 0.000647011 0.00084115 0 0 0 0 0 0 0 0 0 0 0 0 0 0 0 0 0 0 0 0 0 0 0 0 0 0 0 0 0 0 0 0 0 0 0 0 0 0 0 0 0 0
0.709813 9.17263e-15 9.16751e-15 5.11324e-18 0.000557446 0.000760922 0 0 0 0 0 0 0 0 0 0 0 0 0 0 0 0 0 0 0 0 0 0 0 0 0 0 0 0 0 0 0 0 0 0 0 0 0 0 0 0 0 0
0.746248 8.72158e-15 8.71739e-15 4.18905e-18 0.000480309 0.000688308 0 0 0 0 0 0 0 0 0 0 0 0 0 0 0 0 0 0 0 0 0 0 0 0 0 0 0 0 0 0 0 0 0 0 0 0 0 0 0 0 0 0
0.784553 8.29325e-15 8.28982e-15 3.43087e-18 0.000413694 0.000622577 0 0 0 0 0 0 0 0 0 0 0 0 0 0 0 0 0 0 0 0 0 0 0 0 0 0 0 0 0 0 0 0 0 0 0 0 0 0 0 0 0 0
0.824824 7.88672e-15 7.88391e-15 2.81011e-18 0.00035631 0.00056326 0 0 0 0 0 0 0 0 0 0 0 0 0 0 0 0 0 0 0 0 0 0 0 0 0 0 0 0 0 0 0 0 0 0 0 0 0 0 0 0 0 0
0.867162 7.49888e-15 7.49658e-15 2.3015e-18 0.000306913 0.000509621 0 0 0 0 0 0 0 0 0 0 0 0 0 0 0 0 0 0 0 0 0 0 0 0 0 0 0 0 0 0 0 0 0 0 0 0 0 0 0 0 0 0
0.911674 7.13585e-15 7.13397e-15 1.88413e-18 0.000264037 0.000461065 0 0 0 0 0 0 0 0 0 0 0 0 0 0 0 0 0 0 0 0 0 0 0 0 0 0 0 0 0 0 0 0 0 0 0 0 0 0 0 0 0 0
0.95847 6.79502e-15 6.79348e-15 1.54116e-18 0.000226808 0.000417122 0 0 0 0 0 0 0 0 0 0 0 0 0 0 0 0 0 0 0 0 0 0 0 0 0 0 0 0 0 0 0 0 0 0 0 0 0 0 0 0 0 0
1.00767 6.47191e-15 6.47065e-15 1.25746e-18 0.000194296 0.000377402 0 0 0 0 0 0 0 0 0 0 0 0 0 0 0 0 0 0 0 0 0 0 0 0 0 0 0 0 0 0 0 0 0 0 0 0 0 0 0 0 0 0
1.05939 6.30265e-15 6.30162e-15 1.02626e-18 0.000162829 0.000341481 0 0 0 0 0 0 0 0 0 0 0 0 0 0 0 0 0 0 0 0 0 0 0 0 0 0 0 0 0 0 0 0 0 0 0 0 0 0 0 0 0 0
1.11377 6.16116e-15 6.16032e-15 8.38772e-19 0.000136139 0.000308956 0 0 0 0 0 0 0 0 0 0 0 0 0 0 0 0 0 0 0 0 0 0 0 0 0 0 0 0 0 0 0 0 0 0 0 0 0 0 0 0 0 0
1.17094 6.04586e-15 6.04517e-15 6.86928e-19 0.00011362 0.000279506 0 0 0 0 0 0 0 0 0 0 0 0 0 0 0 0 0 0 0 0 0 0 0 0 0 0 0 0 0 0 0 0 0 0 0 0 0 0 0 0 0 0
1.23105 5.94356e-15 5.943e-15 5.6239e-19 9.46217e-05 0.000252867 0 0 0 0 0 0 0 0 0 0 0 0 0 0 0 0 0 0 0 0 0 0 0 0 0 0 0 0 0 0 0 0 0 0 0 0 0 0 0 0 0 0
1.29424 5.83219e-15 5.83173e-15 4.60673e-19 7.89879e-05 0.000228775 0 0 0 0 0 0 0 0 0 0 0 0 0 0 0 0 0 0 0 0 0 0 0 0 0 0 0 0 0 0 0 0 0 0 0 0 0 0 0 0 0 0
1.36067 5.70711e-15 5.70673e-15 3.78963e-19 6.6402e-05 0.000206995 0 0 0 0 0 0 0 0 0 0 0 0 0 0 0 0 0 0 0 0 0 0 0 0 0 0 0 0 0 0 0 0 0 0 0 0 0 0 0 0 0 0
1.43051 5.57337e-15 5.57306e-15 3.0835e-19 5.53256e-05 0.000187247 0 0 0 0 0 0 0 0 0 0 0 0 0 0 0 0 0 0 0 0 0 0 0 0 0 0 0 0 0 0 0 0 0 0 0 0 0 0 0 0 0 0
1.50394 5.43545e-15 5.4352e-15 2.52046e-19 4.63708e-05 0.00016939 0 0 0 0 0 0 0 0 0 0 0 0 0 0 0 0 0 0 0 0 0 0 0 0 0 0 0 0 0 0 0 0 0 0 0 0 0 0 0 0 0 0
1.58114 5.3021e-15 5.30189e-15 2.06243e-19 3.88984e-05 0.000153256 0 0 0 0 0 0 0 0 0 0 0 0 0 0 0 0 0 0 0 0 0 0 0 0 0 0 0 0 0 0 0 0 0 0 0 0 0 0 0 0 0 0
1.6623 5.18039e-15 5.18022e-15 1.68755e-19 3.25757e-05 0.000138633 0 0 0 0 0 0 0 0 0 0 0 0 0 0 0 0 0 0 0 0 0 0 0 0 0 0 0 0 0 0 0 0 0 0 0 0 0 0 0 0 0 0
1.74763 5.07739e-15 5.07725e-15 1.38064e-19 2.71919e-05 0.000125396 0 0 0 0 0 0 0 0 0 0 0 0 0 0 0 0 0 0 0 0 0 0 0 0 0 0 0 0 0 0 0 0 0 0 0 0 0 0 0 0 0 0
1.83733 5.00032e-15 5.0002e-15 1.12901e-19 2.25788e-05 0.000113408 0 0 0 0 0 0 0 0 0 0 0 0 0 0 0 0 0 0 0 0 0 0 0 0 0 0 0 0 0 0 0 0 0 0 0 0 0 0 0 0 0 0
1.93164 4.95284e-15 4.95275e-15 9.22962e-20 1.8635e-05 0.000102579 0 0 0 0 0 0 0 0 0 0 0 0 0 0 0 0 0 0 0 0 0 0 0 0 0 0 0 0 0 0 0 0 0 0 0 0 0 0 0 0 0 0
2.03079 4.93456e-15 4.93449e-15 7.54929e-20 1.52988e-05 9.27817e-05 0 0 0 0 0 0 0 0 0 0 0 0 0 0 0 0 0 0 0 0 0 0 0 0 0 0 0 0 0 0 0 0 0 0 0 0 0 0 0 0 0 0
2.13503 4.93865e-15 4.93859e-15 6.18072e-20 1.2515e-05 8.39039e-05 0 0 0 0 0 0 0 0 0 0 0 0 0 0 0 0 0 0 0 0 0 0 0 0 0 0 0 0 0 0 0 0 0 0 0 0 0 0 0 0 0 0
2.24463 4.94857e-15 4.94852e-15 5.06474e-20 1.02348e-05 7.58632e-05 0 0 0 0 0 0 0 0 0 0 0 0 0 0 0 0 0 0 0 0 0 0 0 0 0 0 0 0 0 0 0 0 0 0 0 0 0 0 0 0 0 0
2.35984 4.95984e-15 4.9598e-15 4.1527e-20 8.37264e-06 6.86001e-05 0 0 0 0 0 0 0 0 0 0 0 0 0 0 0 0 0 0 0 0 0 0 0 0 0 0 0 0 0 0 0 0 0 0 0 0 0 0 0 0 0 0
2.48097 4.97887e-15 4.97884e-15 3.40607e-20 6.84104e-06 6.2019e-05 0 0 0 0 0 0 0 0 0 0 0 0 0 0 0 0 0 0 0 0 0 0 0 0 0 0 0 0 0 0 0 0 0 0 0 0 0 0 0 0 0 0
2.60832 5.00652e-15 5.0065e-15 2.79542e-20 5.58355e-06 5.60624e-05 0 0 0 0 0 0 0 0 0 0 0 0 0 0 0 0 0 0 0 0 0 0 0 0 0 0 0 0 0 0 0 0 0 0 0 0 0 0 0 0 0 0
2.74221 5.0492e-15 5.04918e-15 2.29608e-20 4.54741e-06 5.0673e-05 0 0 0 0 0 0 0 0 0 0 0 0 0 0 0 0 0 0 0 0 0 0 0 0 0 0 0 0 0 0 0 0 0 0 0 0 0 0 0 0 0 0
2.88297 5.10795e-15 5.10793e-15 1.88907e-20 3.6983e-06 4.57923e-05 0 0 0 0 0 0 0 0 0 0 0 0 0 0 0 0 0 0 0 0 0 0 0 0 0 0 0 0 0 0 0 0 0 0 0 0 0 0 0 0 0 0
3.03095 5.18121e-15 5.18119e-15 1.56019e-20 3.01125e-06 4.1379e-05 0 0 0 0 0 0 0 0 0 0 0 0 0 0 0 0 0 0 0 0 0 0 0 0 0 0 0 0 0 0 0 0 0 0 0 0 0 0 0 0 0 0
3.18653 5.2061e-15 5.20609e-15 1.29163e-20 2.481e-06 3.73835e-05 0 0 0 0 0 0 0 0 0 0 0 0 0 0 0 0 0 0 0 0 0 0 0 0 0 0 0 0 0 0 0 0 0 0 0 0 0 0 0 0 0 0
3.35009 5.33779e-15 5.33778e-15 1.05602e-20 1.97838e-06 3.37644e-05 0 0 0 0 0 0 0 0 0 0 0 0 0 0 0 0 0 0 0 0 0 0 0 0 0 0 0 0 0 0 0 0 0 0 0 1.4013e-45 0 1.4013e-45 0 1.4013e-45 0 1.4013e-45
3.52205 5.31879e-15 5.31878e-15 9.18853e-21 1.72756e-06 3.04885e-05 0 0 0 0 0 0 0 0 0 0 0 0 0 0 0 0 0 1.4013e-45 0 1.4013e-45 0 2.8026e-45 0 4.2039e-45 0 5.60519e-45 0 9.80909e-45 0 1.26117e-44 0 1.82169e-44 0 2.38221e-44 0 3.22299e-44 0 4.2039e-44 0 5.46506e-44 0 7.00649e-44
3.70284 4.96493e-15 4.96493e-15 7.47506e-21 1.50557e-06 2.75257e-05 0 0 0 0 0 0 0 0 0 1.4013e-45 0 5.60519e-45 0 1.12104e-44 0 2.10195e-44 0 3.64338e-44 0 6.02558e-44 0 9.52883e-44 0 1.45735e-43 0 2.14399e-43 0 3.06884e-43 0 4.28797e-43 0 5.87144e-43 0 7.90332e-43 0 1.04677e-42 0 1.36627e-42 0 1.76143e-42 0 2.24348e-42
3.89291 4.86391e-15 4.8639e-15 6.12517e-21 1.25931e-06 2.48407e-05 0 0 0 0 0 5.60519e-45 0 2.52234e-44 0 7.28675e-44 0 1.73761e-43 0 3.60134e-43 0 6.74025e-43 0 1.17008e-42 0 1.91558e-42 0 2.99457e-42 0 4.50517e-42 0 6.56508e-42 0 9.31303e-42 0 1.29158e-41 0 1.75485e-41 0 2.34269e-41 0 3.07893e-41 0 3.99048e-41 0 5.10899e-41 0 6.46615e-41
4.09273 4.78461e-15 4.7846e-15 5.02268e-21 1.04976e-06 2.24058e-05 0 1.4013e-45 0 1.82169e-44 0 1.80768e-43 0 7.62306e-43 0 2.20004e-42 0 5.12875e-42 0 1.04046e-41 0 1.91333e-41 0 3.27091e-41 0 5.2843e-41 0 8.16172e-41 0 1.21455e-40 0 1.75228e-40 0 2.46282e-40 0 3.38534e-40 0 4.56203e-40 0 6.04337e-40 0 7.88495e-40 0 1.0149e-39 0 1.29078e-39 0 1.62342e-39
4.30281 4.72713e-15 4.72713e-15 4.12029e-21 8.71624e-07 2.01994e-05 0 6.5861e-44 0 5.29691e-43 0 5.06429e-42 0 2.05627e-41 0 5.77391e-41 0 1.31565e-40 0 2.61889e-40 0 4.73827e-40 0 7.98545e-40 0 1.27369e-39 0 1.94444e-39 0 2.86302e-39 0 4.09046e-39 0 5.69722e-39 0 7.76487e-39 0 1.0381e-38 0 1.36492e-38 0 1.76828e-38 0 2.26079e-38 0 2.85691e-38 0 3.57128e-38
4.52368 4.69357e-15 4.69357e-15 3.38359e-21 7.20899e-07 1.82027e-05 0 1.82589e-42 0 1.38687e-41 0 1.2436e-40 0 4.86133e-40 0 1.32791e-39 0 2.96026e-39 0 5.78553e-39 0 1.0304e-38 0 1.71265e-38 0 2.69807e-38 0 4.0728e-38 0 5.93558e-38 0 8.40039e-38 0 1.15977e-37 0 1.56771e-37 0 2.07982e-37 0 2.71482e-37 0 3.49302e-37 0 4.43688e-37 0 5.572e-37 0 6.92415e-37
4.75588 4.67754e-15 4.67754e-15 2.78326e-21 5.95026e-07 1.63913e-05 0 4.47589e-41 0 3.18924e-40 0 2.68466e-39 0 1.01105e-38 0 2.68823e-38 0 5.86632e-38 0 1.12629e-37 0 1.97549e-37 0 3.23966e-37 0 5.04272e-37 0 7.52952e-37 0 1.08646e-36 0 1.52357e-36 0 2.08562e-36 0 2.79681e-36 0 3.6828e-36 0 4.77345e-36 0 6.10096e-36 0 7.70066e-36 0 9.6126e-36 0 1.18768e-35
5 4.66598e-15 4.66597e-15 2.29406e-21 4.91658e-07 1.47443e-05 0 9.64264e-40 0 6.46029e-39 0 5.10916e-38 0 1.85467e-37 0 4.80254e-37 0 1.0264e-36 0 1.93672e-36 0 3.34683e-36 0 5.41728e-36 0 8.33444e-36 0 1.23135e-35 0 1.75967e-35 0 2.44575e-35 0 3.3204e-35 0 4.41831e-35 0 5.77593e-35 0 7.43546e-35 0 9.44201e-35 0 1.18448e-34 0 1.46994e-34 0 1.80607e-34
5.25665 4.64755e-15 4.64755e-15 1.89297e-21 4.07304e-07 1.32476e-05 0 1.82631e-38 0 1.15474e-37 0 8.59325e-37 0 3.00874e-36 0 7.59129e-36 0 1.58962e-35 0 2.94912e-35 0 5.02295e-35 0 8.02746e-35 0 1.22107e-34 0 1.78557e-34 0 2.52781e-34 0 3.4831e-34 0 4.69088e-34 0 6.19519e-34 0 8.04196e-34 0 1.02841e-33 0 1.29776e-33 0 1.61833e-33 0 1.99696e-33 0 2.44036e-33
5.52648 4.62292e-15 4.62291e-15 1.56195e-21 3.37871e-07 1.18929e-05 0 3.04954e-37 0 1.82802e-36 0 1.28317e-35 0 4.33712e-35 0 1.06685e-34 0 2.18982e-34 0 3.99598e-34 0 6.7103e-34 0 1.05918e-33 0 1.5934e-33 0 2.30682e-33 0 3.23602e-33 0 4.42154e-33 0 5.90838e-33 0 7.74632e-33 0 9.98688e-33 0 1.26891e-32 0 1.5915e-32 0 1.97318e-32 0 2.42142e-32 0 2.94353e-32
5.81015 4.5888e-15 4.5888e-15 1.28733e-21 2.80536e-07 1.06581e-05 0 4.4991e-36 0 2.56947e-35 0 1.70664e-34 0 5.57512e-34 0 1.33789e-33 0 2.69322e-33 0 4.83593e-33 0 8.00946e-33 0 1.24905e-32 0 1.85887e-32 0 2.66504e-32 0 3.70539e-32 0 5.02154e-32 0 6.6593e-32 0 8.66902e-32 0 1.11023e-31 0 1.4018e-31 0 1.74778e-31 0 2.15477e-31 1.4013e-45 2.63011e-31 2.8026e-45 3.18089e-31
6.10839 4.55035e-15 4.55035e-15 1.05876e-21 2.32676e-07 9.53573e-06 0 5.89097e-35 0 3.22048e-34 0 2.0313e-33 0 6.42265e-33 0 1.50489e-32 0 2.97269e-32 0 5.2547e-32 0 8.58692e-32 0 1.32343e-31 0 1.949e-31 0 2.76786e-31 0 3.81517e-31 0 5.12924e-31 0 6.75198e-31 1.4013e-45 8.72912e-31 2.8026e-45 1.11071e-30 7.00649e-45 1.39388e-30 1.96182e-44 1.7279e-30 4.62428e-44 2.11862e-30 1.06499e-43 2.57253e-30 2.34017e-43 3.09581e-30
6.42193 4.50637e-15 4.50637e-15 8.67652e-22 1.92539e-07 8.51178e-06 0 6.87103e-34 0 3.61037e-33 0 2.17053e-32 0 6.65358e-32 0 1.52367e-31 0 2.95539e-31 0 5.14541e-31 0 8.2995e-31 0 1.26459e-30 0 1.84345e-30 0 2.59395e-30 1.4013e-45 3.54547e-30 7.00649e-45 4.72984e-30 2.52234e-44 6.1816e-30 7.84727e-44 7.93819e-30 2.20004e-43 1.00373e-29 5.8294e-43 1.25217e-29 1.42372e-42 1.54355e-29 3.28464e-42 1.88253e-29 7.18165e-42 2.2743e-29 1.51915e-41 2.72371e-29
6.75157 4.47462e-15 4.47461e-15 7.05459e-22 1.57658e-07 7.56815e-06 0 7.19976e-33 0 3.64774e-32 0 2.0976e-31 0 6.24479e-31 0 1.39912e-30 0 2.66672e-30 0 4.57538e-30 0 7.28774e-30 1.4013e-45 1.09821e-29 7.00649e-45 1.58517e-29 3.50325e-44 2.21066e-29 1.48538e-43 2.997e-29 5.5071e-43 3.96817e-29 1.76564e-42 5.15005e-29 5.27589e-42 6.57049e-29 1.41727e-41 8.25729e-29 3.58116e-41 1.02419e-28 8.3778e-41 1.25565e-28 1.8563e-40 1.52351e-28 3.90583e-40 1.8315e-28 7.96551e-40 2.18313e-28
7.09813 4.40254e-15 4.40254e-15 5.73232e-22 1.30205e-07 6.6796e-06 0 6.73237e-32 0 3.2957e-31 0 1.81822e-30 0 5.26609e-30 0 1.15558e-29 0 2.16597e-29 1.4013e-45 3.66438e-29 1.12104e-44 5.76636e-29 8.68805e-44 8.59722e-29 5.10073e-43 1.22914e-28 2.39062e-42 1.69937e-28 9.58348e-42 2.28569e-28 3.32206e-41 3.00437e-28 1.00644e-40 3.87287e-28 2.85068e-40 4.90987e-28 7.29653e-40 6.13383e-28 1.76207e-39 7.56565e-28 3.95458e-39 9.22648e-28 8.4285e-39 1.11386e-27 1.71018e-38 1.33264e-27 3.36846e-38 1.58126e-27
7.46248 4.34417e-15 4.34417e-15 4.5432e-22 1.04581e-07 5.81462e-06 0 5.71758e-31 0 2.7067e-30 0 1.43602e-29 0 4.0525e-29 0 8.71907e-29 4.2039e-45 1.60836e-28 7.9874e-44 2.68464e-28 8.07148e-43 4.1757e-28 5.70188e-42 6.16199e-28 3.05483e-41 8.72897e-28 1.32923e-40 1.1968e-27 4.97848e-40 1.59746e-27 1.62403e-39 2.08497e-27 4.66096e-39 2.67013e-27 1.25475e-38 3.36439e-27 3.06759e-38 4.17898e-27 7.09593e-38 5.1266e-27 1.53089e-37 6.21999e-27 3.14448e-37 7.47249e-27 6.16363e-37 8.8988e-27 1.1745e-36 1.05123e-26
