# 5.3088e-05 0 127 : grain size, compostion index, size index
# Heating and cooling timescale: 0.000690617 2.46789e+06
# Ratio of heating to cooling to determine stochastic cutoff: 100
# Equilibrium emission is recorded even for those grains in the stochastic regime.
# Emission spectrum was computed for: 
# Type: IRSF
# Scales: 0.25 0.5 1 1.5 2 2.5 3 3.5 4 4.5 5 5.5 6 6.5 7 7.5 8 8.5 9 9.5 10
# StochasticallyHeated: 0 0 0 0 0 0 0 0 0 0 0 0 0 0 0 0 0 0 0 0 0
# Temperature: -1
# Wavelength  CExt  CAbs  CSca  Albedo G EqEm1 StEm1 EqEm2 StEm2 EqEm3 StEm3 EqEm4 StEm4 EqEm5 StEm5 EqEm6 StEm6 EqEm7 StEm7 EqEm8 StEm8 EqEm9 StEm9 EqEm10 StEm10 EqEm11 StEm11 EqEm12 StEm12 EqEm13 StEm13 EqEm14 StEm14 EqEm15 StEm15 EqEm16 StEm16 EqEm17 StEm17 EqEm18 StEm18 EqEm19 StEm19 EqEm20 StEm20 EqEm21 StEm21
0.05 4.89674e-09 1.8795e-09 3.01724e-09 0.616173 0.00576547 0 0 0 0 0 0 0 0 0 0 0 0 0 0 0 0 0 0 0 0 0 0 0 0 0 0 0 0 0 0 0 0 0 0 0 0 0 0 0 0 0 0
0.0525665 5.41235e-09 2.0774e-09 3.33494e-09 0.616173 0.00637255 0 0 0 0 0 0 0 0 0 0 0 0 0 0 0 0 0 0 0 0 0 0 0 0 0 0 0 0 0 0 0 0 0 0 0 0 0 0 0 0 0 0
0.0552647 5.98224e-09 2.29614e-09 3.6861e-09 0.616173 0.00704355 0 0 0 0 0 0 0 0 0 0 0 0 0 0 0 0 0 0 0 0 0 0 0 0 0 0 0 0 0 0 0 0 0 0 0 0 0 0 0 0 0 0
0.0581015 6.61214e-09 2.53792e-09 4.07422e-09 0.616173 0.0077852 0 0 0 0 0 0 0 0 0 0 0 0 0 0 0 0 0 0 0 0 0 0 0 0 0 0 0 0 0 0 0 0 0 0 0 0 0 0 0 0 0 0
0.0610839 7.30837e-09 2.80515e-09 4.50322e-09 0.616173 0.00860494 0 0 0 0 0 0 0 0 0 0 0 0 0 0 0 0 0 0 0 0 0 0 0 0 0 0 0 0 0 0 0 0 0 0 0 0 0 0 0 0 0 0
0.0642193 8.0779e-09 3.10051e-09 4.97739e-09 0.616173 0.009511 0 0 0 0 0 0 0 0 0 0 0 0 0 0 0 0 0 0 0 0 0 0 0 0 0 0 0 0 0 0 0 0 0 0 0 0 0 0 0 0 0 0
0.0675157 8.92847e-09 3.42698e-09 5.50148e-09 0.616173 0.0105125 0 0 0 0 0 0 0 0 0 0 0 0 0 0 0 0 0 0 0 0 0 0 0 0 0 0 0 0 0 0 0 0 0 0 0 0 0 0 0 0 0 0
0.0709813 9.86859e-09 3.78783e-09 6.08076e-09 0.616173 0.0116194 0 0 0 0 0 0 0 0 0 0 0 0 0 0 0 0 0 0 0 0 0 0 0 0 0 0 0 0 0 0 0 0 0 0 0 0 0 0 0 0 0 0
0.0746248 1.09077e-08 4.18667e-09 6.72104e-09 0.616173 0.0128428 0 0 0 0 0 0 0 0 0 0 0 0 0 0 0 0 0 0 0 0 0 0 0 0 0 0 0 0 0 0 0 0 0 0 0 0 0 0 0 0 0 0
0.0784553 1.20562e-08 4.6275e-09 7.42873e-09 0.616173 0.0141951 0 0 0 0 0 0 0 0 0 0 0 0 0 0 0 0 0 0 0 0 0 0 0 0 0 0 0 0 0 0 0 0 0 0 0 0 0 0 0 0 0 0
0.0824824 1.33257e-08 5.11476e-09 8.21094e-09 0.616173 0.0156898 0 0 0 0 0 0 0 0 0 0 0 0 0 0 0 0 0 0 0 0 0 0 0 0 0 0 0 0 0 0 0 0 0 0 0 0 0 0 0 0 0 0
0.0867162 1.47288e-08 5.65332e-09 9.07551e-09 0.616173 0.0173419 0 0 0 0 0 0 0 0 0 0 0 0 0 0 0 0 0 0 0 0 0 0 0 0 0 0 0 0 0 0 0 0 0 0 0 0 0 0 0 0 0 0
0.0911674 1.62797e-08 6.24858e-09 1.00311e-08 0.616173 0.0191679 0 0 0 0 0 0 0 0 0 0 0 0 0 0 0 0 0 0 0 0 0 0 0 0 0 0 0 0 0 0 0 0 0 0 0 0 0 0 0 0 0 0
0.095847 1.79939e-08 6.90653e-09 1.10874e-08 0.616173 0.0211862 0 0 0 0 0 0 0 0 0 0 0 0 0 0 0 0 0 0 0 0 0 0 0 0 0 0 0 0 0 0 0 0 0 0 0 0 0 0 0 0 0 0
0.100767 1.95791e-08 7.57235e-09 1.20068e-08 0.613244 0.0235692 0 0 0 0 0 0 0 0 0 0 0 0 0 0 0 0 0 0 0 0 0 0 0 0 0 0 0 0 0 0 0 0 0 0 0 0 0 0 0 0 0 0
0.105939 1.9555e-08 7.88804e-09 1.16669e-08 0.596622 0.0256046 0 0 0 0 0 0 0 0 0 0 0 0 0 0 0 0 0 0 0 0 0 0 0 0 0 0 0 0 0 0 0 0 0 0 0 0 0 0 0 0 0 0
0.111377 1.95847e-08 7.97923e-09 1.16055e-08 0.592579 0.0289403 0 0 0 0 0 0 0 0 0 0 0 0 0 0 0 0 0 0 0 0 0 0 0 0 0 0 0 0 0 0 0 0 0 0 0 0 0 0 0 0 0 0
0.117094 1.95677e-08 8.2491e-09 1.13186e-08 0.578432 0.0274507 0 0 0 0 0 0 0 0 0 0 0 0 0 0 0 0 0 0 0 0 0 0 0 0 0 0 0 0 0 0 0 0 0 0 0 0 0 0 0 0 0 0
0.123105 1.95916e-08 8.58175e-09 1.10098e-08 0.561967 0.0236555 0 0 0 0 0 0 0 0 0 0 0 0 0 0 0 0 0 0 0 0 0 0 0 0 0 0 0 0 0 0 0 0 0 0 0 0 0 0 0 0 0 0
0.129424 1.96386e-08 8.85468e-09 1.0784e-08 0.549119 0.0199126 0 0 0 0 0 0 0 0 0 0 0 0 0 0 0 0 0 0 0 0 0 0 0 0 0 0 0 0 0 0 0 0 0 0 0 0 0 0 0 0 0 0
0.136067 1.96869e-08 9.08246e-09 1.06045e-08 0.538655 0.0168557 0 0 0 0 0 0 0 0 0 0 0 0 0 0 0 0 0 0 0 0 0 0 0 0 0 0 0 0 0 0 0 0 0 0 0 0 0 0 0 0 0 0
0.143051 1.97233e-08 9.27834e-09 1.0445e-08 0.529575 0.0143876 0 0 0 0 0 0 0 0 0 0 0 0 0 0 0 0 0 0 0 0 0 0 0 0 0 0 0 0 0 0 0 0 0 0 0 0 0 0 0 0 0 0
0.150394 1.97307e-08 9.43701e-09 1.02937e-08 0.521711 0.0122986 0 0 0 0 0 0 0 0 0 0 0 0 0 0 0 0 0 0 0 0 0 0 0 0 0 0 0 0 0 0 0 0 0 0 0 0 0 0 0 0 0 0
0.158114 1.96803e-08 9.52666e-09 1.01537e-08 0.51593 0.01055 0 0 0 0 0 0 0 0 0 0 0 0 0 0 0 0 0 0 0 0 0 0 0 0 0 0 0 0 0 0 0 0 0 0 0 0 0 0 0 0 0 0
0.16623 1.95616e-08 9.49513e-09 1.00665e-08 0.514604 0.00908216 0 0 0 0 0 0 0 0 0 0 0 0 0 0 0 0 0 0 0 0 0 0 0 0 0 0 0 0 0 0 0 0 0 0 0 0 0 0 0 0 0 0
0.174762 1.94483e-08 9.32383e-09 1.01244e-08 0.520583 0.00782097 0 0 0 0 0 0 0 0 0 0 0 0 0 0 0 0 0 0 0 0 0 0 0 0 0 0 0 0 0 0 0 0 0 0 0 0 0 0 0 0 0 0
0.183733 1.9462e-08 9.01071e-09 1.04513e-08 0.53701 0.00667218 0 0 0 0 0 0 0 0 0 0 0 0 0 0 0 0 0 0 0 0 0 0 0 0 0 0 0 0 0 0 0 0 0 0 0 0 0 0 0 0 0 0
0.193164 1.96996e-08 8.55961e-09 1.114e-08 0.565493 0.00556038 0 0 0 0 0 0 0 0 0 0 0 0 0 0 0 0 0 0 0 0 0 0 0 0 0 0 0 0 0 0 0 0 0 0 0 0 0 0 0 0 0 0
0.203079 2.01203e-08 8.08036e-09 1.20399e-08 0.598397 0.00446034 0 0 0 0 0 0 0 0 0 0 0 0 0 0 0 0 0 0 0 0 0 0 0 0 0 0 0 0 0 0 0 0 0 0 0 0 0 0 0 0 0 0
0.213503 2.06348e-08 7.71949e-09 1.29153e-08 0.625899 0.00342932 0 0 0 0 0 0 0 0 0 0 0 0 0 0 0 0 0 0 0 0 0 0 0 0 0 0 0 0 0 0 0 0 0 0 0 0 0 0 0 0 0 0
0.224463 2.11577e-08 7.55032e-09 1.36074e-08 0.643141 0.00254317 0 0 0 0 0 0 0 0 0 0 0 0 0 0 0 0 0 0 0 0 0 0 0 0 0 0 0 0 0 0 0 0 0 0 0 0 0 0 0 0 0 0
0.235984 2.1575e-08 7.52214e-09 1.40528e-08 0.651349 0.00182186 0 0 0 0 0 0 0 0 0 0 0 0 0 0 0 0 0 0 0 0 0 0 0 0 0 0 0 0 0 0 0 0 0 0 0 0 0 0 0 0 0 0
0.248097 2.17817e-08 7.5462e-09 1.42355e-08 0.653554 0.00138916 0 0 0 0 0 0 0 0 0 0 0 0 0 0 0 0 0 0 0 0 0 0 0 0 0 0 0 0 0 0 0 0 0 0 0 0 0 0 0 0 0 0
0.260832 2.17451e-08 7.60617e-09 1.4139e-08 0.650213 0.00141961 0 0 0 0 0 0 0 0 0 0 0 0 0 0 0 0 0 0 0 0 0 0 0 0 0 0 0 0 0 0 0 0 0 0 0 0 0 0 0 0 0 0
0.274221 2.1553e-08 7.75626e-09 1.37968e-08 0.640131 0.00187131 0 0 0 0 0 0 0 0 0 0 0 0 0 0 0 0 0 0 0 0 0 0 0 0 0 0 0 0 0 0 0 0 0 0 0 0 0 0 0 0 0 0
0.288297 2.13683e-08 8.02555e-09 1.33427e-08 0.624418 0.00251556 0 0 0 0 0 0 0 0 0 0 0 0 0 0 0 0 0 0 0 0 0 0 0 0 0 0 0 0 0 0 0 0 0 0 0 0 0 0 0 0 0 0
0.303095 2.1289e-08 8.35494e-09 1.29341e-08 0.607547 0.0028362 0 0 0 0 0 0 0 0 0 0 0 0 0 0 0 0 0 0 0 0 0 0 0 0 0 0 0 0 0 0 0 0 0 0 0 0 0 0 0 0 0 0
0.318653 2.13055e-08 8.66895e-09 1.26365e-08 0.593112 0.00297223 0 0 0 0 0 0 0 0 0 0 0 0 0 0 0 0 0 0 0 0 0 0 0 0 0 0 0 0 0 0 0 0 0 0 0 0 0 0 0 0 0 0
0.335009 2.13779e-08 8.93383e-09 1.24441e-08 0.5821 0.00293231 0 0 0 0 0 0 0 0 0 0 0 0 0 0 0 0 0 0 0 0 0 0 0 0 0 0 0 0 0 0 0 0 0 0 0 0 0 0 0 0 0 0
0.352205 2.1479e-08 9.14365e-09 1.23353e-08 0.574298 0.00278811 0 0 0 0 0 0 0 0 0 0 0 0 0 0 0 0 0 0 0 0 0 0 0 0 0 0 0 0 0 0 0 0 0 0 0 0 0 0 0 0 0 0
0.370284 2.15952e-08 9.30569e-09 1.22895e-08 0.569086 0.00261033 0 0 0 0 0 0 0 0 0 0 0 0 0 0 0 0 0 0 0 0 0 0 0 0 0 0 0 0 0 0 0 0 0 0 0 0 0 0 0 0 0 0
0.389291 2.17177e-08 9.43067e-09 1.2287e-08 0.565761 0.00243645 0 0 0 0 0 0 0 0 0 0 0 0 0 0 0 0 0 0 0 0 0 0 0 0 0 0 0 0 0 0 0 0 0 0 0 0 0 0 0 0 0 0
0.409273 2.18446e-08 9.53258e-09 1.2312e-08 0.563619 0.00226652 0 0 0 0 0 0 0 0 0 0 0 0 0 0 0 0 0 0 0 0 0 0 0 0 0 0 0 0 0 0 0 0 0 0 0 0 0 0 0 0 0 0
0.430281 2.19706e-08 9.62165e-09 1.23489e-08 0.562067 0.00210471 0 0 0 0 0 0 0 0 0 0 0 0 0 0 0 0 0 0 0 0 0 0 0 0 0 0 0 0 0 0 0 0 0 0 0 0 0 0 0 0 0 0
0.452368 2.20969e-08 9.70934e-09 1.23875e-08 0.560601 0.00193723 0 0 0 0 0 0 0 0 0 0 0 0 0 0 0 0 0 0 0 0 0 0 0 0 0 0 0 0 0 0 0 0 0 0 0 0 0 0 0 0 0 0
0.475588 2.22232e-08 9.79851e-09 1.24247e-08 0.559087 0.00177642 0 0 0 0 0 0 0 0 0 0 0 0 0 0 0 0 0 0 0 0 0 0 0 0 0 0 0 0 0 0 0 0 0 0 0 0 0 0 0 0 0 0
0.5 2.23516e-08 9.89272e-09 1.24589e-08 0.557405 0.00162159 0 0 0 0 0 0 0 0 0 0 0 0 0 0 0 0 0 0 0 0 0 0 0 0 0 0 0 0 0 0 0 0 0 0 0 0 0 0 0 0 0 0
0.525665 2.24843e-08 9.99371e-09 1.24906e-08 0.555525 0.0014751 0 0 0 0 0 0 0 0 0 0 0 0 0 0 0 0 0 0 0 0 0 0 0 0 0 0 0 0 0 0 0 0 0 0 0 0 0 0 0 0 0 0
0.552648 2.26186e-08 1.00968e-08 1.25217e-08 0.553604 0.00134175 0 0 0 0 0 0 0 0 0 0 0 0 0 0 0 0 0 0 0 0 0 0 0 0 0 0 0 0 0 0 0 0 0 0 0 0 0 0 0 0 0 0
0.581015 2.27615e-08 1.02037e-08 1.25578e-08 0.551713 0.00121775 0 0 0 0 0 0 0 0 0 0 0 0 0 0 0 0 0 0 0 0 0 0 0 0 0 0 0 0 0 0 0 0 0 0 0 0 0 0 0 0 0 0
0.610839 2.29103e-08 1.03134e-08 1.25969e-08 0.549835 0.00110516 0 0 0 0 0 0 0 0 0 0 0 0 0 0 0 0 0 0 0 0 0 0 0 0 0 0 0 0 0 0 0 0 0 0 0 0 0 0 0 0 0 0
0.642193 2.30582e-08 1.04172e-08 1.2641e-08 0.548223 0.00100302 0 0 0 0 0 0 0 0 0 0 0 0 0 0 0 0 0 0 0 0 0 0 0 0 0 0 0 0 0 0 0 0 0 0 0 0 0 0 0 0 0 0
0.675157 2.32144e-08 1.05182e-08 1.26962e-08 0.546909 0.000910957 0 0 0 0 0 0 0 0 0 0 0 0 0 0 0 0 0 0 0 0 0 0 0 0 0 0 0 0 0 0 0 0 0 0 0 0 0 0 0 0 0 0
0.709813 2.33802e-08 1.06223e-08 1.27579e-08 0.545671 0.00082817 0 0 0 0 0 0 0 0 0 0 0 0 0 0 0 0 0 0 0 0 0 0 0 0 0 0 0 0 0 0 0 0 0 0 0 0 0 0 0 0 0 0
0.746248 2.35465e-08 1.07228e-08 1.28237e-08 0.544612 0.000754183 0 0 0 0 0 0 0 0 0 0 0 0 0 0 0 0 0 0 0 0 0 0 0 0 0 0 0 0 0 0 0 0 0 0 0 0 0 0 0 0 0 0
0.784553 2.37069e-08 1.08085e-08 1.28985e-08 0.54408 0.000686995 0 0 0 0 0 0 0 0 0 0 0 0 0 0 0 0 0 0 0 0 0 0 0 0 0 0 0 0 0 0 0 0 0 0 0 0 0 0 0 0 0 0
0.824824 2.38752e-08 1.08889e-08 1.29863e-08 0.543925 0.000626788 0 0 0 0 0 0 0 0 0 0 0 0 0 0 0 0 0 0 0 0 0 0 0 0 0 0 0 0 0 0 0 0 0 0 0 0 0 0 0 0 0 0
0.867162 2.4059e-08 1.09775e-08 1.30816e-08 0.543727 0.000572518 0 0 0 0 0 0 0 0 0 0 0 0 0 0 0 0 0 0 0 0 0 0 0 0 0 0 0 0 0 0 0 0 0 0 0 0 0 0 0 0 0 0
0.911674 2.4241e-08 1.10674e-08 1.31735e-08 0.543441 0.000523427 0 0 0 0 0 0 0 0 0 0 0 0 0 0 0 0 0 0 0 0 0 0 0 0 0 0 0 0 0 0 0 0 0 0 0 0 0 0 0 0 0 0
0.95847 2.44002e-08 1.11385e-08 1.32618e-08 0.543511 0.00047944 0 0 0 0 0 0 0 0 0 0 0 0 0 0 0 0 0 0 0 0 0 0 0 0 0 0 0 0 0 0 0 0 0 0 0 0 0 0 0 0 0 0
1.00767 2.45469e-08 1.1188e-08 1.33589e-08 0.544221 0.0004395 0 0 0 0 0 0 0 0 0 0 0 0 0 0 0 0 0 0 0 0 0 0 0 0 0 0 0 0 0 0 0 0 0 0 0 0 0 0 0 0 0 0
1.05939 2.47142e-08 1.12394e-08 1.34748e-08 0.545225 0.000403275 0 0 0 0 0 0 0 0 0 0 0 0 0 0 0 0 0 0 0 0 0 0 0 0 0 0 0 0 0 0 0 0 0 0 0 0 0 0 0 0 0 0
1.11377 2.49135e-08 1.13155e-08 1.3598e-08 0.545808 0.000370298 0 0 0 0 0 0 0 0 0 0 0 0 0 0 0 0 0 0 0 0 0 0 0 0 0 0 0 0 0 0 0 0 0 0 0 0 0 0 0 0 0 0
1.17094 2.5113e-08 1.14075e-08 1.37055e-08 0.545752 0.000339515 0 0 0 0 0 0 0 0 0 0 0 0 0 0 0 0 0 0 0 0 0 0 0 0 0 0 0 0 0 0 0 0 0 0 0 0 0 0 0 0 0 0
1.23105 2.52703e-08 1.14867e-08 1.37837e-08 0.545449 0.000311294 0 0 0 0 0 0 0 0 0 0 0 0 0 0 0 0 0 0 0 0 0 0 0 0 0 0 0 0 0 0 0 0 0 0 0 0 0 0 0 0 0 0
1.29424 2.53704e-08 1.15252e-08 1.38452e-08 0.545724 0.000285362 0 0 0 0 0 0 0 0 0 0 0 0 0 0 0 0 0 0 0 0 0 0 0 0 0 0 0 0 0 0 0 0 0 0 0 0 0 0 0 0 0 0
1.36067 2.54475e-08 1.1531e-08 1.39165e-08 0.546871 0.000261742 0 0 0 0 0 0 0 0 0 0 0 0 0 0 0 0 0 0 0 0 0 0 0 0 0 0 0 0 0 0 0 0 0 0 0 0 0 0 0 0 0 0
1.43051 2.55615e-08 1.15388e-08 1.40227e-08 0.548586 0.000240209 0 0 0 0 0 0 0 0 0 0 0 0 0 0 0 0 0 0 0 0 0 0 0 0 0 0 0 0 0 0 0 0 0 0 0 0 0 0 0 0 0 0
1.50394 2.5746e-08 1.1587e-08 1.4159e-08 0.549949 0.000220279 0 0 0 0 0 0 0 0 0 0 0 0 0 0 0 0 0 0 0 0 0 0 0 0 0 0 0 0 0 0 0 0 0 0 0 0 0 0 0 0 0 0
1.58114 2.59852e-08 1.16882e-08 1.42969e-08 0.550196 0.000201732 0 0 0 0 0 0 0 0 0 0 0 0 0 0 0 0 0 0 0 0 0 0 0 0 0 0 0 0 0 0 0 0 0 0 0 0 0 0 0 0 0 0
1.6623 2.62205e-08 1.18254e-08 1.43951e-08 0.549002 0.000184534 0 0 0 0 0 0 0 0 0 0 0 0 0 0 0 0 0 0 0 0 0 0 0 0 0 0 0 0 0 0 0 0 0 0 0 0 0 0 0 0 0 0
1.74763 2.63845e-08 1.19601e-08 1.44244e-08 0.5467 0.000169005 0 0 0 0 0 0 0 0 0 0 0 0 0 0 0 0 0 0 0 0 0 0 0 0 0 0 0 0 0 0 0 0 0 0 0 0 0 0 0 0 0 0
1.83733 2.64271e-08 1.20497e-08 1.43774e-08 0.544041 0.000154804 0 0 0 0 0 0 0 0 0 0 0 0 0 0 0 0 0 0 0 0 0 0 0 0 0 0 0 0 0 0 0 0 0 0 0 0 0 0 0 0 0 0
1.93164 2.63492e-08 1.20714e-08 1.42778e-08 0.541868 0.000141793 0 0 0 0 0 0 0 0 0 0 0 0 0 0 0 0 0 0 0 0 0 0 0 0 0 0 0 0 0 0 0 0 0 0 0 0 0 0 0 0 0 0
2.03079 2.62015e-08 1.20318e-08 1.41697e-08 0.540797 0.000129725 0 0 0 0 0 0 0 0 0 0 0 0 0 0 0 0 0 0 0 0 0 0 0 0 0 0 0 0 0 0 0 0 0 0 0 0 0 0 0 0 0 0
2.13503 2.60671e-08 1.19629e-08 1.41042e-08 0.541073 0.000118657 0 0 0 0 0 0 0 0 0 0 0 0 0 0 0 0 0 0 0 0 0 0 0 0 0 0 0 0 0 0 0 0 0 0 0 0 0 0 0 0 0 0
2.24463 2.60212e-08 1.19109e-08 1.41103e-08 0.54226 0.000108569 0 0 0 0 0 0 0 0 0 0 0 0 0 0 0 0 0 0 0 0 0 0 0 0 0 0 0 0 0 0 0 0 0 0 0 0 0 0 0 0 0 0
2.35984 2.61139e-08 1.19169e-08 1.4197e-08 0.543657 9.92926e-05 0 0 0 0 0 0 0 0 0 0 0 0 0 0 0 0 0 0 0 0 0 0 0 0 0 0 0 0 0 0 0 0 0 0 0 0 0 0 0 0 0 0
2.48097 2.63554e-08 1.2007e-08 1.43483e-08 0.544418 9.07218e-05 0 0 0 0 0 0 0 0 0 0 0 0 0 0 0 0 0 0 0 0 0 0 0 0 0 0 0 0 0 0 0 0 0 0 0 0 0 0 0 0 0 0
2.60832 2.67194e-08 1.21886e-08 1.45308e-08 0.543831 8.27967e-05 0 0 0 0 0 0 0 0 0 0 0 0 0 0 0 0 0 0 0 0 0 0 0 0 0 0 0 0 0 0 0 0 0 0 0 0 0 0 0 0 0 0
2.74221 2.71598e-08 1.24551e-08 1.47047e-08 0.541414 7.55862e-05 0 0 0 0 0 0 0 0 0 0 0 0 0 0 0 0 0 0 0 0 0 0 0 0 0 0 0 0 0 0 0 0 0 0 0 0 0 0 0 0 0 0
2.88297 2.76135e-08 1.27838e-08 1.48296e-08 0.537043 6.90729e-05 0 0 0 0 0 0 0 0 0 0 0 0 0 0 0 0 0 0 0 0 0 0 0 0 0 0 0 0 0 0 0 0 0 0 0 0 0 0 0 0 0 0
3.03095 2.80101e-08 1.3143e-08 1.48671e-08 0.530778 6.31538e-05 0 0 0 0 0 0 0 0 0 0 0 0 0 0 0 0 0 0 0 0 0 0 0 0 0 0 0 0 0 0 0 0 0 0 0 0 0 0 0 0 0 0
3.18653 2.82705e-08 1.34899e-08 1.47806e-08 0.522827 5.76567e-05 0 0 0 0 0 0 0 0 0 0 0 0 0 0 0 0 0 0 0 0 0 0 0 0 0 0 0 0 0 0 0 0 0 0 0 0 0 0 0 0 0 0
3.35009 2.83172e-08 1.37784e-08 1.45387e-08 0.513424 5.2603e-05 0 0 0 0 0 0 0 0 0 0 0 0 0 0 0 0 0 0 0 0 0 0 0 0 0 0 0 0 0 0 0 0 0 0 0 0 0 0 0 0 0 0
3.52205 2.80653e-08 1.3957e-08 1.41083e-08 0.502694 4.80102e-05 0 0 0 0 0 0 0 0 0 0 0 0 0 0 0 0 0 0 0 0 0 0 0 0 0 0 0 0 0 0 0 0 0 0 0 0 0 0 0 0 0 0
3.70284 2.74491e-08 1.39853e-08 1.34638e-08 0.490501 4.38066e-05 0 0 0 0 0 0 0 0 0 0 0 0 0 0 0 0 0 0 0 0 0 0 0 0 0 0 0 0 0 0 0 0 0 0 0 0 0 0 0 0 0 0
3.89291 2.64354e-08 1.38423e-08 1.2593e-08 0.47637 3.9926e-05 0 0 0 0 0 0 0 0 0 0 0 0 0 0 0 0 0 0 0 0 0 0 0 0 0 0 0 0 0 0 0 0 0 0 0 0 0 0 0 0 0 0
4.09273 2.50445e-08 1.35397e-08 1.15048e-08 0.459374 3.62643e-05 0 0 0 0 0 0 0 0 0 0 0 0 0 0 0 0 0 0 0 0 0 0 0 0 0 0 0 0 0 0 0 0 0 0 0 0 0 0 0 0 0 0
4.30281 2.33818e-08 1.31282e-08 1.02536e-08 0.438527 3.29535e-05 0 0 0 0 0 0 0 0 0 0 0 0 0 0 0 0 0 0 0 0 0 0 0 0 0 0 0 0 0 0 0 0 0 0 0 0 0 0 0 0 0 0
4.52368 2.15941e-08 1.26792e-08 8.91487e-09 0.412839 2.99416e-05 0 0 0 0 0 0 0 0 0 0 0 0 0 0 0 0 0 0 0 0 0 0 0 0 0 0 0 0 0 0 0 0 0 0 0 0 0 0 0 0 0 0
4.75588 1.98342e-08 1.22535e-08 7.58073e-09 0.382205 2.71796e-05 0 0 0 0 0 0 0 0 0 0 0 0 0 0 0 0 0 0 0 0 0 0 0 0 0 0 0 0 0 0 0 0 0 0 0 0 0 0 0 0 0 0
5 1.81933e-08 1.1866e-08 6.32728e-09 0.347781 2.45398e-05 0 0 0 0 0 0 0 0 0 0 0 0 0 0 0 0 0 0 0 0 0 0 0 0 0 0 0 0 0 0 0 0 0 0 0 0 0 0 0 0 0 0
5.25665 1.66768e-08 1.14748e-08 5.20198e-09 0.311929 2.21678e-05 0 0 0 0 0 0 0 0 0 0 0 0 0 0 0 0 0 0 0 0 0 0 0 0 0 0 0 0 0 0 0 0 0 0 0 0 0 0 0 0 1.4013e-45 0
5.52648 1.52183e-08 1.09937e-08 4.22469e-09 0.277605 2.00489e-05 0 0 0 0 0 0 0 0 0 0 0 0 0 0 0 0 0 0 0 0 0 0 0 0 0 0 0 0 0 0 1.4013e-45 0 2.8026e-45 0 1.12104e-44 0 3.36312e-44 0 9.80909e-44 0 2.5924e-43 0
5.81015 1.37284e-08 1.03325e-08 3.39594e-09 0.247366 1.8115e-05 0 0 0 0 0 0 0 0 0 0 0 0 0 0 0 0 0 0 0 0 0 0 0 0 2.8026e-45 0 9.80909e-45 0 4.34403e-44 0 1.61149e-43 0 5.40901e-43 0 1.71659e-42 0 4.82187e-42 0 1.32717e-41 0 3.33831e-41 0
6.10839 1.21588e-08 9.45107e-09 2.70773e-09 0.222697 1.63023e-05 0 0 0 0 0 0 0 0 0 0 0 0 0 0 0 0 0 0 1.4013e-45 0 1.12104e-44 0 6.72623e-44 0 3.41917e-43 0 1.49939e-42 0 5.84482e-42 0 2.04197e-41 0 6.43827e-41 0 1.93204e-40 0 5.16017e-40 0 1.35175e-39 0 3.25041e-39 0
6.42193 1.04805e-08 8.34131e-09 2.13923e-09 0.204114 1.48144e-05 0 0 0 0 0 0 0 0 0 0 0 0 0 0 1.4013e-45 0 2.38221e-44 0 2.07392e-43 0 1.47837e-42 0 8.38677e-42 0 3.95446e-41 0 1.6121e-40 0 5.87997e-40 0 1.93273e-39 0 5.76167e-39 0 1.63866e-38 0 4.17165e-38 0 1.04261e-37 0 2.40192e-37 0
6.75157 8.86222e-09 7.17407e-09 1.68816e-09 0.190489 1.32279e-05 0 0 0 0 0 0 0 0 0 0 0 0 1.4013e-44 0 2.49431e-43 0 2.93152e-42 0 2.349e-41 0 1.52234e-40 0 7.93199e-40 0 3.46755e-39 0 1.31984e-38 0 4.51928e-38 0 1.40163e-37 0 3.96141e-37 0 1.0706e-36 0 2.60394e-36 0 6.22332e-36 0 1.37646e-35 0
7.09813 7.36079e-09 6.02988e-09 1.33091e-09 0.180811 1.18448e-05 0 0 0 0 0 0 0 0 1.4013e-45 0 6.30584e-44 0 1.71799e-42 0 2.69035e-41 0 2.79736e-40 0 2.02478e-39 0 1.19776e-38 0 5.75755e-38 0 2.34207e-37 0 8.35133e-37 0 2.6928e-36 0 7.90259e-36 0 2.12302e-35 0 5.46576e-35 0 1.27294e-34 0 2.91558e-34 0 6.20347e-34 0
7.46248 6.04424e-09 4.99347e-09 1.05077e-09 0.173846 1.05694e-05 0 0 0 0 0 0 0 0 1.26117e-43 0 6.94203e-42 0 1.62385e-40 0 2.22315e-39 0 2.06187e-38 0 1.35494e-37 0 7.34886e-37 0 3.27188e-36 0 1.24282e-35 0 4.16491e-35 0 1.26832e-34 0 3.53156e-34 0 9.0406e-34 0 2.2225e-33 0 4.96677e-33 0 1.09249e-32 0 2.24036e-32 0
7.84553 4.93785e-09 4.10578e-09 8.32064e-10 0.168507 9.34187e-06 0 0 0 0 0 0 7.70714e-44 0 1.31932e-41 0 5.9565e-40 0 1.19451e-38 0 1.43922e-37 0 1.19727e-36 0 7.17679e-36 0 3.58408e-35 0 1.48351e-34 0 5.2796e-34 0 1.66785e-33 0 4.81026e-33 0 1.27406e-32 0 3.11523e-32 0 7.32929e-32 0 1.57486e-31 0 3.33328e-31 0 6.59999e-31 0
8.24824 4.03367e-09 3.37246e-09 6.61208e-10 0.163922 8.19911e-06 0 0 0 0 5.60519e-45 0 8.10091e-42 0 1.07226e-39 0 4.01953e-38 0 6.96298e-37 0 7.42944e-36 0 5.57315e-35 0 3.06102e-34 0 1.41323e-33 0 5.45763e-33 0 1.82557e-32 0 5.4521e-32 0 1.49319e-31 0 3.77124e-31 0 8.82725e-31 0 1.99184e-30 0 4.12305e-30 0 8.41296e-30 0 1.61115e-29 0
8.67162 3.30667e-09 2.77931e-09 5.27358e-10 0.159483 7.20916e-06 0 0 0 0 6.474e-43 0 6.61919e-40 0 6.90207e-38 0 2.16776e-36 0 3.26706e-35 0 3.10541e-34 0 2.11123e-33 0 1.06704e-32 0 4.57186e-32 0 1.65286e-31 0 5.21226e-31 0 1.47568e-30 0 3.84752e-30 0 9.28762e-30 0 2.08551e-29 0 4.52259e-29 0 9.03489e-29 0 1.78046e-28 0 3.30324e-28 0
9.11674 2.72637e-09 2.30434e-09 4.22024e-10 0.154793 6.32492e-06 0 0 0 0 5.89708e-41 0 4.29458e-38 0 3.56911e-36 0 9.4733e-35 0 1.25062e-33 0 1.06497e-32 0 6.59346e-32 0 3.07897e-31 0 1.22875e-30 0 4.17211e-30 0 1.24392e-29 0 3.34728e-29 0 8.32839e-29 0 1.92574e-28 0 4.15676e-28 0 8.67991e-28 0 1.6764e-27 0 3.19597e-27 0 5.75317e-27 0
9.5847 2.2637e-09 1.92497e-09 3.38732e-10 0.149637 5.52644e-06 0 0 3.50325e-44 0 4.24638e-39 0 2.24156e-36 0 1.50129e-34 0 3.39534e-33 0 3.95179e-32 0 3.03104e-31 0 1.71675e-30 0 7.43571e-30 0 2.77354e-29 0 8.87168e-29 0 2.50772e-28 0 6.42968e-28 0 1.53014e-27 0 3.39621e-27 0 7.06049e-27 0 1.42228e-26 0 2.66005e-26 0 4.91397e-26 0 8.59551e-26 0
10.0767 1.89434e-09 1.62173e-09 2.72611e-10 0.143908 4.78203e-06 0 0 3.64478e-42 0 2.45058e-37 0 9.52524e-35 0 5.19568e-33 0 1.0091e-31 0 1.04184e-30 0 7.23433e-30 0 3.76482e-29 0 1.51802e-28 0 5.30978e-28 0 1.60469e-27 0 4.31155e-27 0 1.05579e-26 0 2.40844e-26 0 5.14154e-26 0 1.03137e-25 0 2.00777e-25 0 3.64204e-25 0 6.52941e-25 0 1.11137e-24 0
10.5939 1.59712e-09 1.37733e-09 2.19794e-10 0.137618 4.06995e-06 1.4013e-45 0 2.93168e-40 0 1.14574e-35 0 3.32859e-33 0 1.49359e-31 0 2.5097e-30 0 2.312e-29 0 1.46048e-28 0 7.01241e-28 0 2.64141e-27 0 8.69128e-27 0 2.48857e-26 0 6.37137e-26 0 1.49344e-25 0 3.27234e-25 0 6.73186e-25 0 1.30526e-24 0 2.45964e-24 0 4.33386e-24 0 7.55136e-24 0 1.25236e-23 0
11.1377 1.35382e-09 1.1765e-09 1.77324e-10 0.13098 3.40803e-06 2.38221e-43 0 1.87642e-38 0 4.37625e-34 0 9.63857e-32 0 3.59192e-30 0 5.25883e-29 0 4.34682e-28 0 2.50955e-27 0 1.11609e-26 0 3.94046e-26 0 1.22332e-25 0 3.32737e-25 0 8.13674e-25 0 1.82954e-24 0 3.85816e-24 0 7.66235e-24 0 1.43841e-23 0 2.62799e-23 0 4.50417e-23 0 7.63822e-23 0 1.23586e-22 0
11.7094 1.20074e-09 1.0555e-09 1.45242e-10 0.12096 2.82232e-06 2.22008e-41 0 1.00931e-36 0 1.4406e-32 0 2.43817e-30 0 7.61483e-29 0 9.77946e-28 0 7.29142e-27 0 3.86421e-26 0 1.5978e-25 0 5.30421e-25 0 1.55809e-24 0 4.03586e-24 0 9.44768e-24 0 2.04191e-23 0 4.15196e-23 0 7.97418e-23 0 1.45162e-22 0 2.57522e-22 0 4.29914e-22 0 7.10492e-22 0 1.12288e-21 0
