# 3.1623e-05 0 118 : grain size, compostion index, size index
# Heating and cooling timescale: 0.00192046 840605
# Ratio of heating to cooling to determine stochastic cutoff: 100
# Equilibrium emission is recorded even for those grains in the stochastic regime.
# Emission spectrum was computed for: 
# Type: IRSF
# Scales: 0.25 0.5 1 1.5 2 2.5 3 3.5 4 4.5 5 5.5 6 6.5 7 7.5 8 8.5 9 9.5 10
# StochasticallyHeated: 0 0 0 0 0 0 0 0 0 0 0 0 0 0 0 0 0 0 0 0 0
# Temperature: -1
# Wavelength  CExt  CAbs  CSca  Albedo G EqEm1 StEm1 EqEm2 StEm2 EqEm3 StEm3 EqEm4 StEm4 EqEm5 StEm5 EqEm6 StEm6 EqEm7 StEm7 EqEm8 StEm8 EqEm9 StEm9 EqEm10 StEm10 EqEm11 StEm11 EqEm12 StEm12 EqEm13 StEm13 EqEm14 StEm14 EqEm15 StEm15 EqEm16 StEm16 EqEm17 StEm17 EqEm18 StEm18 EqEm19 StEm19 EqEm20 StEm20 EqEm21 StEm21
0.05 1.80148e-09 7.14275e-10 1.0872e-09 0.603506 0.00576547 0 0 0 0 0 0 0 0 0 0 0 0 0 0 0 0 0 0 0 0 0 0 0 0 0 0 0 0 0 0 0 0 0 0 0 0 0 0 0 0 0 0
0.0525665 1.99116e-09 7.89484e-10 1.20168e-09 0.603506 0.00637255 0 0 0 0 0 0 0 0 0 0 0 0 0 0 0 0 0 0 0 0 0 0 0 0 0 0 0 0 0 0 0 0 0 0 0 0 0 0 0 0 0 0
0.0552647 2.20082e-09 8.72613e-10 1.32821e-09 0.603506 0.00704355 0 0 0 0 0 0 0 0 0 0 0 0 0 0 0 0 0 0 0 0 0 0 0 0 0 0 0 0 0 0 0 0 0 0 0 0 0 0 0 0 0 0
0.0581015 2.43256e-09 9.64495e-10 1.46806e-09 0.603506 0.0077852 0 0 0 0 0 0 0 0 0 0 0 0 0 0 0 0 0 0 0 0 0 0 0 0 0 0 0 0 0 0 0 0 0 0 0 0 0 0 0 0 0 0
0.0610839 2.6887e-09 1.06605e-09 1.62264e-09 0.603506 0.00860494 0 0 0 0 0 0 0 0 0 0 0 0 0 0 0 0 0 0 0 0 0 0 0 0 0 0 0 0 0 0 0 0 0 0 0 0 0 0 0 0 0 0
0.0642193 2.9718e-09 1.1783e-09 1.7935e-09 0.603506 0.009511 0 0 0 0 0 0 0 0 0 0 0 0 0 0 0 0 0 0 0 0 0 0 0 0 0 0 0 0 0 0 0 0 0 0 0 0 0 0 0 0 0 0
0.0675157 3.28472e-09 1.30237e-09 1.98235e-09 0.603506 0.0105125 0 0 0 0 0 0 0 0 0 0 0 0 0 0 0 0 0 0 0 0 0 0 0 0 0 0 0 0 0 0 0 0 0 0 0 0 0 0 0 0 0 0
0.0709813 3.63058e-09 1.4395e-09 2.19108e-09 0.603506 0.0116194 0 0 0 0 0 0 0 0 0 0 0 0 0 0 0 0 0 0 0 0 0 0 0 0 0 0 0 0 0 0 0 0 0 0 0 0 0 0 0 0 0 0
0.0746248 4.01287e-09 1.59108e-09 2.42179e-09 0.603506 0.0128428 0 0 0 0 0 0 0 0 0 0 0 0 0 0 0 0 0 0 0 0 0 0 0 0 0 0 0 0 0 0 0 0 0 0 0 0 0 0 0 0 0 0
0.0784553 4.4354e-09 1.75861e-09 2.67679e-09 0.603506 0.0141951 0 0 0 0 0 0 0 0 0 0 0 0 0 0 0 0 0 0 0 0 0 0 0 0 0 0 0 0 0 0 0 0 0 0 0 0 0 0 0 0 0 0
0.0824824 4.90243e-09 1.94378e-09 2.95865e-09 0.603506 0.0156898 0 0 0 0 0 0 0 0 0 0 0 0 0 0 0 0 0 0 0 0 0 0 0 0 0 0 0 0 0 0 0 0 0 0 0 0 0 0 0 0 0 0
0.0867162 5.41863e-09 2.14845e-09 3.27018e-09 0.603506 0.0173419 0 0 0 0 0 0 0 0 0 0 0 0 0 0 0 0 0 0 0 0 0 0 0 0 0 0 0 0 0 0 0 0 0 0 0 0 0 0 0 0 0 0
0.0911674 5.98919e-09 2.37468e-09 3.61451e-09 0.603506 0.0191679 0 0 0 0 0 0 0 0 0 0 0 0 0 0 0 0 0 0 0 0 0 0 0 0 0 0 0 0 0 0 0 0 0 0 0 0 0 0 0 0 0 0
0.095847 6.61982e-09 2.62472e-09 3.9951e-09 0.603506 0.0211862 0 0 0 0 0 0 0 0 0 0 0 0 0 0 0 0 0 0 0 0 0 0 0 0 0 0 0 0 0 0 0 0 0 0 0 0 0 0 0 0 0 0
0.100767 7.20114e-09 2.87666e-09 4.32447e-09 0.600526 0.0235692 0 0 0 0 0 0 0 0 0 0 0 0 0 0 0 0 0 0 0 0 0 0 0 0 0 0 0 0 0 0 0 0 0 0 0 0 0 0 0 0 0 0
0.105939 7.18743e-09 2.99417e-09 4.19326e-09 0.583415 0.0256046 0 0 0 0 0 0 0 0 0 0 0 0 0 0 0 0 0 0 0 0 0 0 0 0 0 0 0 0 0 0 0 0 0 0 0 0 0 0 0 0 0 0
0.111377 7.20074e-09 3.03157e-09 4.16917e-09 0.578992 0.0289403 0 0 0 0 0 0 0 0 0 0 0 0 0 0 0 0 0 0 0 0 0 0 0 0 0 0 0 0 0 0 0 0 0 0 0 0 0 0 0 0 0 0
0.117094 7.19396e-09 3.13458e-09 4.05938e-09 0.564276 0.0274507 0 0 0 0 0 0 0 0 0 0 0 0 0 0 0 0 0 0 0 0 0 0 0 0 0 0 0 0 0 0 0 0 0 0 0 0 0 0 0 0 0 0
0.123105 7.20944e-09 3.26715e-09 3.94229e-09 0.546824 0.0236555 0 0 0 0 0 0 0 0 0 0 0 0 0 0 0 0 0 0 0 0 0 0 0 0 0 0 0 0 0 0 0 0 0 0 0 0 0 0 0 0 0 0
0.129424 7.2354e-09 3.37906e-09 3.85634e-09 0.532983 0.0199126 0 0 0 0 0 0 0 0 0 0 0 0 0 0 0 0 0 0 0 0 0 0 0 0 0 0 0 0 0 0 0 0 0 0 0 0 0 0 0 0 0 0
0.136067 7.26068e-09 3.47448e-09 3.78621e-09 0.521467 0.0168557 0 0 0 0 0 0 0 0 0 0 0 0 0 0 0 0 0 0 0 0 0 0 0 0 0 0 0 0 0 0 0 0 0 0 0 0 0 0 0 0 0 0
0.143051 7.27921e-09 3.55608e-09 3.72312e-09 0.511474 0.0143876 0 0 0 0 0 0 0 0 0 0 0 0 0 0 0 0 0 0 0 0 0 0 0 0 0 0 0 0 0 0 0 0 0 0 0 0 0 0 0 0 0 0
0.150394 7.27716e-09 3.6201e-09 3.65706e-09 0.50254 0.0122986 0 0 0 0 0 0 0 0 0 0 0 0 0 0 0 0 0 0 0 0 0 0 0 0 0 0 0 0 0 0 0 0 0 0 0 0 0 0 0 0 0 0
0.158114 7.23679e-09 3.64787e-09 3.58892e-09 0.495927 0.01055 0 0 0 0 0 0 0 0 0 0 0 0 0 0 0 0 0 0 0 0 0 0 0 0 0 0 0 0 0 0 0 0 0 0 0 0 0 0 0 0 0 0
0.16623 7.14567e-09 3.61803e-09 3.52764e-09 0.493675 0.00908216 0 0 0 0 0 0 0 0 0 0 0 0 0 0 0 0 0 0 0 0 0 0 0 0 0 0 0 0 0 0 0 0 0 0 0 0 0 0 0 0 0 0
0.174762 7.05218e-09 3.54119e-09 3.51099e-09 0.497859 0.00782097 0 0 0 0 0 0 0 0 0 0 0 0 0 0 0 0 0 0 0 0 0 0 0 0 0 0 0 0 0 0 0 0 0 0 0 0 0 0 0 0 0 0
0.183733 7.03977e-09 3.42587e-09 3.61389e-09 0.513354 0.00667218 0 0 0 0 0 0 0 0 0 0 0 0 0 0 0 0 0 0 0 0 0 0 0 0 0 0 0 0 0 0 0 0 0 0 0 0 0 0 0 0 0 0
0.193164 7.1707e-09 3.28072e-09 3.88998e-09 0.542482 0.00556038 0 0 0 0 0 0 0 0 0 0 0 0 0 0 0 0 0 0 0 0 0 0 0 0 0 0 0 0 0 0 0 0 0 0 0 0 0 0 0 0 0 0
0.203079 7.41146e-09 3.14491e-09 4.26655e-09 0.57567 0.00446034 0 0 0 0 0 0 0 0 0 0 0 0 0 0 0 0 0 0 0 0 0 0 0 0 0 0 0 0 0 0 0 0 0 0 0 0 0 0 0 0 0 0
0.213503 7.70125e-09 3.0614e-09 4.63985e-09 0.60248 0.00342932 0 0 0 0 0 0 0 0 0 0 0 0 0 0 0 0 0 0 0 0 0 0 0 0 0 0 0 0 0 0 0 0 0 0 0 0 0 0 0 0 0 0
0.224463 7.98051e-09 3.0387e-09 4.94181e-09 0.619235 0.00254317 0 0 0 0 0 0 0 0 0 0 0 0 0 0 0 0 0 0 0 0 0 0 0 0 0 0 0 0 0 0 0 0 0 0 0 0 0 0 0 0 0 0
0.235984 8.17726e-09 3.0398e-09 5.13747e-09 0.628262 0.00182186 0 0 0 0 0 0 0 0 0 0 0 0 0 0 0 0 0 0 0 0 0 0 0 0 0 0 0 0 0 0 0 0 0 0 0 0 0 0 0 0 0 0
0.248097 8.25006e-09 3.03445e-09 5.21562e-09 0.632191 0.00138916 0 0 0 0 0 0 0 0 0 0 0 0 0 0 0 0 0 0 0 0 0 0 0 0 0 0 0 0 0 0 0 0 0 0 0 0 0 0 0 0 0 0
0.260832 8.20602e-09 3.03357e-09 5.17245e-09 0.630324 0.00141961 0 0 0 0 0 0 0 0 0 0 0 0 0 0 0 0 0 0 0 0 0 0 0 0 0 0 0 0 0 0 0 0 0 0 0 0 0 0 0 0 0 0
0.274221 8.10419e-09 3.07526e-09 5.02893e-09 0.620535 0.00187131 0 0 0 0 0 0 0 0 0 0 0 0 0 0 0 0 0 0 0 0 0 0 0 0 0 0 0 0 0 0 0 0 0 0 0 0 0 0 0 0 0 0
0.288297 8.01768e-09 3.1752e-09 4.84248e-09 0.603975 0.00251556 0 0 0 0 0 0 0 0 0 0 0 0 0 0 0 0 0 0 0 0 0 0 0 0 0 0 0 0 0 0 0 0 0 0 0 0 0 0 0 0 0 0
0.303095 7.98735e-09 3.30966e-09 4.6777e-09 0.585638 0.0028362 0 0 0 0 0 0 0 0 0 0 0 0 0 0 0 0 0 0 0 0 0 0 0 0 0 0 0 0 0 0 0 0 0 0 0 0 0 0 0 0 0 0
0.318653 8.001e-09 3.44342e-09 4.55758e-09 0.569626 0.00297223 0 0 0 0 0 0 0 0 0 0 0 0 0 0 0 0 0 0 0 0 0 0 0 0 0 0 0 0 0 0 0 0 0 0 0 0 0 0 0 0 0 0
0.335009 8.03865e-09 3.55864e-09 4.48001e-09 0.557309 0.00293231 0 0 0 0 0 0 0 0 0 0 0 0 0 0 0 0 0 0 0 0 0 0 0 0 0 0 0 0 0 0 0 0 0 0 0 0 0 0 0 0 0 0
0.352205 8.08869e-09 3.65346e-09 4.43522e-09 0.548324 0.00278811 0 0 0 0 0 0 0 0 0 0 0 0 0 0 0 0 0 0 0 0 0 0 0 0 0 0 0 0 0 0 0 0 0 0 0 0 0 0 0 0 0 0
0.370284 8.14329e-09 3.72908e-09 4.41422e-09 0.542068 0.00261033 0 0 0 0 0 0 0 0 0 0 0 0 0 0 0 0 0 0 0 0 0 0 0 0 0 0 0 0 0 0 0 0 0 0 0 0 0 0 0 0 0 0
0.389291 8.19904e-09 3.78807e-09 4.41097e-09 0.537986 0.00243645 0 0 0 0 0 0 0 0 0 0 0 0 0 0 0 0 0 0 0 0 0 0 0 0 0 0 0 0 0 0 0 0 0 0 0 0 0 0 0 0 0 0
0.409273 8.25706e-09 3.83805e-09 4.41902e-09 0.53518 0.00226652 0 0 0 0 0 0 0 0 0 0 0 0 0 0 0 0 0 0 0 0 0 0 0 0 0 0 0 0 0 0 0 0 0 0 0 0 0 0 0 0 0 0
0.430281 8.31608e-09 3.88494e-09 4.43114e-09 0.53284 0.00210471 0 0 0 0 0 0 0 0 0 0 0 0 0 0 0 0 0 0 0 0 0 0 0 0 0 0 0 0 0 0 0 0 0 0 0 0 0 0 0 0 0 0
0.452368 8.37292e-09 3.92942e-09 4.44351e-09 0.5307 0.00193723 0 0 0 0 0 0 0 0 0 0 0 0 0 0 0 0 0 0 0 0 0 0 0 0 0 0 0 0 0 0 0 0 0 0 0 0 0 0 0 0 0 0
0.475588 8.42824e-09 3.97243e-09 4.45581e-09 0.528676 0.00177642 0 0 0 0 0 0 0 0 0 0 0 0 0 0 0 0 0 0 0 0 0 0 0 0 0 0 0 0 0 0 0 0 0 0 0 0 0 0 0 0 0 0
0.5 8.48786e-09 4.01934e-09 4.46851e-09 0.52646 0.00162159 0 0 0 0 0 0 0 0 0 0 0 0 0 0 0 0 0 0 0 0 0 0 0 0 0 0 0 0 0 0 0 0 0 0 0 0 0 0 0 0 0 0
0.525665 8.55168e-09 4.07264e-09 4.47904e-09 0.523761 0.0014751 0 0 0 0 0 0 0 0 0 0 0 0 0 0 0 0 0 0 0 0 0 0 0 0 0 0 0 0 0 0 0 0 0 0 0 0 0 0 0 0 0 0
0.552648 8.61393e-09 4.12757e-09 4.48636e-09 0.520826 0.00134175 0 0 0 0 0 0 0 0 0 0 0 0 0 0 0 0 0 0 0 0 0 0 0 0 0 0 0 0 0 0 0 0 0 0 0 0 0 0 0 0 0 0
0.581015 8.67106e-09 4.17819e-09 4.49287e-09 0.518146 0.00121775 0 0 0 0 0 0 0 0 0 0 0 0 0 0 0 0 0 0 0 0 0 0 0 0 0 0 0 0 0 0 0 0 0 0 0 0 0 0 0 0 0 0
0.610839 8.72795e-09 4.22522e-09 4.50274e-09 0.515898 0.00110516 0 0 0 0 0 0 0 0 0 0 0 0 0 0 0 0 0 0 0 0 0 0 0 0 0 0 0 0 0 0 0 0 0 0 0 0 0 0 0 0 0 0
0.642193 8.79329e-09 4.27525e-09 4.51805e-09 0.513806 0.00100302 0 0 0 0 0 0 0 0 0 0 0 0 0 0 0 0 0 0 0 0 0 0 0 0 0 0 0 0 0 0 0 0 0 0 0 0 0 0 0 0 0 0
0.675157 8.86869e-09 4.33264e-09 4.53604e-09 0.511467 0.000910957 0 0 0 0 0 0 0 0 0 0 0 0 0 0 0 0 0 0 0 0 0 0 0 0 0 0 0 0 0 0 0 0 0 0 0 0 0 0 0 0 0 0
0.709813 8.94561e-09 4.39316e-09 4.55245e-09 0.508903 0.00082817 0 0 0 0 0 0 0 0 0 0 0 0 0 0 0 0 0 0 0 0 0 0 0 0 0 0 0 0 0 0 0 0 0 0 0 0 0 0 0 0 0 0
0.746248 9.01126e-09 4.44624e-09 4.56502e-09 0.506591 0.000754183 0 0 0 0 0 0 0 0 0 0 0 0 0 0 0 0 0 0 0 0 0 0 0 0 0 0 0 0 0 0 0 0 0 0 0 0 0 0 0 0 0 0
0.784553 9.06092e-09 4.48291e-09 4.57801e-09 0.505248 0.000686995 0 0 0 0 0 0 0 0 0 0 0 0 0 0 0 0 0 0 0 0 0 0 0 0 0 0 0 0 0 0 0 0 0 0 0 0 0 0 0 0 0 0
0.824824 9.10585e-09 4.50619e-09 4.59966e-09 0.505132 0.000626788 0 0 0 0 0 0 0 0 0 0 0 0 0 0 0 0 0 0 0 0 0 0 0 0 0 0 0 0 0 0 0 0 0 0 0 0 0 0 0 0 0 0
0.867162 9.1653e-09 4.52868e-09 4.63662e-09 0.505888 0.000572518 0 0 0 0 0 0 0 0 0 0 0 0 0 0 0 0 0 0 0 0 0 0 0 0 0 0 0 0 0 0 0 0 0 0 0 0 0 0 0 0 0 0
0.911674 9.25244e-09 4.56485e-09 4.68759e-09 0.506632 0.000523427 0 0 0 0 0 0 0 0 0 0 0 0 0 0 0 0 0 0 0 0 0 0 0 0 0 0 0 0 0 0 0 0 0 0 0 0 0 0 0 0 0 0
0.95847 9.36252e-09 4.61945e-09 4.74307e-09 0.506602 0.00047944 0 0 0 0 0 0 0 0 0 0 0 0 0 0 0 0 0 0 0 0 0 0 0 0 0 0 0 0 0 0 0 0 0 0 0 0 0 0 0 0 0 0
1.00767 9.47423e-09 4.68496e-09 4.78928e-09 0.505505 0.0004395 0 0 0 0 0 0 0 0 0 0 0 0 0 0 0 0 0 0 0 0 0 0 0 0 0 0 0 0 0 0 0 0 0 0 0 0 0 0 0 0 0 0
1.05939 9.55894e-09 4.7445e-09 4.81444e-09 0.503659 0.000403275 0 0 0 0 0 0 0 0 0 0 0 0 0 0 0 0 0 0 0 0 0 0 0 0 0 0 0 0 0 0 0 0 0 0 0 0 0 0 0 0 0 0
1.11377 9.59564e-09 4.78001e-09 4.81562e-09 0.501855 0.000370298 0 0 0 0 0 0 0 0 0 0 0 0 0 0 0 0 0 0 0 0 0 0 0 0 0 0 0 0 0 0 0 0 0 0 0 0 0 0 0 0 0 0
1.17094 9.58347e-09 4.78288e-09 4.80058e-09 0.500923 0.000339515 0 0 0 0 0 0 0 0 0 0 0 0 0 0 0 0 0 0 0 0 0 0 0 0 0 0 0 0 0 0 0 0 0 0 0 0 0 0 0 0 0 0
1.23105 9.54314e-09 4.75652e-09 4.78662e-09 0.501577 0.000311294 0 0 0 0 0 0 0 0 0 0 0 0 0 0 0 0 0 0 0 0 0 0 0 0 0 0 0 0 0 0 0 0 0 0 0 0 0 0 0 0 0 0
1.29424 9.50992e-09 4.71695e-09 4.79297e-09 0.503997 0.000285362 0 0 0 0 0 0 0 0 0 0 0 0 0 0 0 0 0 0 0 0 0 0 0 0 0 0 0 0 0 0 0 0 0 0 0 0 0 0 0 0 0 0
1.36067 9.5175e-09 4.68459e-09 4.8329e-09 0.507791 0.000261742 0 0 0 0 0 0 0 0 0 0 0 0 0 0 0 0 0 0 0 0 0 0 0 0 0 0 0 0 0 0 0 0 0 0 0 0 0 0 0 0 0 0
1.43051 9.58833e-09 4.67746e-09 4.91087e-09 0.512172 0.000240209 0 0 0 0 0 0 0 0 0 0 0 0 0 0 0 0 0 0 0 0 0 0 0 0 0 0 0 0 0 0 0 0 0 0 0 0 0 0 0 0 0 0
1.50394 9.72447e-09 4.70484e-09 5.01963e-09 0.516185 0.000220279 0 0 0 0 0 0 0 0 0 0 0 0 0 0 0 0 0 0 0 0 0 0 0 0 0 0 0 0 0 0 0 0 0 0 0 0 0 0 0 0 0 0
1.58114 9.91278e-09 4.76761e-09 5.14517e-09 0.519044 0.000201732 0 0 0 0 0 0 0 0 0 0 0 0 0 0 0 0 0 0 0 0 0 0 0 0 0 0 0 0 0 0 0 0 0 0 0 0 0 0 0 0 0 0
1.6623 1.01268e-08 4.85946e-09 5.26736e-09 0.52014 0.000184534 0 0 0 0 0 0 0 0 0 0 0 0 0 0 0 0 0 0 0 0 0 0 0 0 0 0 0 0 0 0 0 0 0 0 0 0 0 0 0 0 0 0
1.74763 1.03303e-08 4.96784e-09 5.36245e-09 0.5191 0.000169005 0 0 0 0 0 0 0 0 0 0 0 0 0 0 0 0 0 0 0 0 0 0 0 0 0 0 0 0 0 0 0 0 0 0 0 0 0 0 0 0 0 0
1.83733 1.04804e-08 5.0761e-09 5.40426e-09 0.515656 0.000154804 0 0 0 0 0 0 0 0 0 0 0 0 0 0 0 0 0 0 0 0 0 0 0 0 0 0 0 0 0 0 0 0 0 0 0 0 0 0 0 0 0 0
1.93164 1.0533e-08 5.16525e-09 5.36777e-09 0.509614 0.000141793 0 0 0 0 0 0 0 0 0 0 0 0 0 0 0 0 0 0 0 0 0 0 0 0 0 0 0 0 0 0 0 0 0 0 0 0 0 0 0 0 0 0
2.03079 1.04497e-08 5.21658e-09 5.23311e-09 0.500791 0.000129725 0 0 0 0 0 0 0 0 0 0 0 0 0 0 0 0 0 0 0 0 0 0 0 0 0 0 0 0 0 0 0 0 0 0 0 0 0 0 0 0 0 0
2.13503 1.0203e-08 5.21439e-09 4.98861e-09 0.488936 0.000118657 0 0 0 0 0 0 0 0 0 0 0 0 0 0 0 0 0 0 0 0 0 0 0 0 0 0 0 0 0 0 0 0 0 0 0 0 0 0 0 0 0 0
2.24463 9.79233e-09 5.1516e-09 4.64074e-09 0.473915 0.000108569 0 0 0 0 0 0 0 0 0 0 0 0 0 0 0 0 0 0 0 0 0 0 0 0 0 0 0 0 0 0 0 0 0 0 0 0 0 0 0 0 0 0
2.35984 9.23678e-09 5.02836e-09 4.20842e-09 0.455615 9.92926e-05 0 0 0 0 0 0 0 0 0 0 0 0 0 0 0 0 0 0 0 0 0 0 0 0 0 0 0 0 0 0 0 0 0 0 0 0 0 0 0 0 0 0
2.48097 8.57566e-09 4.85325e-09 3.72241e-09 0.434067 9.07218e-05 0 0 0 0 0 0 0 0 0 0 0 0 0 0 0 0 0 0 0 0 0 0 0 0 0 0 0 0 0 0 0 0 0 0 0 0 0 0 0 0 0 0
2.60832 7.85819e-09 4.63892e-09 3.21927e-09 0.40967 8.27967e-05 0 0 0 0 0 0 0 0 0 0 0 0 0 0 0 0 0 0 0 0 0 0 0 0 0 0 0 0 0 0 0 0 0 0 0 0 0 0 0 0 0 0
2.74221 7.12638e-09 4.39694e-09 2.72945e-09 0.383006 7.55862e-05 0 0 0 0 0 0 0 0 0 0 0 0 0 0 0 0 0 0 0 0 0 0 0 0 0 0 0 0 0 0 0 0 0 0 0 0 0 0 0 0 0 0
2.88297 6.41207e-09 4.1357e-09 2.27636e-09 0.355012 6.90729e-05 0 0 0 0 0 0 0 0 0 0 0 0 0 0 0 0 0 0 0 0 0 0 0 0 0 0 0 0 0 0 0 0 0 0 0 0 0 0 0 0 0 0
3.03095 5.7344e-09 3.85995e-09 1.87445e-09 0.326879 6.31538e-05 0 0 0 0 0 0 0 0 0 0 0 0 0 0 0 0 0 0 0 0 0 0 0 0 0 0 0 0 0 0 0 0 0 0 0 0 0 0 0 0 0 0
3.18653 5.09817e-09 3.57043e-09 1.52774e-09 0.299664 5.76567e-05 0 0 0 0 0 0 0 0 0 0 0 0 0 0 0 0 0 0 0 0 0 0 0 0 0 0 0 0 0 0 0 0 0 0 0 0 0 0 0 0 0 0
3.35009 4.50507e-09 3.26906e-09 1.23601e-09 0.27436 5.2603e-05 0 0 0 0 0 0 0 0 0 0 0 0 0 0 0 0 0 0 0 0 0 0 0 0 0 0 0 0 0 0 0 0 0 0 0 0 0 0 0 0 0 0
3.52205 3.95344e-09 2.95878e-09 9.94654e-10 0.251592 4.80102e-05 0 0 0 0 0 0 0 0 0 0 0 0 0 0 0 0 0 0 0 0 0 0 0 0 0 0 0 0 0 0 0 0 0 0 0 0 0 0 0 0 0 0
3.70284 3.44293e-09 2.64544e-09 7.97493e-10 0.231632 4.38066e-05 0 0 0 0 0 0 0 0 0 0 0 0 0 0 0 0 0 0 0 0 0 0 0 0 0 0 0 0 0 0 0 0 0 0 0 0 0 0 0 0 0 0
3.89291 2.9753e-09 2.33723e-09 6.38076e-10 0.214457 3.9926e-05 0 0 0 0 0 0 0 0 0 0 0 0 0 0 0 0 0 0 0 0 0 0 0 0 0 0 0 0 0 0 0 0 0 0 0 0 0 0 0 0 0 0
4.09273 2.55249e-09 2.04241e-09 5.10083e-10 0.199837 3.62643e-05 0 0 0 0 0 0 0 0 0 0 0 0 0 0 0 0 0 0 0 0 0 0 0 0 0 0 0 0 0 0 0 0 0 0 0 0 0 0 0 0 0 0
4.30281 2.17643e-09 1.76862e-09 4.07806e-10 0.187374 3.29535e-05 0 0 0 0 0 0 0 0 0 0 0 0 0 0 0 0 0 0 0 0 0 0 0 0 0 0 0 0 0 0 0 0 0 0 0 0 0 0 0 0 0 0
4.52368 1.84737e-09 1.52106e-09 3.26316e-10 0.176638 2.99416e-05 0 0 0 0 0 0 0 0 0 0 0 0 0 0 0 0 0 0 0 0 0 0 0 0 0 0 0 0 0 0 0 0 0 0 0 0 0 0 0 0 0 0
4.75588 1.56338e-09 1.30191e-09 2.61468e-10 0.167246 2.71796e-05 0 0 0 0 0 0 0 0 0 0 0 0 0 0 0 0 0 0 0 0 0 0 0 0 0 0 0 0 0 0 0 0 0 0 0 0 0 0 1.4013e-45 0 2.8026e-45 0
5 1.32106e-09 1.11127e-09 2.0979e-10 0.158805 2.45398e-05 0 0 0 0 0 0 0 0 0 0 0 0 0 0 0 0 0 0 0 0 0 0 0 0 0 0 0 0 0 0 1.4013e-45 0 4.2039e-45 0 1.26117e-44 0 4.06377e-44 0 1.13505e-43 0 2.99878e-43 0
5.25665 1.11655e-09 9.4792e-10 1.68635e-10 0.151032 2.21678e-05 0 0 0 0 0 0 0 0 0 0 0 0 0 0 0 0 0 0 0 0 0 0 0 0 2.8026e-45 0 9.80909e-45 0 4.2039e-44 0 1.59748e-43 0 5.35296e-43 0 1.63812e-42 0 4.68594e-42 0 1.25921e-41 0 3.18571e-41 0
5.52648 9.44925e-10 8.09145e-10 1.35779e-10 0.143693 2.00489e-05 0 0 0 0 0 0 0 0 0 0 0 0 0 0 0 0 0 0 1.4013e-45 0 9.80909e-45 0 5.74532e-44 0 2.87266e-43 0 1.25837e-42 0 4.83308e-42 0 1.71631e-41 0 5.42919e-41 0 1.57224e-40 0 4.27414e-40 0 1.09423e-39 0 2.64583e-39 0
5.81015 8.01659e-10 6.92153e-10 1.09506e-10 0.136599 1.8115e-05 0 0 0 0 0 0 0 0 0 0 0 0 0 0 1.4013e-45 0 1.82169e-44 0 1.62551e-43 0 1.12805e-42 0 6.35068e-42 0 2.95282e-41 0 1.20188e-40 0 4.3228e-40 0 1.44322e-39 0 4.3156e-39 0 1.18653e-38 0 3.07188e-38 0 7.51156e-38 0 1.73965e-37 0
6.10839 6.83149e-10 5.94661e-10 8.84875e-11 0.129529 1.63023e-05 0 0 0 0 0 0 0 0 0 0 0 0 9.80909e-45 0 1.79366e-43 0 2.0501e-42 0 1.69039e-41 0 1.06672e-40 0 5.51932e-40 0 2.38079e-39 0 9.04878e-39 0 3.05739e-38 0 9.62399e-38 0 2.72796e-37 0 7.13892e-37 0 1.76435e-36 0 4.13002e-36 0 9.18073e-36 0
6.42193 5.76139e-10 5.04771e-10 7.13682e-11 0.123873 1.48144e-05 0 0 0 0 0 0 0 0 0 0 4.34403e-44 0 1.16728e-42 0 1.80375e-41 0 1.82436e-40 0 1.35683e-39 0 7.8261e-39 0 3.73702e-38 0 1.50095e-37 0 5.3447e-37 0 1.70164e-36 0 5.06474e-36 0 1.36442e-35 0 3.40678e-35 0 8.05586e-35 0 1.80903e-34 0 3.86751e-34 0
6.75157 4.97876e-10 4.39994e-10 5.78821e-11 0.116258 1.32279e-05 0 0 0 0 0 0 0 0 8.68805e-44 0 4.62569e-42 0 1.07447e-40 0 1.45248e-39 0 1.3121e-38 0 8.84782e-38 0 4.68489e-37 0 2.07266e-36 0 7.77836e-36 0 2.60325e-35 0 7.83257e-35 0 2.21038e-34 0 5.67341e-34 0 1.35468e-33 0 3.07154e-33 0 6.63033e-33 0 1.36587e-32 0
7.09813 4.29021e-10 3.82082e-10 4.69386e-11 0.109409 1.18448e-05 0 0 0 0 0 0 5.32493e-44 0 8.83519e-42 0 3.89106e-40 0 7.75202e-39 0 9.22816e-38 0 7.4869e-37 0 4.59942e-36 0 2.24504e-35 0 9.2368e-35 0 3.24966e-34 0 1.0253e-33 0 2.92337e-33 0 7.84237e-33 0 1.92237e-32 0 4.39922e-32 0 9.58378e-32 0 1.99251e-31 0 3.96233e-31 0
7.46248 3.71293e-10 3.33196e-10 3.80967e-11 0.102605 1.05694e-05 0 0 0 0 4.2039e-45 0 5.5057e-42 0 7.09515e-40 0 2.59738e-38 0 4.4714e-37 0 4.71654e-36 0 3.45478e-35 0 1.94235e-34 0 8.77471e-34 0 3.36929e-33 0 1.11476e-32 0 3.3253e-32 0 9.00838e-32 0 2.30296e-31 0 5.40337e-31 0 1.18754e-30 0 2.49057e-30 0 4.99624e-30 0 9.60766e-30 0
7.84553 3.22931e-10 2.91979e-10 3.09523e-11 0.0958478 9.34187e-06 0 0 0 0 4.47014e-43 0 4.46166e-40 0 4.53516e-38 0 1.3926e-36 0 2.08637e-35 0 1.96162e-34 0 1.30374e-33 0 6.73727e-33 0 2.82757e-32 0 1.0167e-31 0 3.17295e-31 0 8.973e-31 0 2.31538e-30 0 5.65404e-30 0 1.27249e-29 0 2.69117e-29 0 5.44362e-29 0 1.05553e-28 0 1.96598e-28 0
8.24824 2.82265e-10 2.57098e-10 2.51665e-11 0.0891591 8.19911e-06 0 0 0 0 4.03336e-41 0 2.87709e-38 0 2.33375e-36 0 6.06281e-35 0 7.95874e-34 0 6.70736e-33 0 4.0641e-32 0 1.93835e-31 0 7.58487e-31 0 2.56206e-30 0 7.56362e-30 0 2.03311e-29 0 5.00894e-29 0 1.17099e-28 0 2.53307e-28 0 5.16478e-28 0 1.00939e-27 0 1.89497e-27 0 3.42392e-27 0
8.67162 2.47999e-10 2.27521e-10 2.04782e-11 0.0825736 7.20916e-06 0 0 2.52234e-44 0 2.88574e-39 0 1.4936e-36 0 9.77517e-35 0 2.16609e-33 0 2.50757e-32 0 1.90443e-31 0 1.05676e-30 0 4.67003e-30 0 1.70965e-29 0 5.44173e-29 0 1.52378e-28 0 3.90291e-28 0 9.20139e-28 0 2.06373e-27 0 4.2992e-27 0 8.46615e-27 0 1.60135e-26 0 2.91523e-26 0 5.11741e-26 0
9.11674 2.19039e-10 2.02364e-10 1.6675e-11 0.0761281 6.32492e-06 0 0 2.53915e-42 0 1.6542e-37 0 6.31038e-35 0 3.36734e-33 0 6.41423e-32 0 6.5886e-31 0 4.53225e-30 0 2.31308e-29 0 9.50659e-29 0 3.26659e-28 0 9.82598e-28 0 2.61655e-27 0 6.40104e-27 0 1.44721e-26 0 3.12035e-26 0 6.27155e-26 0 1.19483e-25 0 2.19074e-25 0 3.87323e-25 0 6.61485e-25 0
9.5847 1.94466e-10 1.80881e-10 1.35848e-11 0.0698571 5.52644e-06 1.4013e-45 0 2.0258e-40 0 7.6812e-36 0 2.1921e-33 0 9.63299e-32 0 1.58903e-30 0 1.45675e-29 0 9.12044e-29 0 4.29864e-28 0 1.64891e-27 0 5.33449e-27 0 1.52062e-26 0 3.86017e-26 0 9.03983e-26 0 1.96401e-25 0 4.07872e-25 0 7.92307e-25 0 1.4627e-24 0 2.60368e-24 0 4.477e-24 0 7.44876e-24 0
10.0767 1.73581e-10 1.62505e-10 1.10752e-11 0.0638042 4.78203e-06 1.70958e-43 0 1.28866e-38 0 2.92021e-34 0 6.32354e-32 0 2.31019e-30 0 3.32339e-29 0 2.73436e-28 0 1.56527e-27 0 6.83962e-27 0 2.45691e-26 0 7.5057e-26 0 2.03287e-25 0 4.93106e-25 0 1.10777e-24 0 2.31729e-24 0 4.64371e-24 0 8.73286e-24 0 1.56466e-23 0 2.70784e-23 0 4.5345e-23 0 7.35922e-23 0
10.5939 1.5575e-10 1.46721e-10 9.02951e-12 0.0579742 4.06995e-06 1.51382e-41 0 6.6099e-37 0 9.17968e-33 0 1.52877e-30 0 4.68527e-29 0 5.91742e-28 0 4.39258e-27 0 2.30919e-26 0 9.38926e-26 0 3.16865e-25 0 9.16635e-25 0 2.36476e-24 0 5.49325e-24 0 1.18625e-23 0 2.39364e-23 0 4.63664e-23 0 8.45478e-23 0 1.47231e-22 0 2.4807e-22 0 4.05087e-22 0 6.42071e-22 0
11.1377 1.40677e-10 1.3332e-10 7.35694e-12 0.0522965 3.40803e-06 1.06783e-39 0 2.76736e-35 0 2.41234e-31 0 3.12961e-29 0 8.11541e-28 0 9.05595e-27 0 6.09558e-26 0 2.95505e-25 0 1.12201e-24 0 3.56819e-24 0 9.80045e-24 0 2.41402e-23 0 5.38161e-23 0 1.11927e-22 0 2.18238e-22 0 4.09314e-22 0 7.24799e-22 0 1.22844e-21 0 2.01774e-21 0 3.21693e-21 0 4.98551e-21 0
