# 5.39371e-08 3 4 : grain size, compostion index, size index
# This grain was stochastically heated: Yes
# Heating and cooling timescale: 2.49925e+06 0.174594
# Ratio of heating to cooling to determine stochastic cutoff: 100
# Equilibrium emission is recorded even for those grains in the stochastic regime.
# Emission spectrum was computed for: 
# Type: IRSF
# Scales:  0.5 1 2 5 10
# Temperature: -1
# Wavelength  CExt  CAbs  CSca  Albedo G EqEm1 StEm1 EqEm2 StEm2 EqEm3 StEm3 EqEm4 StEm4 EqEm5 StEm5
0.05 6.62485e-16 6.62444e-16 4.08419e-20 6.16495e-05 0.000677992 0 0 0 0 0 0 0 0 0 0
0.0525665 6.85029e-16 6.8499e-16 3.89032e-20 5.67905e-05 0.000609489 0 0 0 0 0 0 0 0 0 0
0.0552647 7.18516e-16 7.18477e-16 3.85366e-20 5.36337e-05 0.000545483 0 0 0 0 0 0 0 0 0 0
0.0581015 7.87461e-16 7.8742e-16 4.14477e-20 5.26346e-05 0.000484846 0 0 0 0 0 0 0 0 0 0
0.0610839 8.91997e-16 8.9195e-16 4.65545e-20 5.21914e-05 0.000429473 0 0 0 0 0 0 0 0 0 0
0.0642193 9.92542e-16 9.92491e-16 5.04052e-20 5.0784e-05 0.000381309 0 0 0 0 0 0 0 0 0 0
0.0675157 1.05387e-15 1.05382e-15 5.11251e-20 4.85116e-05 0.000340707 0 0 0 0 0 0 0 0 0 0
0.0709813 1.05749e-15 1.05744e-15 4.83929e-20 4.5762e-05 0.000307758 0 0 0 0 0 0 0 0 0 0
0.0746248 1.00181e-15 1.00176e-15 4.2865e-20 4.27876e-05 0.000282585 0 0 0 0 0 0 0 0 0 0
0.0784553 8.96945e-16 8.96909e-16 3.54792e-20 3.95556e-05 0.000265542 0 0 0 0 0 0 0 0 0 0
0.0824824 7.60487e-16 7.6046e-16 2.7171e-20 3.57285e-05 0.000256324 0 0 0 0 0 0 0 0 0 0
0.0867162 6.96825e-16 6.96803e-16 2.14198e-20 3.07391e-05 0.000236436 0 0 0 0 0 0 0 0 0 0
0.0911674 6.57681e-16 6.57662e-16 1.89193e-20 2.87666e-05 0.00021627 0 0 0 0 0 0 0 0 0 0
0.095847 5.68668e-16 5.68652e-16 1.58571e-20 2.78846e-05 0.000207963 0 0 0 0 0 0 0 0 0 0
0.100767 4.80722e-16 4.80709e-16 1.28105e-20 2.66486e-05 0.000202305 0 0 0 0 0 0 0 0 0 0
0.105939 3.9011e-16 3.901e-16 9.85995e-21 2.52748e-05 0.000199649 0 0 0 0 0 0 0 0 0 0
0.111377 3.27926e-16 3.27918e-16 7.56105e-21 2.30572e-05 0.00019081 0 0 0 0 0 0 0 0 0 0
0.117094 2.80247e-16 2.80241e-16 5.93174e-21 2.11661e-05 0.000180065 0 0 0 0 0 0 0 0 0 0
0.123105 2.40908e-16 2.40904e-16 4.71672e-21 1.95789e-05 0.000168903 0 0 0 0 0 0 0 2.8026e-45 0 9.80909e-45
0.129424 2.07036e-16 2.07032e-16 3.7935e-21 1.83229e-05 0.000158051 0 0 0 1.4013e-45 0 5.60519e-45 0 4.2039e-44 0 1.76564e-43
0.136067 1.76717e-16 1.76714e-16 3.09277e-21 1.75013e-05 0.000148104 0 5.60519e-45 0 2.24208e-44 0 9.66896e-44 0 6.474e-43 0 2.68629e-42
0.143051 1.45559e-16 1.45556e-16 2.57151e-21 1.76665e-05 0.000140437 0 6.72623e-44 0 2.87266e-43 0 1.22894e-42 0 8.22142e-42 0 3.40137e-41
0.150394 1.03609e-16 1.03607e-16 2.05789e-21 1.98622e-05 0.000133683 0 6.45999e-43 0 2.76056e-42 0 1.17751e-41 0 7.83662e-41 0 3.23362e-40
0.158114 6.83147e-17 6.83131e-17 1.56769e-21 2.29481e-05 0.00012225 0 5.08671e-42 0 2.1573e-41 0 9.14656e-41 0 6.05498e-40 0 2.492e-39
0.16623 4.46875e-17 4.46863e-17 1.17778e-21 2.6356e-05 0.000108752 0 3.52272e-41 0 1.4778e-40 0 6.21832e-40 0 4.09099e-39 0 1.67894e-38
0.174762 3.03681e-17 3.03672e-17 8.8795e-22 2.92396e-05 9.59893e-05 0 2.30571e-40 0 9.43971e-40 0 3.91647e-39 0 2.55142e-38 0 1.043e-37
0.183733 2.0317e-17 2.03163e-17 6.71799e-22 3.30659e-05 8.46903e-05 0 1.42602e-39 0 5.49809e-39 0 2.20681e-38 0 1.40751e-37 0 5.7103e-37
0.193164 1.38491e-17 1.38486e-17 5.12346e-22 3.69949e-05 7.49128e-05 0 9.48274e-39 0 3.22138e-38 0 1.19652e-37 0 7.2488e-37 0 2.88812e-36
0.203079 9.63542e-18 9.63502e-18 3.93672e-22 4.08568e-05 6.64642e-05 0 7.39555e-38 0 2.08955e-37 0 6.71454e-37 0 3.62855e-36 0 1.38364e-35
0.213503 7.12316e-18 7.12285e-18 3.03782e-22 4.26472e-05 5.90903e-05 0 6.88251e-37 0 1.6474e-36 0 4.4162e-36 0 1.96444e-35 0 6.8287e-35
0.224463 6.00011e-18 5.99988e-18 2.36172e-22 3.93613e-05 5.26847e-05 0 7.4074e-36 0 1.60628e-35 0 3.72751e-35 0 1.32605e-34 0 3.97931e-34
0.235984 5.69415e-18 5.69396e-18 1.85552e-22 3.25865e-05 4.71338e-05 0 8.41981e-35 0 1.74327e-34 0 3.73048e-34 0 1.11888e-33 0 2.86449e-33
0.248097 5.6542e-18 5.65406e-18 1.47119e-22 2.60194e-05 4.22851e-05 0 9.0545e-34 0 1.83804e-33 0 3.78733e-33 0 1.03152e-32 0 2.34794e-32
0.260832 5.5086e-18 5.50848e-18 1.17285e-22 2.12912e-05 3.79978e-05 0 8.54115e-33 0 1.7195e-32 0 3.48502e-32 0 9.06141e-32 0 1.92972e-31
0.274221 5.32655e-18 5.32645e-18 9.38511e-23 1.76195e-05 3.41826e-05 0 7.14311e-32 0 1.43295e-31 0 2.88344e-31 0 7.34084e-31 0 1.51277e-30
0.288297 5.13185e-18 5.13178e-18 7.54118e-23 1.46948e-05 3.07859e-05 0 5.3331e-31 0 1.06817e-30 0 2.14257e-30 0 5.40288e-30 0 1.09632e-29
0.303095 4.93697e-18 4.93691e-18 6.07547e-23 1.23061e-05 2.77462e-05 0 3.57776e-30 0 7.16076e-30 0 1.43423e-29 0 3.60078e-29 0 7.25359e-29
0.318653 4.74074e-18 4.74069e-18 4.90311e-23 1.03425e-05 2.5018e-05 0 2.16607e-29 0 4.33383e-29 0 8.67419e-29 0 2.1732e-28 0 4.36257e-28
0.335009 4.54613e-18 4.54609e-18 3.96603e-23 8.72398e-06 2.25714e-05 0 1.18967e-28 0 2.37986e-28 0 4.76167e-28 0 1.19175e-27 0 2.38826e-27
0.352205 4.3562e-18 4.35617e-18 3.21319e-23 7.37612e-06 2.03725e-05 0 5.95836e-28 0 1.19183e-27 0 2.38423e-27 0 5.96416e-27 0 1.19417e-26
0.370284 4.17008e-18 4.17006e-18 2.60577e-23 6.24873e-06 1.83921e-05 0 2.7327e-27 0 5.46588e-27 0 1.09333e-26 0 2.73424e-26 0 5.4721e-26
0.389291 3.98945e-18 3.98943e-18 2.11604e-23 5.30408e-06 1.66093e-05 0 1.15297e-26 0 2.30608e-26 0 4.61259e-26 0 1.15336e-25 0 2.30768e-25
0.409273 3.81256e-18 3.81255e-18 1.72132e-23 4.51485e-06 1.50059e-05 0 4.49109e-26 0 8.98261e-26 0 1.79664e-25 0 4.49208e-25 0 8.98658e-25
0.430281 3.64061e-18 3.6406e-18 1.40058e-23 3.8471e-06 1.35582e-05 0 1.62173e-25 0 3.24359e-25 0 6.48748e-25 0 1.62197e-24 0 3.24455e-24
0.452368 3.4748e-18 3.47479e-18 1.14101e-23 3.28368e-06 1.22533e-05 0 5.45037e-25 0 1.09011e-24 0 2.1803e-24 0 5.45095e-24 0 1.09034e-23
0.475588 3.31506e-18 3.31505e-18 9.29894e-24 2.80506e-06 1.10749e-05 0 1.71084e-24 0 3.42179e-24 0 6.84377e-24 0 1.71098e-23 0 3.42233e-23
0.5 3.16257e-18 3.16257e-18 7.58658e-24 2.39886e-06 1.00128e-05 0 5.03435e-24 0 1.0069e-23 0 2.01384e-23 0 5.03468e-23 0 1.00702e-22
0.525665 3.01691e-18 3.01691e-18 6.19027e-24 2.05186e-06 9.05249e-06 0 1.39308e-23 0 2.78623e-23 0 5.57257e-23 0 1.39315e-22 0 2.78651e-22
0.552647 2.87809e-18 2.87808e-18 5.04962e-24 1.7545e-06 8.18374e-06 0 3.63619e-23 0 7.27255e-23 0 1.45454e-22 0 3.63636e-22 0 7.27316e-22
0.581015 2.74398e-18 2.74397e-18 4.12698e-24 1.50402e-06 7.40156e-06 0 8.97232e-23 0 1.7945e-22 0 3.58907e-22 0 8.97269e-22 0 1.79464e-21
0.610839 2.61648e-18 2.61647e-18 3.37337e-24 1.28928e-06 6.69447e-06 0 2.10013e-22 0 4.20034e-22 0 8.40081e-22 0 2.10021e-21 0 4.20062e-21
0.642193 2.49514e-18 2.49513e-18 2.75637e-24 1.1047e-06 6.05431e-06 0 4.67476e-22 0 9.34971e-22 0 1.86997e-21 0 4.67492e-21 0 9.35026e-21
0.675157 2.37982e-18 2.37981e-18 2.25266e-24 9.4657e-07 5.47553e-06 0 9.92053e-22 0 1.98414e-21 0 3.96833e-21 0 9.92085e-21 0 1.98425e-20
0.709813 2.27041e-18 2.27041e-18 1.84282e-24 8.11667e-07 4.95334e-06 0 2.01194e-21 0 4.02395e-21 0 8.04798e-21 0 2.012e-20 0 4.02415e-20
0.746248 2.16648e-18 2.16648e-18 1.50739e-24 6.9578e-07 4.48083e-06 0 3.90777e-21 0 7.81567e-21 0 1.56315e-20 0 3.90788e-20 0 7.81604e-20
0.784553 2.06757e-18 2.06757e-18 1.23264e-24 5.96177e-07 4.05298e-06 0 7.28362e-21 0 1.45675e-20 0 2.91352e-20 0 7.28382e-20 0 1.45681e-19
0.824824 1.97249e-18 1.97249e-18 1.00836e-24 5.1121e-07 3.66636e-06 0 1.30473e-20 0 2.6095e-20 0 5.21905e-20 0 1.30476e-19 0 2.60961e-19
0.867162 1.88153e-18 1.88153e-18 8.25572e-25 4.38777e-07 3.31725e-06 0 2.2509e-20 0 4.50188e-20 0 9.00383e-20 0 2.25096e-19 0 4.50205e-19
0.911674 1.79471e-18 1.79471e-18 6.75767e-25 3.76533e-07 3.00122e-06 0 3.74694e-20 0 7.49398e-20 0 1.49881e-19 0 3.74702e-19 0 7.49425e-19
0.95847 1.71141e-18 1.71141e-18 5.53082e-25 3.23174e-07 2.7153e-06 0 6.02699e-20 0 1.20542e-19 0 2.41085e-19 0 6.02713e-19 0 1.20546e-18
1.00767 1.63231e-18 1.63231e-18 4.52782e-25 2.77387e-07 2.45665e-06 0 9.38731e-20 0 1.87749e-19 0 3.755e-19 0 9.38752e-19 0 1.87755e-18
1.05939 1.55755e-18 1.55755e-18 3.70707e-25 2.38006e-07 2.22272e-06 0 1.41827e-19 0 2.83657e-19 0 5.67318e-19 0 1.4183e-18 0 2.83666e-18
1.11377 1.48642e-18 1.48642e-18 3.03423e-25 2.04131e-07 2.01095e-06 0 2.08088e-19 0 4.16182e-19 0 8.32368e-19 0 2.08093e-18 0 4.16194e-18
1.17094 1.41841e-18 1.41841e-18 2.48252e-25 1.75021e-07 1.81912e-06 0 2.96832e-19 0 5.9367e-19 0 1.18735e-18 0 2.96837e-18 0 5.93686e-18
1.23105 1.35371e-18 1.35371e-18 2.03214e-25 1.50116e-07 1.64582e-06 0 4.12297e-19 0 8.24602e-19 0 1.64921e-18 0 4.12304e-18 0 8.24624e-18
1.29424 1.29533e-18 1.29533e-18 1.66283e-25 1.28371e-07 1.48906e-06 0 5.59701e-19 0 1.11941e-18 0 2.23884e-18 0 5.59711e-18 0 1.11944e-17
1.36067 1.24054e-18 1.24054e-18 1.36117e-25 1.09725e-07 1.347e-06 0 7.42159e-19 0 1.48433e-18 0 2.96868e-18 0 7.42172e-18 0 1.48437e-17
1.43051 1.18837e-18 1.18837e-18 1.1134e-25 9.36915e-08 1.21863e-06 0 9.61745e-19 0 1.92351e-18 0 3.84703e-18 0 9.6176e-18 0 1.92355e-17
1.50394 1.1387e-18 1.1387e-18 9.1138e-26 8.00367e-08 1.10243e-06 0 1.2193e-18 0 2.43863e-18 0 4.87728e-18 0 1.21932e-17 0 2.43868e-17
1.58114 1.09114e-18 1.09114e-18 7.45796e-26 6.83502e-08 9.97508e-07 0 1.51351e-18 0 3.02705e-18 0 6.05412e-18 0 1.51353e-17 0 3.02711e-17
1.6623 1.04554e-18 1.04554e-18 6.09784e-26 5.83222e-08 9.02132e-07 0 1.84111e-18 0 3.68225e-18 0 7.36453e-18 0 1.84114e-17 0 3.68232e-17
1.74762 1.00259e-18 1.00259e-18 4.98698e-26 4.97411e-08 8.15727e-07 0 2.19848e-18 0 4.39699e-18 0 8.79402e-18 0 2.19851e-17 0 4.39707e-17
1.83733 9.63368e-19 9.63368e-19 4.07756e-26 4.23261e-08 7.3783e-07 0 2.58265e-18 0 5.16533e-18 0 1.03307e-17 0 2.58268e-17 0 5.16542e-17
1.93164 9.26705e-19 9.26705e-19 3.33256e-26 3.59614e-08 6.67729e-07 0 2.98443e-18 0 5.96891e-18 0 1.19378e-17 0 2.98447e-17 0 5.96901e-17
2.03079 8.92078e-19 8.92078e-19 2.72325e-26 3.05271e-08 6.03885e-07 0 3.39386e-18 0 6.78777e-18 0 1.35756e-17 0 3.3939e-17 0 6.78788e-17
2.13503 8.59267e-19 8.59267e-19 2.22543e-26 2.58992e-08 5.45995e-07 0 3.80056e-18 0 7.60116e-18 0 1.52024e-17 0 3.8006e-17 0 7.60128e-17
2.24463 8.28699e-19 8.28699e-19 1.81746e-26 2.19315e-08 4.93889e-07 0 4.19682e-18 0 8.3937e-18 0 1.67874e-17 0 4.19687e-17 0 8.39382e-17
2.35984 7.99492e-19 7.99492e-19 1.48353e-26 1.85559e-08 4.46666e-07 0 4.56905e-18 0 9.13815e-18 0 1.82763e-17 0 4.5691e-17 0 9.13828e-17
2.48097 7.71881e-19 7.71881e-19 1.20979e-26 1.56733e-08 4.03102e-07 0 4.90939e-18 0 9.81884e-18 0 1.96377e-17 0 4.90944e-17 0 9.81896e-17
2.60832 7.4634e-19 7.4634e-19 9.86863e-27 1.32227e-08 3.64678e-07 0 5.21364e-18 0 1.04273e-17 0 2.08547e-17 0 5.21369e-17 0 1.04275e-16
2.74221 7.22089e-19 7.22089e-19 8.04608e-27 1.11428e-08 3.29414e-07 0 5.47087e-18 0 1.09418e-17 0 2.18836e-17 0 5.47092e-17 0 1.09419e-16
2.88297 6.9958e-19 6.9958e-19 6.54893e-27 9.36123e-09 2.98071e-07 0 5.68016e-18 0 1.13604e-17 0 2.27208e-17 0 5.6802e-17 0 1.13605e-16
3.03095 6.78306e-19 6.78306e-19 5.32954e-27 7.85713e-09 2.69419e-07 0 5.8352e-18 0 1.16705e-17 0 2.3341e-17 0 5.83525e-17 0 1.16706e-16
3.18653 6.59733e-19 6.59733e-19 4.33504e-27 6.57091e-09 2.43912e-07 0 5.94839e-18 0 1.18968e-17 0 2.37937e-17 0 5.94844e-17 0 1.1897e-16
3.35009 6.42171e-19 6.42171e-19 3.52147e-27 5.4837e-09 2.19463e-07 0 6.0064e-18 0 1.20129e-17 0 2.40258e-17 0 6.00644e-17 0 1.2013e-16
3.52205 6.23107e-19 6.23107e-19 2.85552e-27 4.58271e-09 1.98899e-07 0 5.98712e-18 0 1.19743e-17 0 2.39486e-17 0 5.98715e-17 0 1.19744e-16
3.70284 6.04329e-19 6.04329e-19 2.31413e-27 3.82925e-09 1.79305e-07 0 5.91016e-18 0 1.18204e-17 0 2.36408e-17 0 5.9102e-17 0 1.18205e-16
3.89291 5.86179e-19 5.86179e-19 1.87163e-27 3.19293e-09 1.62561e-07 0 5.78391e-18 0 1.15679e-17 0 2.31358e-17 0 5.78394e-17 0 1.1568e-16
4.09273 5.68984e-19 5.68984e-19 1.50964e-27 2.65322e-09 1.46056e-07 0 5.61769e-18 0 1.12354e-17 0 2.24709e-17 0 5.61772e-17 0 1.12355e-16
4.30281 5.50981e-19 5.50981e-19 1.21423e-27 2.20377e-09 1.30854e-07 0 5.40088e-18 0 1.08018e-17 0 2.16036e-17 0 5.40091e-17 0 1.08019e-16
4.52368 5.34405e-19 5.34405e-19 9.74014e-28 1.82261e-09 1.17092e-07 0 5.1626e-18 0 1.03252e-17 0 2.06505e-17 0 5.16262e-17 0 1.03253e-16
4.75588 5.20025e-19 5.20025e-19 7.78089e-28 1.49625e-09 1.06707e-07 0 4.91678e-18 0 9.8336e-18 0 1.96672e-17 0 4.9168e-17 0 9.83366e-17
5 5.09229e-19 5.09229e-19 6.17719e-28 1.21305e-09 9.5905e-08 0 4.68172e-18 0 9.36347e-18 0 1.87269e-17 0 4.68174e-17 0 9.36352e-17
5.25665 5.03363e-19 5.03363e-19 4.8726e-28 9.6801e-10 8.63754e-08 0 4.47265e-18 0 8.94532e-18 0 1.78907e-17 0 4.47266e-17 0 8.94537e-17
5.52648 5.01738e-19 5.01738e-19 3.81794e-28 7.60943e-10 7.7923e-08 0 4.28436e-18 0 8.56875e-18 0 1.71375e-17 0 4.28438e-17 0 8.56879e-17
5.81015 5.06855e-19 5.06855e-19 2.95584e-28 5.83172e-10 7.1537e-08 0 4.13737e-18 0 8.27476e-18 0 1.65495e-17 0 4.13738e-17 0 8.2748e-17
6.10839 5.16556e-19 5.16556e-19 2.25918e-28 4.37354e-10 6.08588e-08 0 4.01113e-18 0 8.02227e-18 0 1.60445e-17 0 4.01114e-17 0 8.02231e-17
6.42193 5.24225e-19 5.24225e-19 1.69542e-28 3.23414e-10 5.48575e-08 0 3.85493e-18 0 7.70987e-18 0 1.54197e-17 0 3.85494e-17 0 7.7099e-17
6.75157 5.25591e-19 5.25591e-19 1.22524e-28 2.33116e-10 5.01801e-08 0 3.64503e-18 0 7.29007e-18 0 1.45801e-17 0 3.64504e-17 1.68156e-44 7.2901e-17
7.09813 5.34019e-19 5.34019e-19 8.20537e-29 1.53653e-10 4.23223e-08 0 3.4796e-18 0 6.95922e-18 0 1.39184e-17 0 3.47961e-17 8.25365e-43 6.95924e-17
7.46248 6.58013e-19 6.58013e-19 4.62353e-29 7.0265e-11 3.28585e-08 0 4.01466e-18 0 8.02933e-18 0 1.60587e-17 4.2039e-45 4.01467e-17 3.883e-41 8.02936e-17
7.84553 1.27888e-18 1.27888e-18 2.31082e-29 1.8069e-11 2.62461e-08 0 7.28386e-18 0 1.45677e-17 0 2.91355e-17 3.9937e-43 7.28387e-17 2.38431e-39 1.45678e-16
8.24824 2.66042e-18 2.66042e-18 2.82383e-29 1.06143e-11 2.53834e-08 0 1.41066e-17 0 2.82132e-17 0 5.64264e-17 3.34546e-41 1.41066e-16 1.30781e-37 2.82133e-16
8.67162 4.06059e-18 4.06059e-18 5.07932e-29 1.25088e-11 2.39785e-08 0 1.99975e-17 0 3.9995e-17 1.12104e-44 7.99901e-17 1.6977e-39 1.99975e-16 4.43174e-36 3.99952e-16
9.11674 5.98646e-18 5.98646e-18 9.90472e-29 1.65452e-11 2.08826e-08 0 2.73267e-17 0 5.46534e-17 8.40779e-43 1.09307e-16 6.92774e-38 2.73267e-16 1.23165e-34 5.46536e-16
9.5847 6.7352e-18 6.7352e-18 1.40882e-28 2.09173e-11 1.82077e-08 0 2.84478e-17 4.2039e-45 5.68958e-17 3.81966e-41 1.13792e-16 1.81226e-36 2.84479e-16 2.23586e-33 5.68959e-16
10.0767 6.03446e-18 6.03446e-18 1.35466e-28 2.24488e-11 1.64635e-08 0 2.35507e-17 1.68156e-43 4.71016e-17 1.14032e-39 9.42031e-17 3.19828e-35 2.35508e-16 2.7875e-32 4.71017e-16
10.5939 5.06205e-18 5.06205e-18 1.22824e-28 2.42637e-11 1.61496e-08 0 1.82336e-17 6.00877e-42 3.64672e-17 2.65338e-38 7.29344e-17 4.51362e-34 1.82336e-16 2.8266e-31 3.64673e-16
11.1377 3.97947e-18 3.97947e-18 9.72105e-29 2.4428e-11 1.8179e-08 2.10195e-44 1.32185e-17 1.65785e-40 2.64369e-17 4.85976e-37 5.28739e-17 5.13782e-33 1.32185e-16 2.34947e-30 2.6437e-16
11.7094 3.17754e-18 3.17754e-18 7.63922e-29 2.40413e-11 1.84918e-08 7.6651e-43 9.7274e-18 3.85767e-39 1.94548e-17 7.6581e-36 3.89096e-17 5.15003e-32 9.72741e-17 1.74631e-29 1.94549e-16
12.3105 2.48125e-18 2.48125e-18 5.85613e-29 2.36016e-11 1.36395e-08 2.21699e-41 6.99794e-18 7.35573e-38 1.39959e-17 1.00788e-34 2.79918e-17 4.40771e-31 6.99794e-17 1.12456e-28 1.39959e-16
12.9424 1.93655e-18 1.93655e-18 4.36393e-29 2.25346e-11 1.43011e-08 5.30471e-40 5.03105e-18 1.18476e-36 1.00621e-17 1.14094e-33 2.01242e-17 3.31367e-30 5.03105e-17 6.45018e-28 1.00621e-16
13.6067 1.54761e-18 1.54761e-18 3.12508e-29 2.0193e-11 7.48997e-09 1.08635e-38 3.70372e-18 1.66505e-35 7.40744e-18 1.14653e-32 1.48149e-17 2.25606e-29 3.70371e-17 3.39502e-27 7.40745e-17
14.3051 1.42143e-18 1.42143e-18 2.14418e-29 1.50846e-11 8.83252e-09 2.15582e-37 3.13428e-18 2.30964e-34 6.26856e-18 1.15596e-31 1.25371e-17 1.57067e-28 3.13428e-17 1.85039e-26 6.26857e-17
15.0394 1.58193e-18 1.58193e-18 1.59528e-29 1.00844e-11 1.87015e-08 4.40752e-36 3.21498e-18 3.35886e-33 6.42996e-18 1.24107e-30 1.28599e-17 1.18567e-27 3.21498e-17 1.10667e-25 6.42997e-17
15.8114 1.826e-18 1.826e-18 1.3221e-29 7.24044e-12 1.23376e-08 8.0093e-35 3.4219e-18 4.4145e-32 6.8438e-18 1.22215e-29 1.36876e-17 8.352e-27 3.4219e-17 6.24682e-25 6.8438e-17
16.623 2.09851e-18 2.09851e-18 1.20885e-29 5.76049e-12 1.01714e-08 1.25126e-33 3.62814e-18 5.06751e-31 7.25629e-18 1.0661e-28 1.45126e-17 5.2974e-26 3.62814e-17 3.20953e-24 7.25629e-17
17.4762 2.31413e-18 2.31413e-18 1.18115e-29 5.10409e-12 1.3734e-08 1.63123e-32 3.69335e-18 4.92783e-30 7.38671e-18 7.98437e-28 1.47734e-17 2.92998e-25 3.69335e-17 1.45285e-23 7.3867e-17
18.3733 2.38871e-18 2.38871e-18 1.16537e-29 4.87867e-12 5.38496e-09 1.74307e-31 3.5215e-18 3.9844e-29 7.04301e-18 5.03578e-27 1.4086e-17 1.38508e-24 3.5215e-17 5.67617e-23 7.043e-17
19.3164 2.27766e-18 2.27766e-18 1.10178e-29 4.83735e-12 1.58161e-09 1.5163e-30 3.10357e-18 2.65863e-28 6.20713e-18 2.65307e-26 1.24142e-17 5.54696e-24 3.10356e-17 1.89629e-22 6.20712e-17
20.3079 2.03532e-18 2.03532e-18 9.70961e-30 4.77056e-12 1.86931e-08 1.09623e-29 2.56498e-18 1.49354e-27 5.12996e-18 1.19043e-25 1.02599e-17 1.91744e-23 2.56497e-17 5.51674e-22 5.12994e-17
21.3503 1.81796e-18 1.81796e-18 8.237e-30 4.53091e-12 1.49314e-08 7.06607e-29 2.12019e-18 7.57336e-27 4.24038e-18 4.87458e-25 8.48075e-18 6.12634e-23 2.12018e-17 1.49599e-21 4.24037e-17
22.4463 1.62593e-18 1.62593e-18 6.93771e-30 4.26693e-12 -8.19785e-09 4.09086e-28 1.7558e-18 3.48985e-26 3.51161e-18 1.83294e-24 7.0232e-18 1.81936e-22 1.75579e-17 3.80094e-21 3.51159e-17
23.5984 1.45763e-18 1.45763e-18 5.77137e-30 3.95943e-12 -1.14714e-08 2.14073e-27 1.45822e-18 1.46986e-25 2.91645e-18 6.36245e-24 5.83288e-18 5.04549e-22 1.45822e-17 9.08721e-21 2.91643e-17
24.8097 1.31182e-18 1.31182e-18 4.80617e-30 3.66375e-12 8.17744e-09 1.01926e-26 1.21631e-18 5.69273e-25 2.43263e-18 2.0501e-23 4.86524e-18 1.31318e-21 1.21631e-17 2.05377e-20 2.43261e-17
26.0832 1.17829e-18 1.17829e-18 3.97022e-30 3.36946e-12 3.09277e-08 4.41082e-26 1.01293e-18 2.02423e-24 2.02586e-18 6.1196e-23 4.05171e-18 3.1994e-21 1.01292e-17 4.37511e-20 2.02584e-17
27.4221 1.05676e-18 1.05676e-18 3.27945e-30 3.1033e-12 -2.10093e-09 1.74365e-25 8.42527e-19 6.63845e-24 1.68505e-18 1.69921e-22 3.37009e-18 7.32312e-21 8.42519e-18 8.81365e-20 1.68503e-17
28.8297 9.51481e-19 9.51481e-19 2.70832e-30 2.84642e-12 4.46775e-09 6.35814e-25 7.03682e-19 2.02659e-23 1.40736e-18 4.42787e-22 2.81472e-18 1.58797e-20 7.03674e-18 1.69259e-19 1.40734e-17
30.3095 8.56306e-19 8.56306e-19 2.23545e-30 2.61058e-12 -3.57496e-09 2.1382e-24 5.87528e-19 5.75547e-23 1.17506e-18 1.08171e-21 2.3501e-18 3.25729e-20 5.87521e-18 3.09306e-19 1.17503e-17
31.8653 7.7241e-19 7.7241e-19 1.83775e-30 2.37924e-12 5.50668e-08 6.67575e-24 4.91686e-19 1.53007e-22 9.83371e-19 2.49195e-21 1.96673e-18 6.35456e-20 4.91679e-18 5.40616e-19 9.83351e-18
33.5009 6.95508e-19 6.95508e-19 1.51326e-30 2.17575e-12 -1.77561e-08 1.9344e-23 4.10736e-19 3.80494e-22 8.21471e-19 5.40766e-21 1.64293e-18 1.17729e-19 4.10729e-18 9.02171e-19 8.21451e-18
35.2206 6.31803e-19 6.31803e-19 1.2433e-30 1.96786e-12 -4.98494e-08 5.27635e-23 3.46105e-19 8.97357e-22 6.92209e-19 1.12034e-20 1.38441e-18 2.09846e-19 3.46098e-18 1.45589e-18 6.9219e-18
37.0284 5.72932e-19 5.72932e-19 1.02183e-30 1.78352e-12 -2.36561e-08 1.34504e-22 2.91075e-19 1.99198e-21 5.8215e-19 2.19856e-20 1.16429e-18 3.56911e-19 2.91069e-18 2.25276e-18 5.82131e-18
38.9291 5.18383e-19 5.18383e-19 8.40716e-31 1.6218e-12 -3.4966e-09 3.21327e-22 2.44179e-19 4.172e-21 4.88358e-19 4.09526e-20 9.76709e-19 5.80237e-19 2.44173e-18 3.34729e-18 4.8834e-18
40.9273 4.67896e-19 4.67896e-19 6.92553e-31 1.48014e-12 -1.34208e-08 7.21457e-22 2.04273e-19 8.26508e-21 4.08547e-19 7.25696e-20 8.17087e-19 9.03371e-19 2.04268e-18 4.78404e-18 4.0853e-18
43.0282 4.2207e-19 4.2207e-19 5.69102e-31 1.34836e-12 -2.87189e-08 1.52962e-21 1.70716e-19 1.55566e-20 3.41432e-19 1.22845e-19 6.82857e-19 1.35207e-18 1.70711e-18 6.6006e-18 3.41416e-18
