# 3.6927e-05 0 71 : grain size, compostion index, size index
# Heating and cooling timescale: 0.0032413 51577.6
# Ratio of heating to cooling to determine stochastic cutoff: 100
# Equilibrium emission is recorded even for those grains in the stochastic regime.
# Emission spectrum was computed for: 
# Type: ISRF
# Scales: 0.25 0.5 1 1.5 2 2.5 3 3.5 4 4.5 5 5.5 6 6.5 7 7.5 8 8.5 9 9.5 10
# StochasticallyHeated: 0 0 0 0 0 0 0 0 0 0 0 0 0 0 0 0 0 0 0 0 0
# Temperature: -1
# Wavelength  CExt  CAbs  CSca  Albedo G EqEm1 StEm1 EqEm2 StEm2 EqEm3 StEm3 EqEm4 StEm4 EqEm5 StEm5 EqEm6 StEm6 EqEm7 StEm7 EqEm8 StEm8 EqEm9 StEm9 EqEm10 StEm10 EqEm11 StEm11 EqEm12 StEm12 EqEm13 StEm13 EqEm14 StEm14 EqEm15 StEm15 EqEm16 StEm16 EqEm17 StEm17 EqEm18 StEm18 EqEm19 StEm19 EqEm20 StEm20 EqEm21 StEm21
0.05 8.71707e-09 3.82304e-09 4.89403e-09 0.561431 0.964869 0 0 0 0 0 0 0 0 0 0 0 0 0 0 0 0 0 0 0 0 0 0 0 0 0 0 0 0 0 0 0 0 0 0 0 0 0 0 0 0 0 0
0.0525665 8.74598e-09 3.8219e-09 4.92408e-09 0.56301 0.961611 0 0 0 0 0 0 0 0 0 0 0 0 0 0 0 0 0 0 0 0 0 0 0 0 0 0 0 0 0 0 0 0 0 0 0 0 0 0 0 0 0 0
0.0552647 8.77832e-09 3.82273e-09 4.9556e-09 0.564527 0.957876 0 0 0 0 0 0 0 0 0 0 0 0 0 0 0 0 0 0 0 0 0 0 0 0 0 0 0 0 0 0 0 0 0 0 0 0 0 0 0 0 0 0
0.0581015 8.81246e-09 3.82353e-09 4.98893e-09 0.566122 0.953636 0 0 0 0 0 0 0 0 0 0 0 0 0 0 0 0 0 0 0 0 0 0 0 0 0 0 0 0 0 0 0 0 0 0 0 0 0 0 0 0 0 0
0.0610839 8.84871e-09 3.82388e-09 5.02483e-09 0.56786 0.948843 0 0 0 0 0 0 0 0 0 0 0 0 0 0 0 0 0 0 0 0 0 0 0 0 0 0 0 0 0 0 0 0 0 0 0 0 0 0 0 0 0 0
0.0642193 8.88842e-09 3.82629e-09 5.06212e-09 0.569519 0.943505 0 0 0 0 0 0 0 0 0 0 0 0 0 0 0 0 0 0 0 0 0 0 0 0 0 0 0 0 0 0 0 0 0 0 0 0 0 0 0 0 0 0
0.0675157 8.9325e-09 3.8304e-09 5.1021e-09 0.571184 0.937698 0 0 0 0 0 0 0 0 0 0 0 0 0 0 0 0 0 0 0 0 0 0 0 0 0 0 0 0 0 0 0 0 0 0 0 0 0 0 0 0 0 0
0.0709813 8.98645e-09 3.8344e-09 5.15205e-09 0.573313 0.930728 0 0 0 0 0 0 0 0 0 0 0 0 0 0 0 0 0 0 0 0 0 0 0 0 0 0 0 0 0 0 0 0 0 0 0 0 0 0 0 0 0 0
0.0746248 9.00001e-09 3.84227e-09 5.15774e-09 0.573082 0.92191 0 0 0 0 0 0 0 0 0 0 0 0 0 0 0 0 0 0 0 0 0 0 0 0 0 0 0 0 0 0 0 0 0 0 0 0 0 0 0 0 0 0
0.0784553 9.09582e-09 3.88133e-09 5.21449e-09 0.573284 0.919019 0 0 0 0 0 0 0 0 0 0 0 0 0 0 0 0 0 0 0 0 0 0 0 0 0 0 0 0 0 0 0 0 0 0 0 0 0 0 0 0 0 0
0.0824824 9.15067e-09 3.94401e-09 5.20666e-09 0.568992 0.917812 0 0 0 0 0 0 0 0 0 0 0 0 0 0 0 0 0 0 0 0 0 0 0 0 0 0 0 0 0 0 0 0 0 0 0 0 0 0 0 0 0 0
0.0867162 9.18089e-09 4.00569e-09 5.1752e-09 0.563693 0.916248 0 0 0 0 0 0 0 0 0 0 0 0 0 0 0 0 0 0 0 0 0 0 0 0 0 0 0 0 0 0 0 0 0 0 0 0 0 0 0 0 0 0
0.0911674 9.22585e-09 4.07874e-09 5.14712e-09 0.557902 0.916196 0 0 0 0 0 0 0 0 0 0 0 0 0 0 0 0 0 0 0 0 0 0 0 0 0 0 0 0 0 0 0 0 0 0 0 0 0 0 0 0 0 0
0.095847 9.27719e-09 4.13049e-09 5.1467e-09 0.554769 0.916359 0 0 0 0 0 0 0 0 0 0 0 0 0 0 0 0 0 0 0 0 0 0 0 0 0 0 0 0 0 0 0 0 0 0 0 0 0 0 0 0 0 0
0.100767 9.31664e-09 4.20995e-09 5.1067e-09 0.548126 0.918536 0 0 0 0 0 0 0 0 0 0 0 0 0 0 0 0 0 0 0 0 0 0 0 0 0 0 0 0 0 0 0 0 0 0 0 0 0 0 0 0 0 0
0.105939 9.34211e-09 4.25911e-09 5.083e-09 0.544096 0.919289 0 0 0 0 0 0 0 0 0 0 0 0 0 0 0 0 0 0 0 0 0 0 0 0 0 0 0 0 0 0 0 0 0 0 0 0 0 0 0 0 0 0
0.111377 9.42727e-09 4.31025e-09 5.11701e-09 0.542789 0.921724 0 0 0 0 0 0 0 0 0 0 0 0 0 0 0 0 0 0 0 0 0 0 0 0 0 0 0 0 0 0 0 0 0 0 0 0 0 0 0 0 0 0
0.117094 9.43262e-09 4.35946e-09 5.07316e-09 0.537832 0.923441 0 0 0 0 0 0 0 0 0 0 0 0 0 0 0 0 0 0 0 0 0 0 0 0 0 0 0 0 0 0 0 0 0 0 0 0 0 0 0 0 0 0
0.123105 9.45965e-09 4.3961e-09 5.06356e-09 0.535279 0.922781 0 0 0 0 0 0 0 0 0 0 0 0 0 0 0 0 0 0 0 0 0 0 0 0 0 0 0 0 0 0 0 0 0 0 0 0 0 0 0 0 0 0
0.129424 9.48465e-09 4.4218e-09 5.06285e-09 0.533794 0.920562 0 0 0 0 0 0 0 0 0 0 0 0 0 0 0 0 0 0 0 0 0 0 0 0 0 0 0 0 0 0 0 0 0 0 0 0 0 0 0 0 0 0
0.136067 9.5093e-09 4.43633e-09 5.07297e-09 0.533475 0.916684 0 0 0 0 0 0 0 0 0 0 0 0 0 0 0 0 0 0 0 0 0 0 0 0 0 0 0 0 0 0 0 0 0 0 0 0 0 0 0 0 0 0
0.143051 9.53571e-09 4.44172e-09 5.094e-09 0.534202 0.911361 0 0 0 0 0 0 0 0 0 0 0 0 0 0 0 0 0 0 0 0 0 0 0 0 0 0 0 0 0 0 0 0 0 0 0 0 0 0 0 0 0 0
0.150394 9.56611e-09 4.44172e-09 5.12439e-09 0.535682 0.904996 0 0 0 0 0 0 0 0 0 0 0 0 0 0 0 0 0 0 0 0 0 0 0 0 0 0 0 0 0 0 0 0 0 0 0 0 0 0 0 0 0 0
0.158114 9.6028e-09 4.43951e-09 5.16329e-09 0.537686 0.897931 0 0 0 0 0 0 0 0 0 0 0 0 0 0 0 0 0 0 0 0 0 0 0 0 0 0 0 0 0 0 0 0 0 0 0 0 0 0 0 0 0 0
0.16623 9.6481e-09 4.43829e-09 5.20981e-09 0.539983 0.890517 0 0 0 0 0 0 0 0 0 0 0 0 0 0 0 0 0 0 0 0 0 0 0 0 0 0 0 0 0 0 0 0 0 0 0 0 0 0 0 0 0 0
0.174762 9.70434e-09 4.44111e-09 5.26323e-09 0.542358 0.882948 0 0 0 0 0 0 0 0 0 0 0 0 0 0 0 0 0 0 0 0 0 0 0 0 0 0 0 0 0 0 0 0 0 0 0 0 0 0 0 0 0 0
0.183733 9.77184e-09 4.44932e-09 5.32252e-09 0.544679 0.875342 0 0 0 0 0 0 0 0 0 0 0 0 0 0 0 0 0 0 0 0 0 0 0 0 0 0 0 0 0 0 0 0 0 0 0 0 0 0 0 0 0 0
0.193164 9.85099e-09 4.4647e-09 5.3863e-09 0.546777 0.867832 0 0 0 0 0 0 0 0 0 0 0 0 0 0 0 0 0 0 0 0 0 0 0 0 0 0 0 0 0 0 0 0 0 0 0 0 0 0 0 0 0 0
0.203079 9.94053e-09 4.48798e-09 5.45255e-09 0.548517 0.860513 0 0 0 0 0 0 0 0 0 0 0 0 0 0 0 0 0 0 0 0 0 0 0 0 0 0 0 0 0 0 0 0 0 0 0 0 0 0 0 0 0 0
0.213503 1.0039e-08 4.51942e-09 5.51955e-09 0.549812 0.853496 0 0 0 0 0 0 0 0 0 0 0 0 0 0 0 0 0 0 0 0 0 0 0 0 0 0 0 0 0 0 0 0 0 0 0 0 0 0 0 0 0 0
0.224463 1.01435e-08 4.55922e-09 5.58429e-09 0.550529 0.846946 0 0 0 0 0 0 0 0 0 0 0 0 0 0 0 0 0 0 0 0 0 0 0 0 0 0 0 0 0 0 0 0 0 0 0 0 0 0 0 0 0 0
0.235984 1.02488e-08 4.60591e-09 5.64291e-09 0.550591 0.840898 0 0 0 0 0 0 0 0 0 0 0 0 0 0 0 0 0 0 0 0 0 0 0 0 0 0 0 0 0 0 0 0 0 0 0 0 0 0 0 0 0 0
0.248097 1.03472e-08 4.65765e-09 5.68955e-09 0.549864 0.83531 0 0 0 0 0 0 0 0 0 0 0 0 0 0 0 0 0 0 0 0 0 0 0 0 0 0 0 0 0 0 0 0 0 0 0 0 0 0 0 0 0 0
0.260832 1.04279e-08 4.71337e-09 5.71457e-09 0.548006 0.830106 0 0 0 0 0 0 0 0 0 0 0 0 0 0 0 0 0 0 0 0 0 0 0 0 0 0 0 0 0 0 0 0 0 0 0 0 0 0 0 0 0 0
0.274221 1.04846e-08 4.76948e-09 5.71509e-09 0.545095 0.825105 0 0 0 0 0 0 0 0 0 0 0 0 0 0 0 0 0 0 0 0 0 0 0 0 0 0 0 0 0 0 0 0 0 0 0 0 0 0 0 0 0 0
0.288297 1.05346e-08 4.82381e-09 5.71077e-09 0.542098 0.821086 0 0 0 0 0 0 0 0 0 0 0 0 0 0 0 0 0 0 0 0 0 0 0 0 0 0 0 0 0 0 0 0 0 0 0 0 0 0 0 0 0 0
0.303095 1.06291e-08 4.87206e-09 5.75705e-09 0.541631 0.819503 0 0 0 0 0 0 0 0 0 0 0 0 0 0 0 0 0 0 0 0 0 0 0 0 0 0 0 0 0 0 0 0 0 0 0 0 0 0 0 0 0 0
0.318653 1.08331e-08 4.90941e-09 5.92367e-09 0.546813 0.821466 0 0 0 0 0 0 0 0 0 0 0 0 0 0 0 0 0 0 0 0 0 0 0 0 0 0 0 0 0 0 0 0 0 0 0 0 0 0 0 0 0 0
0.335009 1.11239e-08 4.92266e-09 6.20127e-09 0.557471 0.825688 0 0 0 0 0 0 0 0 0 0 0 0 0 0 0 0 0 0 0 0 0 0 0 0 0 0 0 0 0 0 0 0 0 0 0 0 0 0 0 0 0 0
0.352205 1.14138e-08 4.94126e-09 6.47257e-09 0.567082 0.829079 0 0 0 0 0 0 0 0 0 0 0 0 0 0 0 0 0 0 0 0 0 0 0 0 0 0 0 0 0 0 0 0 0 0 0 0 0 0 0 0 0 0
0.370284 1.14648e-08 4.89365e-09 6.5711e-09 0.573157 0.824642 0 0 0 0 0 0 0 0 0 0 0 0 0 0 0 0 0 0 0 0 0 0 0 0 0 0 0 0 0 0 0 0 0 0 0 0 0 0 0 0 0 0
0.389291 1.13315e-08 4.92624e-09 6.40522e-09 0.56526 0.811153 0 0 0 0 0 0 0 0 0 0 0 0 0 0 0 0 0 0 0 0 0 0 0 0 0 0 0 0 0 0 0 0 0 0 0 0 0 0 0 0 0 0
0.409273 1.07229e-08 4.80022e-09 5.92268e-09 0.552339 0.779704 0 0 0 0 0 0 0 0 0 0 0 0 0 0 0 0 0 0 0 0 0 0 0 0 0 0 0 0 0 0 0 0 0 0 0 0 0 0 0 0 0 0
0.430281 1.02579e-08 4.79149e-09 5.46645e-09 0.5329 0.73412 0 0 0 0 0 0 0 0 0 0 0 0 0 0 0 0 0 0 0 0 0 0 0 0 0 0 0 0 0 0 0 0 0 0 0 0 0 0 0 0 0 0
0.452368 9.75139e-09 4.76359e-09 4.98781e-09 0.511497 0.673487 0 0 0 0 0 0 0 0 0 0 0 0 0 0 0 0 0 0 0 0 0 0 0 0 0 0 0 0 0 0 0 0 0 0 0 0 0 0 0 0 0 0
0.475588 9.28767e-09 4.51304e-09 4.77463e-09 0.514082 0.622246 0 0 0 0 0 0 0 0 0 0 0 0 0 0 0 0 0 0 0 0 0 0 0 0 0 0 0 0 0 0 0 0 0 0 0 0 0 0 0 0 0 0
0.5 9.9844e-09 4.59245e-09 5.39195e-09 0.540038 0.598155 0 0 0 0 0 0 0 0 0 0 0 0 0 0 0 0 0 0 0 0 0 0 0 0 0 0 0 0 0 0 0 0 0 0 0 0 0 0 0 0 0 0
0.525665 1.02383e-08 4.45439e-09 5.78387e-09 0.564927 0.585247 0 0 0 0 0 0 0 0 0 0 0 0 0 0 0 0 0 0 0 0 0 0 0 0 0 0 0 0 0 0 0 0 0 0 0 0 0 0 0 0 0 0
0.552648 1.09026e-08 4.26565e-09 6.63691e-09 0.608747 0.615415 0 0 0 0 0 0 0 0 0 0 0 0 0 0 0 0 0 0 0 0 0 0 0 0 0 0 0 0 0 0 0 0 0 0 0 0 0 0 0 0 0 0
0.581015 1.25496e-08 4.25826e-09 8.29135e-09 0.660686 0.646215 0 0 0 0 0 0 0 0 0 0 0 0 0 0 0 0 0 0 0 0 0 0 0 0 0 0 0 0 0 0 0 0 0 0 0 0 0 0 0 0 0 0
0.610839 1.36783e-08 4.23662e-09 9.44163e-09 0.690266 0.657432 0 0 0 0 0 0 0 0 0 0 0 0 0 0 0 0 0 0 0 0 0 0 0 0 0 0 0 0 0 0 0 0 0 0 0 0 0 0 0 0 0 0
0.642193 1.4281e-08 4.11122e-09 1.01698e-08 0.71212 0.668823 0 0 0 0 0 0 0 0 0 0 0 0 0 0 0 0 0 0 0 0 0 0 0 0 0 0 0 0 0 0 0 0 0 0 0 0 0 0 0 0 0 0
0.675157 1.53417e-08 3.96871e-09 1.1373e-08 0.741312 0.6881 0 0 0 0 0 0 0 0 0 0 0 0 0 0 0 0 0 0 0 0 0 0 0 0 0 0 0 0 0 0 0 0 0 0 0 0 0 0 0 0 0 0
0.709813 1.66067e-08 3.91869e-09 1.2688e-08 0.764029 0.70513 0 0 0 0 0 0 0 0 0 0 0 0 0 0 0 0 0 0 0 0 0 0 0 0 0 0 0 0 0 0 0 0 0 0 0 0 0 0 0 0 0 0
0.746248 1.73546e-08 3.94667e-09 1.34079e-08 0.772587 0.711126 0 0 0 0 0 0 0 0 0 0 0 0 0 0 0 0 0 0 0 0 0 0 0 0 0 0 0 0 0 0 0 0 0 0 0 0 0 0 0 0 0 0
0.784553 1.74684e-08 3.90331e-09 1.35651e-08 0.77655 0.70407 0 0 0 0 0 0 0 0 0 0 0 0 0 0 0 0 0 0 0 0 0 0 0 0 0 0 0 0 0 0 0 0 0 0 0 0 0 0 0 0 0 0
0.824824 1.73814e-08 3.70598e-09 1.36754e-08 0.786784 0.691476 0 0 0 0 0 0 0 0 0 0 0 0 0 0 0 0 0 0 0 0 0 0 0 0 0 0 0 0 0 0 0 0 0 0 0 0 0 0 0 0 0 0
0.867162 1.74379e-08 3.51184e-09 1.39261e-08 0.798609 0.686321 0 0 0 0 0 0 0 0 0 0 0 0 0 0 0 0 0 0 0 0 0 0 0 0 0 0 0 0 0 0 0 0 0 0 0 0 0 0 0 0 0 0
0.911674 1.76012e-08 3.47467e-09 1.41265e-08 0.802589 0.69142 0 0 0 0 0 0 0 0 0 0 0 0 0 0 0 0 0 0 0 0 0 0 0 0 0 0 0 0 0 0 0 0 0 0 0 0 0 0 0 0 0 0
0.95847 1.75985e-08 3.56494e-09 1.40336e-08 0.79743 0.698842 0 0 0 0 0 0 0 0 0 0 0 0 0 0 0 0 0 0 0 0 0 0 0 0 0 0 0 0 0 0 0 0 0 0 0 0 0 0 0 0 0 0
1.00767 1.71742e-08 3.62399e-09 1.35503e-08 0.788987 0.697315 0 0 0 0 0 0 0 0 0 0 0 0 0 0 0 0 0 0 0 0 0 0 0 0 0 0 0 0 0 0 0 0 0 0 0 0 0 0 0 0 0 0
1.05939 1.63131e-08 3.51075e-09 1.28023e-08 0.78479 0.679385 0 0 0 0 0 0 0 0 0 0 0 0 0 0 0 0 0 0 0 0 0 0 0 0 0 0 0 0 0 0 0 0 0 0 0 0 0 0 0 0 0 0
1.11377 1.52738e-08 3.24385e-09 1.20299e-08 0.78762 0.647329 0 0 0 0 0 0 0 0 0 0 0 0 0 0 0 0 0 0 0 0 0 0 0 0 0 0 0 0 0 0 0 0 0 0 0 0 0 0 0 0 0 0
1.17094 1.43471e-08 2.96181e-09 1.13853e-08 0.793561 0.611407 0 0 0 0 0 0 0 0 0 0 0 0 0 0 0 0 0 0 0 0 0 0 0 0 0 0 0 0 0 0 0 0 0 0 0 0 0 0 0 0 0 0
1.23105 1.36427e-08 2.78036e-09 1.08623e-08 0.796201 0.581782 0 0 0 0 0 0 0 0 0 0 0 0 0 0 0 0 0 0 0 0 0 0 0 0 0 0 0 0 0 0 0 0 0 0 0 0 0 0 0 0 0 0
1.29424 1.30975e-08 2.73168e-09 1.03658e-08 0.791435 0.56353 0 0 0 0 0 0 0 0 0 0 0 0 0 0 0 0 0 0 0 0 0 0 0 0 0 0 0 0 0 0 0 0 0 0 0 0 0 0 0 0 0 0
1.36067 1.25653e-08 2.77998e-09 9.78529e-09 0.778757 0.556517 0 0 0 0 0 0 0 0 0 0 0 0 0 0 0 0 0 0 0 0 0 0 0 0 0 0 0 0 0 0 0 0 0 0 0 0 0 0 0 0 0 0
1.43051 1.19016e-08 2.85152e-09 9.05007e-09 0.760408 0.556709 0 0 0 0 0 0 0 0 0 0 0 0 0 0 0 0 0 0 0 0 0 0 0 0 0 0 0 0 0 0 0 0 0 0 0 0 0 0 0 0 0 0
1.50394 1.10299e-08 2.86897e-09 8.16089e-09 0.739891 0.557576 0 0 0 0 0 0 0 0 0 0 0 0 0 0 0 0 0 0 0 0 0 0 0 0 0 0 0 0 0 0 0 0 0 0 0 0 0 0 0 0 0 0
1.58114 9.97777e-09 2.78813e-09 7.18964e-09 0.720566 0.552181 0 0 0 0 0 0 0 0 0 0 0 0 0 0 0 0 0 0 0 0 0 0 0 0 0 0 0 0 0 0 0 0 0 0 0 0 0 0 0 0 0 0
1.6623 8.84599e-09 2.61434e-09 6.23165e-09 0.70446 0.535891 0 0 0 0 0 0 0 0 0 0 0 0 0 0 0 0 0 0 0 0 0 0 0 0 0 0 0 0 0 0 0 0 0 0 0 0 0 0 0 0 0 0
1.74763 7.74131e-09 2.38555e-09 5.35576e-09 0.691841 0.508135 0 0 0 0 0 0 0 0 0 0 0 0 0 0 0 0 0 0 0 0 0 0 0 0 0 0 0 0 0 0 0 0 0 0 0 0 0 0 0 0 0 0
1.83733 6.7299e-09 2.1429e-09 4.587e-09 0.681585 0.471762 0 0 0 0 0 0 0 0 0 0 0 0 0 0 0 0 0 0 0 0 0 0 0 0 0 0 0 0 0 0 0 0 0 0 0 0 0 0 0 0 0 0
1.93164 5.83579e-09 1.91393e-09 3.92186e-09 0.672036 0.431024 0 0 0 0 0 0 0 0 0 0 0 0 0 0 0 0 0 0 0 0 0 0 0 0 0 0 0 0 0 0 0 0 0 0 0 0 0 0 0 0 0 0
2.03079 5.05787e-09 1.71123e-09 3.34663e-09 0.661669 0.389723 0 0 0 0 0 0 0 0 0 0 0 0 0 0 0 0 0 0 0 0 0 0 0 0 0 0 0 0 0 0 0 0 0 0 0 0 0 0 0 0 0 0
2.13503 4.38359e-09 1.53673e-09 2.84685e-09 0.649435 0.350337 0 0 0 0 0 0 0 0 0 0 0 0 0 0 0 0 0 0 0 0 0 0 0 0 0 0 0 0 0 0 0 0 0 0 0 0 0 0 0 0 0 0
2.24463 3.79985e-09 1.38788e-09 2.41197e-09 0.634755 0.314121 0 0 0 0 0 0 0 0 0 0 0 0 0 0 0 0 0 0 0 0 0 0 0 0 0 0 0 0 0 0 0 0 0 0 0 0 0 0 0 0 0 0
2.35984 3.29478e-09 1.26042e-09 2.03437e-09 0.617451 0.281521 0 0 0 0 0 0 0 0 0 0 0 0 0 0 0 0 0 0 0 0 0 0 0 0 0 0 0 0 0 0 0 0 0 0 0 0 0 0 0 0 0 0
2.48097 2.85846e-09 1.15031e-09 1.70815e-09 0.597576 0.252484 0 0 0 0 0 0 0 0 0 0 0 0 0 0 0 0 0 0 0 0 0 0 0 0 0 0 0 0 0 0 0 0 0 0 0 0 0 0 0 0 0 0
2.60832 2.48237e-09 1.05424e-09 1.42813e-09 0.575308 0.226737 0 0 0 0 0 0 0 0 0 0 0 0 0 0 0 0 0 0 0 0 0 0 0 0 0 0 0 0 0 0 0 0 0 0 0 0 0 0 0 0 0 0
2.74221 2.15887e-09 9.69552e-10 1.18932e-09 0.550899 0.203936 0 0 0 0 0 0 0 0 0 0 0 0 0 0 0 0 0 0 0 0 0 0 0 0 0 0 0 0 0 0 0 0 0 0 0 0 0 0 0 0 0 0
2.88297 1.88123e-09 8.94365e-10 9.8686e-10 0.524584 0.183714 0 0 0 0 0 0 0 0 0 0 0 0 0 0 0 0 0 0 0 0 0 0 0 0 0 0 0 0 0 0 0 0 0 0 0 0 0 0 0 0 0 0
3.03095 1.64295e-09 8.27486e-10 8.15463e-10 0.496341 0.165708 0 0 0 0 0 0 0 0 0 0 0 0 0 0 0 0 0 0 0 0 0 0 0 0 0 0 0 0 0 0 0 0 0 0 0 0 0 0 0 0 0 0
3.18653 1.44138e-09 7.71471e-10 6.69906e-10 0.464768 0.149668 0 0 0 0 0 0 0 0 0 0 0 0 0 0 0 0 0 0 0 0 0 0 0 0 0 0 0 0 0 0 0 0 0 0 0 0 0 0 0 0 0 0
3.35009 1.33841e-09 7.92118e-10 5.46292e-10 0.408165 0.135506 0 0 0 0 0 0 0 0 0 0 0 0 0 0 0 0 0 0 0 0 0 0 0 0 0 0 0 0 0 0 0 0 0 0 0 0 0 0 0 0 0 0
3.52205 1.20471e-09 7.24268e-10 4.80444e-10 0.398804 0.123144 0 0 0 0 0 0 0 0 0 0 0 0 0 0 0 0 0 0 0 0 0 0 0 0 0 0 0 0 0 0 0 0 0 0 0 0 0 0 0 0 0 0
3.70284 9.95881e-10 6.09875e-10 3.86006e-10 0.387603 0.111258 0 0 0 0 0 0 0 0 0 0 0 0 0 0 0 0 0 0 0 0 0 0 0 0 0 0 0 0 0 0 0 0 0 0 0 0 0 0 0 0 0 0
3.89291 8.82936e-10 5.66908e-10 3.16028e-10 0.357929 0.100859 0 0 0 0 0 0 0 0 0 0 0 0 0 0 0 0 0 0 0 0 0 0 0 0 0 0 0 0 0 0 0 0 0 0 0 0 0 0 0 0 0 0
4.09273 7.87669e-10 5.28279e-10 2.5939e-10 0.329314 0.0915056 0 0 0 0 0 0 0 0 0 0 0 0 0 0 0 0 0 0 0 0 0 0 0 0 0 0 0 0 0 0 0 0 0 0 0 0 0 0 0 0 0 0
4.30281 7.05888e-10 4.92889e-10 2.12999e-10 0.301746 0.0830602 0 0 0 0 0 0 0 0 0 0 0 0 0 0 0 0 0 0 0 0 0 0 0 0 0 0 0 0 0 0 0 0 0 0 0 0 0 0 0 0 0 0
4.52368 6.3533e-10 4.60383e-10 1.74947e-10 0.275364 0.075426 0 0 0 0 0 0 0 0 0 0 0 0 0 0 0 0 0 0 0 0 0 0 0 0 0 0 0 0 0 0 0 0 0 0 0 0 0 0 0 0 0 0
4.75588 5.74129e-10 4.30451e-10 1.43677e-10 0.250253 0.0685106 0 0 0 0 0 0 0 0 0 0 0 0 0 0 0 0 0 0 0 0 0 0 0 0 0 0 0 0 0 0 0 0 0 0 0 0 0 0 0 0 0 0
5 5.20919e-10 4.02919e-10 1.18e-10 0.226523 0.0622426 0 0 0 0 0 0 0 0 0 0 0 0 0 0 0 0 0 0 0 0 0 0 0 0 0 0 0 0 0 0 0 0 0 0 0 0 0 0 0 0 0 0
5.25665 4.74426e-10 3.77529e-10 9.68971e-11 0.204241 0.0565527 0 0 0 0 0 0 0 0 0 0 0 0 0 0 0 0 0 0 0 0 0 0 0 0 0 0 0 0 0 0 0 0 0 0 0 0 0 0 0 0 0 0
5.52648 4.33736e-10 3.54182e-10 7.9554e-11 0.183416 0.0513811 0 0 0 0 0 0 0 0 0 0 0 0 0 0 0 0 0 0 0 0 0 0 0 0 0 0 0 0 0 0 0 0 0 0 0 0 1.4013e-45 0 2.8026e-45 0 8.40779e-45 0
5.81015 3.98338e-10 3.33062e-10 6.52765e-11 0.163872 0.0466631 0 0 0 0 0 0 0 0 0 0 0 0 0 0 0 0 0 0 0 0 0 0 0 0 0 0 0 0 0 0 2.8026e-45 0 9.80909e-45 0 3.64338e-44 0 1.1911e-43 0 3.53127e-43 0 1.00333e-42 0
6.10839 3.72169e-10 3.18669e-10 5.35e-11 0.143752 0.042311 0 0 0 0 0 0 0 0 0 0 0 0 0 0 0 0 0 0 0 0 0 0 0 0 4.2039e-45 0 2.10195e-44 0 9.3887e-44 0 3.79752e-43 0 1.33544e-42 0 4.45753e-42 0 1.34777e-41 0 3.79948e-41 0 1.02502e-40 0
6.42193 3.43555e-10 2.99289e-10 4.42655e-11 0.128846 0.0387465 0 0 0 0 0 0 0 0 0 0 0 0 0 0 0 0 0 0 1.4013e-45 0 1.26117e-44 0 8.82818e-44 0 5.0727e-43 0 2.47609e-42 0 1.04369e-41 0 3.93148e-41 0 1.30277e-40 0 4.0982e-40 0 1.17398e-39 0 3.14637e-39 0 8.08665e-39 0
6.75157 3.19538e-10 2.83342e-10 3.61957e-11 0.113275 0.0351443 0 0 0 0 0 0 0 0 0 0 0 0 0 0 1.4013e-45 0 1.82169e-44 0 1.90577e-43 0 1.58207e-42 0 9.79788e-42 0 5.14837e-41 0 2.32588e-40 0 9.1386e-40 0 3.22656e-39 0 1.00844e-38 0 2.99966e-38 0 8.16254e-38 0 2.08482e-37 0 5.11696e-37 0
7.09813 3.01762e-10 2.71901e-10 2.98615e-11 0.098957 0.0318939 0 0 0 0 0 0 0 0 0 0 0 0 7.00649e-45 0 1.56945e-43 0 2.11176e-42 0 2.03076e-41 0 1.51671e-40 0 8.59386e-40 0 4.1644e-39 0 1.74779e-38 0 6.42343e-38 0 2.13245e-37 0 6.30412e-37 0 1.778e-36 0 4.60744e-36 0 1.12414e-35 0 2.64073e-35 0
7.46248 2.79616e-10 2.55096e-10 2.45199e-11 0.0876914 0.0289145 0 0 0 0 0 0 0 0 0 0 2.24208e-44 0 8.12753e-43 0 1.61738e-41 0 1.9247e-40 0 1.65684e-39 0 1.12171e-38 0 5.8397e-38 0 2.61995e-37 0 1.02522e-36 0 3.53585e-36 0 1.10704e-35 0 3.10402e-35 0 8.32237e-35 0 2.05866e-34 0 4.80875e-34 0 1.0835e-33 0
7.84553 2.6912e-10 2.48748e-10 2.03717e-11 0.0756976 0.0265706 0 0 0 0 0 0 0 0 3.08286e-44 0 2.53355e-42 0 7.94074e-41 0 1.36571e-39 0 1.44012e-38 0 1.11601e-37 0 6.88204e-37 0 3.30554e-36 0 1.37821e-35 0 5.04556e-35 0 1.63808e-34 0 4.8507e-34 0 1.29332e-33 0 3.30457e-33 0 7.82073e-33 0 1.7527e-32 0 3.79557e-32 0
8.24824 2.38675e-10 2.21949e-10 1.67267e-11 0.0700815 0.0241863 0 0 0 0 0 0 1.12104e-44 0 3.15292e-42 0 2.11414e-40 0 5.601e-39 0 8.38377e-38 0 7.88008e-37 0 5.52565e-36 0 3.11788e-35 0 1.3871e-34 0 5.39397e-34 0 1.85347e-33 0 5.68122e-33 0 1.59548e-32 0 4.05506e-32 0 9.89728e-32 0 2.24585e-31 0 4.83872e-31 0 1.00906e-30 0
8.67162 2.25852e-10 2.12075e-10 1.3777e-11 0.0609999 0.0220283 0 0 0 0 0 0 1.24155e-42 0 2.73885e-40 0 1.49553e-38 0 3.37631e-37 0 4.42833e-36 0 3.73096e-35 0 2.3789e-34 0 1.23356e-33 0 5.10224e-33 0 1.8568e-32 0 6.00713e-32 0 1.7433e-31 0 4.65507e-31 0 1.13046e-30 0 2.64151e-30 0 5.75895e-30 0 1.19513e-29 0 2.40447e-29 0
9.11674 2.0568e-10 1.94375e-10 1.13048e-11 0.0549633 0.0200138 0 0 0 0 4.48416e-44 0 1.06714e-40 0 1.80874e-38 0 8.12429e-37 0 1.57523e-35 0 1.82207e-34 0 1.38342e-33 0 8.05802e-33 0 3.85581e-32 0 1.48803e-31 0 5.0842e-31 0 1.55321e-30 0 4.27903e-30 0 1.08911e-29 0 2.53272e-29 0 5.67792e-29 0 1.19166e-28 0 2.38642e-28 0 4.64008e-28 0
9.5847 1.92022e-10 1.82743e-10 9.27937e-12 0.0483245 0.0181754 0 0 0 0 4.61728e-42 0 7.44593e-39 0 9.82279e-37 0 3.66409e-35 0 6.14695e-34 0 6.30914e-33 0 4.33887e-32 0 2.31892e-31 0 1.02796e-30 0 3.71397e-30 0 1.19508e-29 0 3.4572e-29 0 9.06465e-29 0 2.20429e-28 0 4.91914e-28 0 1.06016e-27 0 2.14594e-27 0 4.15418e-27 0 7.81926e-27 0
10.0767 1.79958e-10 1.72335e-10 7.62357e-12 0.042363 0.0165149 0 0 0 0 3.71044e-40 0 4.17167e-37 0 4.33614e-35 0 1.35549e-33 0 1.98151e-32 0 1.81522e-31 0 1.13619e-30 0 5.59527e-30 0 2.30642e-29 0 7.82639e-29 0 2.3787e-28 0 6.53346e-28 0 1.6343e-27 0 3.80546e-27 0 8.16594e-27 0 1.69515e-26 0 3.31513e-26 0 6.21387e-26 0 1.13405e-25 0
10.5939 1.68985e-10 1.6272e-10 6.26435e-12 0.0370705 0.0150085 0 0 7.14662e-44 0 2.37354e-38 0 1.89375e-35 0 1.56909e-33 0 4.1462e-32 0 5.3171e-31 0 4.37163e-30 0 2.50193e-29 0 1.13983e-28 0 4.38456e-28 0 1.40166e-27 0 4.03505e-27 0 1.05494e-26 0 2.52333e-26 0 5.63805e-26 0 1.16557e-25 0 2.33482e-25 0 4.41899e-25 0 8.03272e-25 0 1.42356e-24 0
11.1377 1.5931e-10 1.54161e-10 5.14882e-12 0.0323195 0.0136402 0 0 6.83273e-42 0 1.22499e-36 0 7.05302e-34 0 4.71021e-32 0 1.06075e-30 0 1.20099e-29 0 8.90915e-29 0 4.68249e-28 0 1.98102e-27 0 7.13523e-27 0 2.15517e-26 0 5.89208e-26 0 1.46984e-25 0 3.36918e-25 0 7.23821e-25 0 1.44424e-24 0 2.79656e-24 0 5.13059e-24 0 9.05806e-24 0 1.56104e-23 0
11.7094 1.49658e-10 1.45422e-10 4.23591e-12 0.028304 0.0124063 1.4013e-45 0 5.15072e-40 0 5.11578e-35 0 2.15968e-32 0 1.17481e-30 0 2.2725e-29 0 2.28545e-28 0 1.53737e-27 0 7.45133e-27 0 2.93807e-26 0 9.94052e-26 0 2.84475e-25 0 7.40466e-25 0 1.76654e-24 0 3.88856e-24 0 8.04787e-24 0 1.55254e-23 0 2.91081e-23 0 5.1843e-23 0 8.90235e-23 0 1.49397e-22 0
12.3105 1.40965e-10 1.37483e-10 3.48214e-12 0.0247021 0.011276 1.13505e-43 0 3.10395e-38 0 1.75785e-33 0 5.52425e-31 0 2.47237e-29 0 4.13842e-28 0 3.71843e-27 0 2.27902e-26 0 1.02267e-25 0 3.77116e-25 0 1.2022e-24 0 3.26826e-24 0 8.11883e-24 0 1.85641e-23 0 3.93197e-23 0 7.85379e-23 0 1.46726e-22 0 2.6678e-22 0 4.61944e-22 0 7.72573e-22 0 1.26416e-21 0
