# 4.82889e-05 2 69 : grain size, compostion index, size index
# This grain was stochastically heated: No
# Heating and cooling timescale: 0.0114462 1.99345e+06
# Ratio of heating to cooling to determine stochastic cutoff: 100
# Equilibrium emission is recorded even for those grains in the stochastic regime.
# Emission spectrum was computed for: 
# Type: IRSF
# Scale: 1
# Temperature: -1
# Wavelength  CExt  CAbs  CSca  Albedo G EqEmission StEmission
0.05 1.52982e-08 5.35712e-09 9.94111e-09 0.649821 0.858353 0 0
0.0525665 1.53567e-08 5.30742e-09 1.00492e-08 0.65439 0.846443 0 0
0.0552647 1.5418e-08 5.28191e-09 1.01361e-08 0.65742 0.83656 0 0
0.0581015 1.54748e-08 5.29039e-09 1.01844e-08 0.658129 0.830484 0 0
0.0610839 1.55315e-08 5.24669e-09 1.02848e-08 0.66219 0.8222 0 0
0.0642193 1.56125e-08 5.09908e-09 1.05134e-08 0.673398 0.805062 0 0
0.0675157 1.57261e-08 4.9784e-09 1.07477e-08 0.68343 0.786449 0 0
0.0709813 1.585e-08 5.04476e-09 1.08052e-08 0.681718 0.779917 0 0
0.0746248 1.59634e-08 5.20515e-09 1.07582e-08 0.673932 0.7813 0 0
0.0784553 1.60606e-08 5.38821e-09 1.06724e-08 0.664509 0.785944 0 0
0.0824824 1.61419e-08 5.57968e-09 1.05623e-08 0.654337 0.791303 0 0
0.0867162 1.62171e-08 5.66925e-09 1.05478e-08 0.650415 0.790041 0 0
0.0911674 1.6305e-08 5.7144e-09 1.05906e-08 0.649531 0.785081 0 0
0.095847 1.63805e-08 5.80591e-09 1.05746e-08 0.645559 0.78311 0 0
0.100767 1.63895e-08 6.02824e-09 1.03613e-08 0.632189 0.792908 0 0
0.105939 1.63766e-08 6.22928e-09 1.01473e-08 0.619622 0.805789 0 0
0.111377 1.62877e-08 6.54602e-09 9.74163e-09 0.598099 0.830458 0 0
0.117094 1.62724e-08 6.90538e-09 9.36702e-09 0.575638 0.860203 0 0
0.123105 1.62962e-08 7.1643e-09 9.13193e-09 0.560371 0.881147 0 0
0.129424 1.63339e-08 7.40328e-09 8.93065e-09 0.546754 0.899704 0 0
0.136067 1.63622e-08 7.60692e-09 8.75525e-09 0.535091 0.914721 0 0
0.143051 1.63464e-08 7.75889e-09 8.58748e-09 0.525345 0.926316 0 0
0.150394 1.62348e-08 7.80531e-09 8.4295e-09 0.519224 0.933456 0 0
0.158114 1.60832e-08 7.7181e-09 8.36512e-09 0.520115 0.93348 0 0
0.16623 1.60636e-08 7.50281e-09 8.56083e-09 0.532932 0.922326 0 0
0.174762 1.62402e-08 7.19877e-09 9.04145e-09 0.556732 0.89695 0 0
0.183733 1.64927e-08 6.86822e-09 9.62449e-09 0.58356 0.863903 0 0
0.193164 1.67908e-08 6.56615e-09 1.02247e-08 0.608945 0.830773 0 0
0.203079 1.71282e-08 6.35462e-09 1.07736e-08 0.628997 0.804223 0 0
0.213503 1.7512e-08 6.22554e-09 1.12865e-08 0.644499 0.783601 0 0
0.224463 1.79286e-08 6.23279e-09 1.16958e-08 0.652355 0.770242 0 0
0.235984 1.82212e-08 6.26306e-09 1.19582e-08 0.656276 0.760589 0 0
0.248097 1.82722e-08 6.33354e-09 1.19387e-08 0.653379 0.755031 0 0
0.260832 1.81756e-08 6.44477e-09 1.17308e-08 0.645416 0.75314 0 0
0.274221 1.80542e-08 6.57213e-09 1.14821e-08 0.635977 0.752864 0 0
0.288297 1.79828e-08 6.77618e-09 1.12066e-08 0.623186 0.758009 0 0
0.303095 1.79787e-08 6.94332e-09 1.10354e-08 0.613803 0.761988 0 0
0.318653 1.79966e-08 7.09402e-09 1.09026e-08 0.605814 0.765376 0 0
0.335009 1.80418e-08 7.23574e-09 1.08061e-08 0.598946 0.768176 0 0
0.352205 1.81059e-08 7.35798e-09 1.07479e-08 0.593614 0.769583 0 0
0.370284 1.81826e-08 7.46548e-09 1.07171e-08 0.589417 0.769638 0 0
0.389291 1.82629e-08 7.55401e-09 1.07089e-08 0.586373 0.768179 0 0
0.409273 1.83494e-08 7.64119e-09 1.07083e-08 0.583574 0.766332 0 0
0.430281 1.84369e-08 7.72729e-09 1.07096e-08 0.580879 0.76409 0 0
0.452368 1.85342e-08 7.8182e-09 1.0716e-08 0.578174 0.762011 0 0
0.475588 1.86442e-08 7.91579e-09 1.07284e-08 0.575429 0.759902 0 0
0.5 1.87544e-08 8.00979e-09 1.07446e-08 0.572912 0.757074 0 0
0.525665 1.88483e-08 8.10245e-09 1.07458e-08 0.570123 0.753155 0 0
0.552647 1.89114e-08 8.19866e-09 1.07127e-08 0.56647 0.747025 0 0
0.581015 1.89667e-08 8.25604e-09 1.07107e-08 0.56471 0.738957 0 0
0.610839 1.91432e-08 8.3121e-09 1.08311e-08 0.565792 0.731552 0 0
0.642193 1.94046e-08 8.32062e-09 1.1084e-08 0.571204 0.726786 0 0
0.675157 1.98695e-08 8.35313e-09 1.15163e-08 0.5796 0.72591 0 0
0.709813 2.01131e-08 8.2875e-09 1.18256e-08 0.587956 0.71779 0 0
0.746248 2.03075e-08 8.29247e-09 1.20151e-08 0.591656 0.715916 0 0
0.784553 2.03699e-08 8.43826e-09 1.19316e-08 0.585748 0.706853 0 0
0.824824 1.96071e-08 8.06468e-09 1.15425e-08 0.588686 0.675267 0 0
0.867162 1.96721e-08 8.34368e-09 1.13285e-08 0.575863 0.651878 0 0
0.911674 1.94463e-08 8.4362e-09 1.10101e-08 0.56618 0.618271 0 0
0.95847 1.83773e-08 7.86271e-09 1.05146e-08 0.572152 0.560137 0 0
1.00767 1.93399e-08 8.25459e-09 1.10853e-08 0.573184 0.513184 0 0
1.05939 1.97233e-08 7.9431e-09 1.17802e-08 0.597273 0.497147 0 0
1.11377 2.01991e-08 7.77928e-09 1.24199e-08 0.614871 0.512275 0 0
1.17094 2.06204e-08 7.67125e-09 1.29492e-08 0.627978 0.52324 0 0
1.23105 2.27633e-08 8.14564e-09 1.46176e-08 0.642159 0.498021 1.00974e-300 0
1.29424 2.23208e-08 7.25132e-09 1.50694e-08 0.675131 0.470485 6.4728e-286 0
1.36067 2.31151e-08 6.90432e-09 1.62108e-08 0.701307 0.476853 8.25032e-272 0
1.43051 2.4403e-08 6.95845e-09 1.74445e-08 0.714852 0.488661 2.24658e-258 0
1.50394 2.62351e-08 7.25545e-09 1.89796e-08 0.723445 0.498956 1.38119e-245 0
1.58114 2.77602e-08 7.60901e-09 2.01512e-08 0.725903 0.489158 2.00749e-233 0
1.6623 2.57269e-08 7.16001e-09 1.85669e-08 0.721692 0.456116 6.60499e-222 0
1.74762 2.40991e-08 6.65606e-09 1.74431e-08 0.723805 0.423251 5.79305e-211 0
1.83733 2.37881e-08 6.42188e-09 1.73662e-08 0.730038 0.391682 1.51676e-200 0
1.93164 2.41305e-08 6.3209e-09 1.78096e-08 0.738054 0.360683 1.23852e-190 0
2.03079 2.49198e-08 6.32227e-09 1.85975e-08 0.746295 0.333926 3.32877e-181 0
2.13503 2.58166e-08 6.41131e-09 1.94053e-08 0.751659 0.315128 3.10456e-172 0
2.24463 2.58138e-08 6.50799e-09 1.93058e-08 0.747887 0.303678 1.04508e-163 0
2.35984 2.42061e-08 6.49417e-09 1.77119e-08 0.731713 0.290026 1.31085e-155 0
2.48097 2.20936e-08 6.41371e-09 1.56799e-08 0.709703 0.264266 6.46744e-148 0
2.60832 2.05647e-08 6.37904e-09 1.41856e-08 0.689806 0.227505 1.3359e-140 0
2.74221 1.95343e-08 6.39511e-09 1.31392e-08 0.672622 0.188063 1.20698e-133 0
2.88297 1.87181e-08 6.43505e-09 1.22831e-08 0.656213 0.151437 4.94723e-127 0
3.03095 1.79185e-08 6.4549e-09 1.14636e-08 0.639763 0.11936 9.49777e-121 0
3.18653 1.70307e-08 6.42663e-09 1.06041e-08 0.622645 0.0917887 8.82299e-115 0
3.35009 1.601e-08 6.3335e-09 9.67647e-09 0.604403 0.0680556 4.09649e-109 0
3.52205 1.48555e-08 6.16997e-09 8.68556e-09 0.584668 0.0475291 9.81492e-104 0
3.70284 1.36007e-08 5.93939e-09 7.66136e-09 0.563304 0.029778 1.25218e-98 0
3.89291 1.23013e-08 5.65804e-09 6.64323e-09 0.540044 0.0144224 8.78049e-94 0
4.09273 1.10089e-08 5.33833e-09 5.67052e-09 0.515088 0.00111513 3.48542e-89 0
4.30281 9.77525e-09 5.00241e-09 4.77284e-09 0.488258 -0.0103176 8.07149e-85 0
4.52368 8.63899e-09 4.66682e-09 3.97218e-09 0.459796 -0.0199706 1.12186e-80 0
4.75588 7.61741e-09 4.3425e-09 3.27491e-09 0.429925 -0.0279746 9.61041e-77 0
5 6.71387e-09 4.03369e-09 2.68018e-09 0.3992 -0.034379 5.19928e-73 0
5.25665 5.92433e-09 3.74187e-09 2.18246e-09 0.368389 -0.0395612 1.81736e-69 0
5.52648 5.24218e-09 3.47146e-09 1.77072e-09 0.337783 -0.0434996 4.19792e-66 0
5.81015 4.65412e-09 3.22187e-09 1.43225e-09 0.307739 -0.0462123 6.54199e-63 0
6.10839 4.14508e-09 2.98882e-09 1.15626e-09 0.278948 -0.0477852 7.00461e-60 0
6.42193 3.70989e-09 2.77686e-09 9.33032e-10 0.251499 -0.0485146 5.25937e-57 0
6.75157 3.32265e-09 2.57024e-09 7.52403e-10 0.226447 -0.048342 2.80252e-54 0
7.09813 2.98439e-09 2.37791e-09 6.06486e-10 0.203219 -0.0475788 1.08126e-51 0
7.46248 2.68548e-09 2.1966e-09 4.88873e-10 0.182043 -0.0462744 3.06467e-49 0
7.84553 2.41781e-09 2.02342e-09 3.94397e-10 0.163121 -0.0445985 6.47013e-47 0
8.24824 2.1774e-09 1.85911e-09 3.18293e-10 0.14618 -0.0430393 1.03219e-44 0
8.67162 1.96463e-09 1.7077e-09 2.56928e-10 0.130777 -0.0413669 1.26434e-42 0
9.11674 1.77527e-09 1.56769e-09 2.07579e-10 0.116928 -0.0395417 1.20401e-40 0
9.5847 1.60596e-09 1.43818e-09 1.67782e-10 0.104474 -0.0375728 9.02391e-39 0
10.0767 1.45317e-09 1.31752e-09 1.35656e-10 0.0933517 -0.0355636 5.38088e-37 0
10.5939 1.31495e-09 1.20526e-09 1.09685e-10 0.0834141 -0.033742 2.58148e-35 0
11.1377 1.19189e-09 1.10319e-09 8.87024e-11 0.0744218 -0.0320887 1.0089e-33 0
11.7094 1.0792e-09 1.00678e-09 7.2428e-11 0.0671124 -0.0303864 3.23315e-32 0
12.3105 9.78808e-10 9.20403e-10 5.84048e-11 0.0596693 -0.0291553 8.61815e-31 0
12.9424 8.89799e-10 8.42471e-10 4.73279e-11 0.0531895 -0.0284816 1.92707e-29 0
13.6067 8.13207e-10 7.74824e-10 3.83828e-11 0.0471993 -0.0278506 3.65927e-28 0
14.3051 7.4689e-10 7.15767e-10 3.11222e-11 0.0416691 -0.0272085 5.94698e-27 0
15.0394 6.89476e-10 6.64242e-10 2.52337e-11 0.0365983 -0.0265936 8.33846e-26 0
15.8114 6.40202e-10 6.19733e-10 2.04688e-11 0.0319724 -0.02601 1.01697e-24 0
16.623 5.98855e-10 5.82247e-10 1.66085e-11 0.0277338 -0.0256803 1.08831e-23 0
17.4762 5.65931e-10 5.52455e-10 1.34754e-11 0.023811 -0.0255498 1.03177e-22 0
18.3733 5.41612e-10 5.3068e-10 1.09316e-11 0.0201835 -0.0255166 8.7429e-22 0
19.3164 5.25576e-10 5.16693e-10 8.88276e-12 0.016901 -0.0256805 6.66978e-21 0
20.3079 5.19503e-10 5.12278e-10 7.22544e-12 0.0139084 -0.0264326 4.62903e-20 0
21.3503 5.25895e-10 5.20009e-10 5.8856e-12 0.0111916 -0.0269913 2.95479e-19 0
22.4463 5.44036e-10 5.39225e-10 4.81056e-12 0.00884235 -0.027346 1.73992e-18 0
23.5984 5.74516e-10 5.7056e-10 3.95577e-12 0.0068854 -0.0276382 9.48772e-18 0
24.8097 6.17362e-10 6.14081e-10 3.28122e-12 0.00531491 -0.0283796 4.79868e-17 0
26.0832 6.75497e-10 6.72739e-10 2.75737e-12 0.00408199 -0.0290797 2.26284e-16 0
27.4221 7.40632e-10 7.38283e-10 2.34936e-12 0.0031721 -0.0296633 9.83309e-16 0
28.8297 8.01907e-10 7.99872e-10 2.03577e-12 0.00253866 -0.0299017 3.89631e-15 0
30.3095 8.5033e-10 8.48544e-10 1.78635e-12 0.00210077 -0.0300165 1.40177e-14 0
31.8653 8.60884e-10 8.59317e-10 1.56761e-12 0.00182093 -0.0298393 4.48047e-14 0
33.5009 8.41185e-10 8.39811e-10 1.37383e-12 0.00163321 -0.0296321 1.29073e-13 0
35.2206 7.77914e-10 7.76738e-10 1.17592e-12 0.00151164 -0.0288768 3.29753e-13 0
37.0284 6.97992e-10 6.96997e-10 9.94232e-13 0.00142442 -0.0281098 7.68334e-13 0
38.9291 6.10973e-10 6.10148e-10 8.25562e-13 0.00135122 -0.0270264 1.64673e-12 0
40.9273 5.28334e-10 5.27656e-10 6.78883e-13 0.00128495 -0.025838 3.29693e-12 0
43.0282 4.56534e-10 4.55981e-10 5.53587e-13 0.00121258 -0.0243001 6.25423e-12 0
45.2368 3.9508e-10 3.9463e-10 4.49908e-13 0.00113878 -0.0225906 1.12955e-11 0
47.5588 3.45645e-10 3.45281e-10 3.64739e-13 0.00105524 -0.0193262 1.96549e-11 0
50 3.03485e-10 3.0319e-10 2.95755e-13 0.000974528 -0.0160017 3.27875e-11 0
52.5665 2.67055e-10 2.66816e-10 2.39639e-13 0.00089734 -0.0114691 5.24795e-11 0
55.2648 2.351e-10 2.34905e-10 1.94198e-13 0.000826024 -0.00674582 8.06238e-11 0
58.1015 2.06783e-10 2.06626e-10 1.57585e-13 0.000762076 -0.00201968 1.1897e-10 0
61.0839 1.81328e-10 1.812e-10 1.27922e-13 0.000705472 0.00239617 1.68582e-10 0
64.2193 1.58324e-10 1.58221e-10 1.03884e-13 0.000656145 0.00637256 2.2953e-10 0
67.5157 1.37523e-10 1.37438e-10 8.44291e-14 0.000613929 0.00963992 3.00525e-10 0
70.9813 1.18915e-10 1.18846e-10 6.86869e-14 0.000577613 0.0121657 3.7927e-10 0
74.6248 1.02304e-10 1.02248e-10 5.58976e-14 0.000546386 0.0139408 4.61832e-10 0
78.4553 8.76053e-11 8.75598e-11 4.55019e-14 0.000519397 0.0149867 5.43661e-10 0
82.4824 7.4626e-11 7.4589e-11 3.70748e-14 0.000496807 0.0152868 6.19214e-10 0
86.7162 6.34565e-11 6.34263e-11 3.02219e-14 0.000476262 0.0147093 6.85672e-10 0
91.1674 5.41423e-11 5.41176e-11 2.46399e-14 0.000455095 0.0135789 7.4296e-10 0
95.847 4.63956e-11 4.63755e-11 2.00924e-14 0.000433068 0.0122465 7.89454e-10 0
100.767 3.98547e-11 3.98383e-11 1.64e-14 0.000411494 0.0108205 8.22043e-10 0
105.939 3.44306e-11 3.44172e-11 1.33853e-14 0.000388763 0.00901305 8.42464e-10 0
111.377 2.9976e-11 2.99651e-11 1.09238e-14 0.000364419 0.00721668 8.52444e-10 0
117.094 2.65648e-11 2.65559e-11 8.91914e-15 0.00033575 0.00543477 8.61028e-10 0
123.105 2.40089e-11 2.40016e-11 7.28854e-15 0.000303577 0.00377787 8.70676e-10 0
129.424 2.21166e-11 2.21106e-11 5.9614e-15 0.000269544 0.00229241 8.81732e-10 0
136.067 2.03821e-11 2.03772e-11 4.8799e-15 0.000239421 0.00105504 8.78505e-10 0
143.051 1.85356e-11 1.85316e-11 4.00044e-15 0.000215825 1.21792e-05 8.50137e-10 0
150.394 1.65222e-11 1.65189e-11 3.27857e-15 0.000198435 -0.000907799 7.94327e-10 0
158.114 1.46575e-11 1.46548e-11 2.68301e-15 0.000183047 -0.00155918 7.28193e-10 0
166.23 1.29839e-11 1.29818e-11 2.19425e-15 0.000168997 -0.00218721 6.57627e-10 0
174.763 1.15093e-11 1.15075e-11 1.79527e-15 0.000155984 -0.00279154 5.86745e-10 0
183.733 1.03517e-11 1.03502e-11 1.46813e-15 0.000141826 -0.00317097 5.24779e-10 0
193.164 9.33367e-12 9.33247e-12 1.20032e-15 0.000128601 -0.00352832 4.65168e-10 0
203.079 8.45104e-12 8.45006e-12 9.81576e-16 0.000116149 -0.00382084 4.096e-10 0
213.503 7.70825e-12 7.70745e-12 8.03011e-16 0.000104176 -0.00397665 3.59632e-10 0
224.463 7.03332e-12 7.03267e-12 6.56799e-16 9.33839e-05 -0.00412738 3.12844e-10 0
235.984 6.41955e-12 6.41902e-12 5.37099e-16 8.36661e-05 -0.00427304 2.69767e-10 0
248.097 5.8622e-12 5.86177e-12 4.39453e-16 7.49638e-05 -0.00441346 2.30749e-10 0
260.832 5.38095e-12 5.38059e-12 3.59581e-16 6.68248e-05 -0.00443097 1.96802e-10 0
274.221 4.94306e-12 4.94277e-12 2.94159e-16 5.95094e-05 -0.00442646 1.66711e-10 0
288.297 4.54047e-12 4.54023e-12 2.40608e-16 5.29918e-05 -0.00442193 1.40205e-10 0
303.095 4.17372e-12 4.17352e-12 1.96938e-16 4.71853e-05 -0.00439888 1.17211e-10 0
318.653 3.84433e-12 3.84417e-12 1.61158e-16 4.1921e-05 -0.00430681 9.7569e-11 0
335.009 3.54001e-12 3.53988e-12 1.31845e-16 3.72444e-05 -0.00421908 8.07183e-11 0
352.206 3.25946e-12 3.25935e-12 1.07887e-16 3.30996e-05 -0.00413557 6.64013e-11 0
370.284 3.00379e-12 3.0037e-12 8.83096e-17 2.93994e-05 -0.00399876 5.43878e-11 0
389.291 2.76764e-12 2.76757e-12 7.22664e-17 2.61112e-05 -0.00386196 4.4322e-11 0
409.273 2.54939e-12 2.54933e-12 5.91237e-17 2.31913e-05 -0.00373229 3.59444e-11 0
430.282 2.34801e-12 2.34796e-12 4.83964e-17 2.06117e-05 -0.00356635 2.90209e-11 0
452.368 2.16184e-12 2.1618e-12 3.96138e-17 1.83241e-05 -0.00339982 2.33294e-11 0
475.588 1.98984e-12 1.9898e-12 3.24168e-17 1.62912e-05 -0.00324313 1.86776e-11 0
500 1.83107e-12 1.83105e-12 2.65238e-17 1.44854e-05 -0.00309504 1.48969e-11 0
525.665 1.68171e-12 1.68169e-12 2.17157e-17 1.29128e-05 -0.0029025 1.1819e-11 0
552.648 1.54395e-12 1.54393e-12 1.77742e-17 1.15122e-05 -0.00272244 9.34431e-12 0
581.015 1.41702e-12 1.41701e-12 1.45445e-17 1.02641e-05 -0.00255444 7.36389e-12 0
610.838 1.30031e-12 1.3003e-12 1.1904e-17 9.15475e-06 -0.00239777 5.7863e-12 0
642.193 1.19307e-12 1.19306e-12 9.74539e-18 8.1683e-06 -0.00225162 4.53449e-12 0
675.157 1.09449e-12 1.09448e-12 7.97605e-18 7.28749e-06 -0.00211503 3.54427e-12 0
709.813 1.00282e-12 1.00282e-12 6.52635e-18 6.50798e-06 -0.00197841 2.76065e-12 0
746.247 9.16215e-13 9.16209e-13 5.34301e-18 5.83162e-06 -0.0018292 2.13959e-12 0
784.553 8.36947e-13 8.36942e-13 4.37386e-18 5.22597e-06 -0.00169122 1.65465e-12 0
824.824 7.64398e-13 7.64394e-13 3.57956e-18 4.68285e-06 -0.00156348 1.27699e-12 0
867.162 6.9805e-13 6.98047e-13 2.92917e-18 4.19622e-06 -0.00144523 9.83666e-13 0
911.674 6.37512e-13 6.3751e-13 2.39833e-18 3.76202e-06 -0.00133587 7.56521e-13 0
958.471 5.82166e-13 5.82164e-13 1.96315e-18 3.37215e-06 -0.00123446 5.80858e-13 0
1007.67 5.31337e-13 5.31335e-13 1.6065e-18 3.0235e-06 -0.00113916 4.45089e-13 0
1059.39 4.83718e-13 4.83717e-13 1.31497e-18 2.71847e-06 -0.0010449 3.39721e-13 0
1113.77 4.40391e-13 4.4039e-13 1.07659e-18 2.44462e-06 -0.000958099 2.58973e-13 0
1170.94 4.00914e-13 4.00913e-13 8.81149e-19 2.19785e-06 -0.000878019 1.97161e-13 0
1231.05 3.64433e-13 3.64432e-13 7.21032e-19 1.9785e-06 -0.000803531 1.49706e-13 0
1294.24 3.31185e-13 3.31184e-13 5.90336e-19 1.7825e-06 -0.000734404 1.1352e-13 0
1360.67 3.01022e-13 3.01021e-13 4.83263e-19 1.60541e-06 -0.000670808 8.60065e-14 0
1430.51 2.73602e-13 2.73602e-13 3.95509e-19 1.44556e-06 -0.000612281 6.50974e-14 0
1503.94 2.48658e-13 2.48658e-13 3.23663e-19 1.30164e-06 -0.000558413 4.92225e-14 0
1581.14 2.25579e-13 2.25578e-13 2.65016e-19 1.17483e-06 -0.000508988 3.71193e-14 0
1662.3 2.04638e-13 2.04638e-13 2.16935e-19 1.06009e-06 -0.000463639 2.7969e-14 0
1747.63 1.85643e-13 1.85642e-13 1.77526e-19 9.56279e-07 -0.00042201 2.10582e-14 0
1837.33 1.68439e-13 1.68439e-13 1.45314e-19 8.6271e-07 -0.000383832 1.58462e-14 0
1931.64 1.52857e-13 1.52857e-13 1.18973e-19 7.78326e-07 -0.000348791 1.19182e-14 0
2030.79 1.3851e-13 1.3851e-13 9.73783e-20 7.0304e-07 -0.000316988 8.94474e-15 0
2135.03 1.25107e-13 1.25106e-13 7.96823e-20 6.36915e-07 -0.000288884 6.68741e-15 0
2244.63 1.13075e-13 1.13075e-13 6.52411e-20 5.76973e-07 -0.000263405 5.0002e-15 0
2359.84 1.02238e-13 1.02238e-13 5.34093e-20 5.22401e-07 -0.000240239 3.73801e-15 0
2480.97 9.2465e-14 9.24649e-14 4.37111e-20 4.72732e-07 -0.000219159 2.79372e-15 0
2608.32 8.3651e-14 8.3651e-14 3.5772e-20 4.27634e-07 -0.000199982 2.08759e-15 0
2742.21 7.57082e-14 7.57082e-14 2.92899e-20 3.86879e-07 -0.00018255 1.55985e-15 0
2882.96 6.85284e-14 6.85284e-14 2.39759e-20 3.49868e-07 -0.000166663 1.16517e-15 0
3030.95 6.20344e-14 6.20344e-14 1.96206e-20 3.16286e-07 -0.000152175 8.70048e-16 0
3186.53 5.61671e-14 5.61671e-14 1.60608e-20 2.85947e-07 -0.000138977 6.49558e-16 0
3350.09 5.08616e-14 5.08616e-14 1.31493e-20 2.58531e-07 -0.000126944 4.84829e-16 0
3522.05 4.60558e-14 4.60558e-14 1.07627e-20 2.33688e-07 -0.000115954 3.61736e-16 0
3702.84 4.17011e-14 4.17011e-14 8.80687e-21 2.1119e-07 -0.00010591 2.69785e-16 0
3892.91 3.77643e-14 3.77643e-14 7.21077e-21 1.90942e-07 -9.67498e-05 2.01177e-16 0
4092.73 3.41964e-14 3.41964e-14 5.90307e-21 1.72622e-07 -8.83712e-05 1.49959e-16 0
4302.81 3.09613e-14 3.09613e-14 4.8312e-21 1.5604e-07 -8.07034e-05 1.11734e-16 0
4523.68 2.80297e-14 2.80297e-14 3.95376e-21 1.41056e-07 -7.36833e-05 8.3222e-17 0
4755.88 2.53775e-14 2.53775e-14 3.23731e-21 1.27566e-07 -6.72642e-05 6.19744e-17 0
5000 2.29724e-14 2.29724e-14 2.64996e-21 1.15354e-07 -6.13801e-05 4.61326e-17 0
