# 3.94133e-08 1 1 : grain size, compostion index, size index
# Heating and cooling timescale: 1.22447e+06 0.0498951
# Ratio of heating to cooling to determine stochastic cutoff: 100
# Equilibrium emission is recorded even for those grains in the stochastic regime.
# Emission spectrum was computed for: 
# Type: IRSF
# Scales: 0.5 1 2 5 10
# StochasticallyHeated: 1 1 1 1 1
# Temperature: -1
# Wavelength  CExt  CAbs  CSca  Albedo G EqEm1 StEm1 EqEm2 StEm2 EqEm3 StEm3 EqEm4 StEm4 EqEm5 StEm5
0.05 2.60276e-16 2.60264e-16 1.21855e-20 4.68175e-05 0.000339431 0 0 0 0 0 0 0 0 0 0
0.0525665 3.01425e-16 3.01412e-16 1.30638e-20 4.334e-05 0.000302358 0 0 0 0 0 0 0 0 0 0
0.0552647 3.47822e-16 3.47808e-16 1.39937e-20 4.02323e-05 0.000269245 0 0 0 0 0 0 0 0 0 0
0.0581015 3.94673e-16 3.94658e-16 1.47601e-20 3.73982e-05 0.000239632 0 0 0 0 0 0 0 0 0 0
0.0610839 4.47366e-16 4.4735e-16 1.56902e-20 3.50724e-05 0.00021105 0 0 0 0 0 0 0 0 0 0
0.0642193 5.22384e-16 5.22366e-16 1.74758e-20 3.3454e-05 0.000182537 0 0 0 0 0 0 0 0 0 2.8026e-45
0.0675157 6.36049e-16 6.36029e-16 2.05264e-20 3.22718e-05 0.00015381 0 0 0 0 0 0 0 1.12104e-44 0 6.44597e-44
0.0709813 7.05363e-16 7.05341e-16 2.11735e-20 3.00179e-05 0.000128956 0 0 0 0 0 0 0 1.97583e-43 0 1.05798e-42
0.0746248 6.70162e-16 6.70144e-16 1.84752e-20 2.75683e-05 0.000111247 0 0 0 2.8026e-45 0 2.94273e-44 0 2.92451e-42 0 1.36921e-41
0.0784553 5.71331e-16 5.71317e-16 1.43246e-20 2.50723e-05 9.94657e-05 0 4.2039e-45 0 1.38729e-43 0 1.15047e-42 0 4.38116e-41 0 1.60942e-40
0.0824824 4.5912e-16 4.5911e-16 1.00748e-20 2.19437e-05 9.29951e-05 0 1.70958e-43 0 4.56963e-42 0 3.43136e-41 0 7.43145e-40 0 2.05772e-39
0.0867162 4.01141e-16 4.01133e-16 7.76436e-21 1.93557e-05 8.9308e-05 0 5.86724e-42 0 1.35136e-40 0 9.24727e-40 0 1.47653e-38 0 3.38421e-38
0.0911674 3.53357e-16 3.5335e-16 6.51331e-21 1.84327e-05 8.67327e-05 0 1.68321e-40 0 3.36303e-39 0 2.10809e-38 0 2.79952e-37 0 5.89312e-37
0.095847 2.77235e-16 2.7723e-16 5.16777e-21 1.86404e-05 9.14547e-05 0 3.5957e-39 0 6.27696e-38 0 3.6223e-37 0 4.20233e-36 0 8.5661e-36
0.100767 1.91085e-16 1.91082e-16 3.52638e-21 1.84545e-05 0.000106665 0 5.69104e-38 0 8.74076e-37 0 4.6657e-36 0 4.83339e-35 0 9.73782e-35
0.105939 1.25287e-16 1.25285e-16 2.44345e-21 1.95028e-05 0.000115066 0 7.28651e-37 0 9.91161e-36 0 4.91594e-35 0 4.60318e-34 0 9.23385e-34
0.111377 7.58338e-17 7.58323e-17 1.49487e-21 1.97125e-05 0.000131687 0 7.38243e-36 0 8.95013e-35 0 4.14244e-34 0 3.53605e-33 0 7.08136e-33
0.117094 5.81191e-17 5.81181e-17 9.32169e-22 1.60389e-05 0.00012058 0 8.17981e-35 0 8.89178e-34 0 3.85621e-33 0 3.02166e-32 0 6.04715e-32
0.123105 4.55827e-17 4.55821e-17 6.07457e-22 1.33265e-05 0.000103446 0 8.06852e-34 0 7.90935e-33 0 3.22666e-32 0 2.33515e-31 0 4.67191e-31
0.129424 3.82791e-17 3.82787e-17 3.90795e-22 1.02091e-05 8.69992e-05 0 7.46404e-33 0 6.63425e-32 0 2.55541e-31 0 1.71757e-30 0 3.43588e-30
0.136067 3.62815e-17 3.62812e-17 2.53203e-22 6.97886e-06 7.36083e-05 0 6.8706e-32 0 5.56597e-31 0 2.03143e-30 0 1.27463e-29 0 2.54966e-29
0.143051 3.7651e-17 3.76508e-17 1.66318e-22 4.41735e-06 6.27894e-05 0 6.14253e-31 0 4.55798e-30 0 1.58157e-29 0 9.30848e-29 0 1.86193e-28
0.150394 4.34571e-17 4.3457e-17 1.1331e-22 2.6074e-06 5.35989e-05 0 5.45024e-30 0 3.72194e-29 0 1.23177e-28 0 6.83072e-28 0 1.36629e-27
0.158114 5.27589e-17 5.27588e-17 8.56956e-23 1.62429e-06 4.5898e-05 0 4.56447e-29 0 2.88154e-28 0 9.12328e-28 0 4.78679e-27 0 9.57449e-27
0.16623 6.60929e-17 6.60928e-17 7.91606e-23 1.19772e-06 3.94569e-05 0 3.55844e-28 0 2.08561e-27 0 6.33551e-27 0 3.15733e-26 0 6.3152e-26
0.174762 8.65288e-17 8.65287e-17 9.53831e-23 1.10233e-06 3.39264e-05 0 2.62875e-27 0 1.43626e-26 0 4.19754e-26 0 1.99413e-25 0 3.98858e-25
0.183733 1.16176e-16 1.16176e-16 1.36206e-22 1.17241e-06 2.88949e-05 0 1.81452e-26 0 9.27777e-26 0 2.61546e-25 0 1.18849e-24 0 2.37717e-24
0.193164 1.61269e-16 1.61268e-16 2.16356e-22 1.34159e-06 2.40446e-05 0 1.18526e-25 0 5.69244e-25 0 1.55173e-24 0 6.76594e-24 0 1.35328e-23
0.203079 2.13114e-16 2.13114e-16 3.30167e-22 1.54925e-06 1.92815e-05 0 6.77576e-25 0 3.06742e-24 0 8.10438e-24 0 3.40073e-23 0 6.80191e-23
0.213503 2.30052e-16 2.30051e-16 4.05074e-22 1.7608e-06 1.48294e-05 0 2.92094e-24 0 1.25061e-23 0 3.20965e-23 0 1.29969e-22 0 2.59955e-22
0.224463 1.76669e-16 1.76669e-16 3.36471e-22 1.90453e-06 1.09793e-05 0 8.30224e-24 0 3.37261e-23 0 8.42549e-23 0 3.30081e-22 0 6.60201e-22
0.235984 1.2043e-16 1.2043e-16 2.28226e-22 1.8951e-06 7.83593e-06 0 1.94864e-23 0 7.53334e-23 0 1.83556e-22 0 6.97378e-22 0 1.39483e-21
0.248097 8.54775e-17 8.54774e-17 1.47719e-22 1.72816e-06 6.00262e-06 0 4.44628e-23 0 1.64054e-22 0 3.90597e-22 0 1.44232e-21 0 2.8848e-21
0.260832 6.7546e-17 6.75459e-17 1.01447e-22 1.5019e-06 6.24662e-06 0 1.05817e-22 0 3.73657e-22 0 8.70832e-22 0 3.13181e-21 0 6.26394e-21
0.274221 5.57306e-17 5.57305e-17 7.31719e-23 1.31296e-06 8.35315e-06 0 2.47138e-22 0 8.37357e-22 0 1.91342e-21 0 6.71472e-21 0 1.34301e-20
0.288297 4.81653e-17 4.81653e-17 5.45387e-23 1.13232e-06 1.12067e-05 0 5.70026e-22 0 1.85777e-21 0 4.16871e-21 0 1.43004e-20 0 2.86021e-20
0.303095 4.23655e-17 4.23655e-17 4.20273e-23 9.92018e-07 1.25649e-05 0 1.2653e-21 0 3.97588e-21 0 8.77377e-21 0 2.94697e-20 0 5.89419e-20
0.318653 3.74032e-17 3.74032e-17 3.27255e-23 8.74939e-07 1.31099e-05 0 2.67324e-21 0 8.11682e-21 0 1.76391e-20 0 5.80992e-20 0 1.16203e-19
0.335009 3.35391e-17 3.3539e-17 2.57764e-23 7.68549e-07 1.28918e-05 0 5.45408e-21 0 1.60359e-20 0 3.43618e-20 0 1.11144e-19 0 2.22298e-19
0.352205 3.05535e-17 3.05535e-17 2.05534e-23 6.72702e-07 1.22324e-05 0 1.07766e-20 0 3.07425e-20 0 6.50335e-20 0 2.0684e-19 0 4.13695e-19
0.370284 2.80587e-17 2.80587e-17 1.65337e-23 5.89253e-07 1.14358e-05 0 2.0512e-20 0 5.68817e-20 0 1.18925e-19 0 3.72372e-19 0 7.4477e-19
0.389291 2.57113e-17 2.57113e-17 1.34024e-23 5.21265e-07 1.06617e-05 0 3.73139e-20 0 1.00766e-19 0 2.08435e-19 0 6.43234e-19 0 1.28651e-18
0.409273 2.3467e-17 2.3467e-17 1.08966e-23 4.64338e-07 9.9103e-06 0 6.49038e-20 0 1.70973e-19 0 3.50239e-19 0 1.06635e-18 0 2.13277e-18
0.430281 2.13179e-17 2.13179e-17 8.86808e-24 4.15993e-07 9.19643e-06 0 1.08097e-19 0 2.78211e-19 0 5.64926e-19 0 1.69853e-18 0 3.39716e-18
0.452368 1.94688e-17 1.94688e-17 7.21615e-24 3.70652e-07 8.45909e-06 0 1.74485e-19 0 4.39411e-19 0 8.85195e-19 0 2.63053e-18 0 5.2612e-18
0.475588 1.77947e-17 1.77947e-17 5.87581e-24 3.302e-07 7.75291e-06 0 2.72274e-19 0 6.71873e-19 0 1.34386e-18 0 3.95025e-18 0 7.9007e-18
0.5 1.63779e-17 1.63779e-17 4.79702e-24 2.92897e-07 7.07548e-06 0 4.14048e-19 0 1.00248e-18 0 1.99236e-18 0 5.7972e-18 0 1.15947e-17
0.525665 1.51547e-17 1.51547e-17 3.9205e-24 2.58698e-07 6.43492e-06 0 6.13761e-19 0 1.45988e-18 0 2.88495e-18 0 8.31484e-18 0 1.66301e-17
0.552647 1.40005e-17 1.40005e-17 3.20533e-24 2.28944e-07 5.85144e-06 0 8.82282e-19 0 2.06411e-18 0 4.05854e-18 0 1.15934e-17 0 2.31873e-17
0.581015 1.30417e-17 1.30417e-17 2.63339e-24 2.0192e-07 5.3092e-06 0 1.24426e-18 0 2.86636e-18 0 5.61118e-18 0 1.58948e-17 0 3.17903e-17
0.610839 1.21269e-17 1.21269e-17 2.16413e-24 1.78457e-07 4.81802e-06 0 1.70712e-18 0 3.87648e-18 0 7.55967e-18 0 2.12461e-17 0 4.2493e-17
0.642193 1.1253e-17 1.1253e-17 1.7782e-24 1.58019e-07 4.37248e-06 0 2.28162e-18 0 5.11223e-18 0 9.93708e-18 0 2.77206e-17 0 5.54424e-17
0.675157 1.04439e-17 1.04439e-17 1.46276e-24 1.40059e-07 3.97e-06 0 2.98188e-18 0 6.59882e-18 0 1.27917e-17 0 3.54337e-17 0 7.08687e-17
0.709813 9.69609e-18 9.69609e-18 1.20531e-24 1.24309e-07 3.60904e-06 0 3.817e-18 0 8.35036e-18 0 1.61509e-17 0 4.44416e-17 0 8.88847e-17
0.746248 8.99353e-18 8.99353e-18 9.93356e-25 1.10452e-07 3.2865e-06 0 4.78647e-18 0 1.03607e-17 0 2.0004e-17 0 5.46964e-17 0 1.09395e-16
0.784553 8.32642e-18 8.32642e-18 8.18415e-25 9.82913e-08 2.99358e-06 0 5.88239e-18 0 1.2609e-17 0 2.43132e-17 0 6.60802e-17 0 1.32163e-16
0.824824 7.70301e-18 7.70301e-18 6.74134e-25 8.75156e-08 2.73079e-06 0 7.10188e-18 0 1.50872e-17 0 2.90661e-17 0 7.8547e-17 0 1.57096e-16
0.867162 7.11987e-18 7.11986e-18 5.55489e-25 7.80196e-08 2.49419e-06 0 8.43202e-18 0 1.77671e-17 0 3.42121e-17 0 9.19515e-17 0 1.83906e-16
0.911674 6.57208e-18 6.57208e-18 4.57486e-25 6.96105e-08 2.28027e-06 0 9.85199e-18 0 2.06056e-17 0 3.96727e-17 0 1.06078e-16 0 2.12159e-16
0.95847 6.06472e-18 6.06472e-18 3.76459e-25 6.20736e-08 2.08846e-06 0 1.13515e-17 0 2.35834e-17 0 4.54148e-17 0 1.20837e-16 0 2.41677e-16
1.00767 5.5905e-18 5.5905e-18 3.09805e-25 5.54164e-08 1.91434e-06 0 1.28997e-17 0 2.66396e-17 0 5.13249e-17 0 1.35929e-16 0 2.71863e-16
1.05939 5.15876e-18 5.15876e-18 2.54846e-25 4.94005e-08 1.7564e-06 0 1.45008e-17 0 2.97867e-17 0 5.74307e-17 0 1.51435e-16 0 3.02874e-16
1.11377 4.75306e-18 4.75306e-18 2.09571e-25 4.40918e-08 1.61259e-06 0 1.60954e-17 0 3.29065e-17 0 6.35064e-17 0 1.66766e-16 0 3.33537e-16
1.17094 4.39305e-18 4.39305e-18 1.72265e-25 3.92131e-08 1.47859e-06 0 1.77349e-17 0 3.61089e-17 0 6.97652e-17 0 1.82495e-16 0 3.64996e-16
1.23105 4.06116e-18 4.06116e-18 1.41665e-25 3.4883e-08 1.35569e-06 0 1.93537e-17 0 3.92632e-17 0 7.59556e-17 0 1.97973e-16 0 3.95952e-16
1.29424 3.75344e-18 3.75344e-18 1.16538e-25 3.10484e-08 1.24254e-06 0 2.09188e-17 0 4.2307e-17 0 8.19559e-17 0 2.12897e-16 0 4.25801e-16
1.36067 3.46891e-18 3.46891e-18 9.5812e-26 2.76202e-08 1.13955e-06 0 2.24103e-17 0 4.52035e-17 0 8.76925e-17 0 2.27093e-16 0 4.54193e-16
1.43051 3.20633e-18 3.20633e-18 7.87354e-26 2.45562e-08 1.04559e-06 0 2.38094e-17 0 4.79178e-17 0 9.30952e-17 0 2.40394e-16 0 4.80795e-16
1.50394 2.96792e-18 2.96792e-18 6.47259e-26 2.18085e-08 9.59046e-07 0 2.51296e-17 0 5.04794e-17 0 9.82175e-17 0 2.52954e-16 0 5.05915e-16
1.58114 2.75029e-18 2.75029e-18 5.32099e-26 1.9347e-08 8.78186e-07 0 2.63491e-17 0 5.28459e-17 0 1.02974e-16 0 2.64565e-16 0 5.29136e-16
1.6623 2.54901e-18 2.54901e-18 4.37473e-26 1.71624e-08 8.03116e-07 0 2.74295e-17 0 5.49416e-17 0 1.07213e-16 0 2.74848e-16 0 5.49703e-16
1.74762 2.35955e-18 2.35955e-18 3.59714e-26 1.5245e-08 7.35475e-07 0 2.83189e-17 0 5.66631e-17 0 1.10729e-16 0 2.83288e-16 0 5.66584e-16
1.83733 2.18465e-18 2.18465e-18 2.95745e-26 1.35374e-08 6.73545e-07 0 2.90469e-17 0 5.80702e-17 0 1.13633e-16 0 2.90185e-16 0 5.80377e-16
1.93164 2.02261e-18 2.02261e-18 2.43058e-26 1.20171e-08 6.17148e-07 0 2.95999e-17 0 5.91356e-17 0 1.15868e-16 0 2.954e-16 0 5.90808e-16
2.03079 1.8741e-18 1.8741e-18 1.99712e-26 1.06564e-08 5.64483e-07 0 3.00009e-17 0 5.9905e-17 0 1.17521e-16 0 2.9916e-16 0 5.98328e-16
2.13503 1.73588e-18 1.73588e-18 1.64224e-26 9.46057e-09 5.16303e-07 0 3.02161e-17 0 6.031e-17 0 1.18455e-16 0 3.01121e-16 0 6.02249e-16
2.24463 1.60688e-18 1.60688e-18 1.3498e-26 8.40014e-09 4.72508e-07 0 3.02407e-17 0 6.03408e-17 0 1.18646e-16 0 3.01231e-16 0 6.02468e-16
2.35984 1.48866e-18 1.48866e-18 1.10902e-26 7.44978e-09 4.32161e-07 0 3.01232e-17 0 6.00929e-17 0 1.18282e-16 0 2.99964e-16 0 5.99935e-16
2.48097 1.3796e-18 1.3796e-18 9.1103e-27 6.60356e-09 3.94701e-07 0 2.98569e-17 0 5.95527e-17 0 1.17333e-16 0 2.9725e-16 0 5.94506e-16
2.60832 1.27784e-18 1.27784e-18 7.49017e-27 5.86157e-09 3.60124e-07 0 2.94251e-17 0 5.86857e-17 0 1.15729e-16 0 2.92914e-16 0 5.85834e-16
2.74221 1.18208e-18 1.18208e-18 6.15602e-27 5.20778e-09 3.29151e-07 0 2.88183e-17 0 5.74724e-17 0 1.13433e-16 0 2.86856e-16 0 5.73719e-16
2.88297 1.09357e-18 1.09357e-18 5.05562e-27 4.62304e-09 3.00356e-07 0 2.80888e-17 0 5.60166e-17 0 1.10647e-16 0 2.79593e-16 0 5.59193e-16
3.03095 1.01073e-18 1.01073e-18 4.15266e-27 4.10858e-09 2.75257e-07 0 2.72219e-17 0 5.42884e-17 0 1.07311e-16 0 2.70974e-16 0 5.41953e-16
3.18653 9.34445e-19 9.34445e-19 3.41155e-27 3.65088e-09 2.51332e-07 0 2.62666e-17 0 5.23848e-17 0 1.03618e-16 0 2.61481e-16 0 5.22967e-16
3.35009 8.63854e-19 8.63854e-19 2.80176e-27 3.24333e-09 2.29045e-07 0 2.52263e-17 0 5.03124e-17 0 9.95812e-17 0 2.51146e-16 0 5.02297e-16
3.52205 7.98306e-19 7.98306e-19 2.29988e-27 2.88095e-09 2.07877e-07 0 2.4108e-17 0 4.80849e-17 0 9.52274e-17 0 2.40037e-16 0 4.80079e-16
3.70284 7.37758e-19 7.37758e-19 1.88872e-27 2.56009e-09 1.90222e-07 0 2.29359e-17 0 4.57501e-17 0 9.06518e-17 0 2.28392e-16 0 4.56788e-16
3.89291 6.82231e-19 6.82231e-19 1.55051e-27 2.2727e-09 1.73729e-07 0 2.17362e-17 0 4.33601e-17 0 8.59582e-17 0 2.1647e-16 0 4.32944e-16
4.09273 6.31003e-19 6.31003e-19 1.27267e-27 2.01691e-09 1.58463e-07 0 2.05105e-17 0 4.0918e-17 0 8.11534e-17 0 2.04287e-16 0 4.08576e-16
4.30281 5.83095e-19 5.83095e-19 1.04442e-27 1.79116e-09 1.438e-07 0 1.92495e-17 0 3.84052e-17 0 7.62013e-17 0 1.91749e-16 0 3.835e-16
4.52368 5.38657e-19 5.38657e-19 8.57355e-28 1.59165e-09 1.302e-07 0 1.79792e-17 0 3.58735e-17 0 7.1205e-17 0 1.79115e-16 0 3.58231e-16
4.75588 4.97555e-19 4.97555e-19 7.03526e-28 1.41397e-09 1.19603e-07 0 1.67153e-17 0 3.33542e-17 0 6.62275e-17 0 1.66541e-16 0 3.33084e-16
5 4.60226e-19 4.60226e-19 5.77132e-28 1.25402e-09 1.06822e-07 0 1.54917e-17 0 3.09146e-17 0 6.14032e-17 0 1.54365e-16 0 3.08731e-16
5.25665 4.24562e-19 4.24562e-19 4.73551e-28 1.11539e-09 9.70419e-08 0 1.42547e-17 0 2.8448e-17 0 5.65204e-17 0 1.42052e-16 4.2039e-45 2.84104e-16
5.52648 3.91197e-19 3.91197e-19 3.88536e-28 9.93198e-10 8.86857e-08 0 1.30417e-17 0 2.6029e-17 0 5.17282e-17 0 1.29975e-16 2.22806e-43 2.59951e-16
5.81015 3.60599e-19 3.60599e-19 3.18579e-28 8.83473e-10 7.87695e-08 0 1.18829e-17 0 2.37177e-17 0 4.71464e-17 1.4013e-45 1.18435e-16 8.73289e-42 2.36872e-16
6.10839 3.32708e-19 3.32708e-19 2.61149e-28 7.84922e-10 7.05975e-08 0 1.07885e-17 0 2.15345e-17 0 4.28163e-17 7.56701e-44 1.07535e-16 2.82621e-40 2.1507e-16
6.42193 3.0618e-19 3.0618e-19 2.14071e-28 6.99169e-10 6.73926e-08 0 9.72576e-18 0 1.94142e-17 0 3.86085e-17 3.03241e-42 9.69479e-17 7.57536e-39 1.93896e-16
6.75157 2.82804e-19 2.82804e-19 1.75504e-28 6.20587e-10 5.65736e-08 0 8.76066e-18 0 1.74886e-17 1.4013e-45 3.47855e-17 1.00166e-40 8.73323e-17 1.70757e-37 1.74664e-16
7.09813 2.60938e-19 2.60938e-19 1.43805e-28 5.51108e-10 5.0344e-08 0 7.84805e-18 0 1.56675e-17 5.60519e-44 3.11687e-17 2.74154e-39 7.82385e-17 3.24986e-36 1.56477e-16
7.46248 2.4101e-19 2.4101e-19 1.17795e-28 4.88758e-10 4.70173e-08 0 7.00678e-18 0 1.39887e-17 2.18883e-42 2.78331e-17 6.28793e-38 6.98546e-17 5.27595e-35 1.39709e-16
7.84553 2.23037e-19 2.23037e-19 9.65255e-29 4.32779e-10 3.9446e-08 0 6.24056e-18 1.4013e-44 1.24594e-17 7.01238e-41 2.47939e-17 1.22029e-36 6.22177e-17 7.37063e-34 1.24435e-16
8.24824 2.06144e-19 2.06144e-19 7.907e-29 3.83567e-10 3.91569e-08 0 5.52719e-18 5.54914e-43 1.10356e-17 1.86408e-39 2.19634e-17 2.01383e-35 5.51071e-17 8.89779e-33 1.10214e-16
8.67162 1.90494e-19 1.90494e-19 6.4728e-29 3.3979e-10 2.89851e-08 2.8026e-45 4.87361e-18 1.83598e-41 9.73097e-18 4.15399e-38 1.93692e-17 2.8516e-34 4.85919e-17 9.35827e-32 9.71832e-17
9.11674 1.76377e-19 1.76377e-19 5.2987e-29 3.00419e-10 2.55536e-08 1.26117e-43 4.28768e-18 5.05481e-40 8.56133e-18 7.84345e-37 1.70429e-17 3.49793e-33 4.27506e-17 8.65112e-31 8.55007e-17
9.5847 1.63834e-19 1.63834e-19 4.33582e-29 2.64646e-10 2.24848e-08 4.36504e-42 3.76878e-18 1.16872e-38 7.52544e-18 1.26685e-35 1.49823e-17 3.74847e-32 3.75773e-17 7.0838e-30 7.5154e-17
10.0767 1.52778e-19 1.52778e-19 3.54635e-29 2.32125e-10 1.70119e-08 1.25779e-40 3.31212e-18 2.29047e-37 6.61376e-18 1.76506e-34 1.31685e-17 3.5352e-31 3.30244e-17 5.1723e-29 6.60481e-17
10.5939 1.43028e-19 1.43028e-19 2.89846e-29 2.02649e-10 1.67199e-08 3.03983e-39 2.91062e-18 3.83692e-36 5.81217e-18 2.13731e-33 1.15734e-17 2.9534e-30 2.90212e-17 3.38746e-28 5.80417e-17
11.1377 1.34892e-19 1.34892e-19 2.36713e-29 1.75483e-10 1.99298e-08 6.23803e-38 2.56667e-18 5.5561e-35 5.12545e-18 2.27295e-32 1.02068e-17 2.20655e-29 2.55917e-17 2.00775e-27 5.11827e-17
11.7094 1.26297e-19 1.26297e-19 1.95123e-29 1.54495e-10 2.41392e-08 1.08009e-36 2.23839e-18 6.90506e-34 4.46999e-18 2.10605e-31 8.9021e-18 1.46134e-28 2.23183e-17 1.06684e-26 4.46361e-17
12.3105 1.20447e-19 1.20447e-19 1.58655e-29 1.31722e-10 8.21369e-09 1.63199e-35 1.98095e-18 7.61091e-33 3.95597e-18 1.75567e-30 7.87892e-18 8.85119e-28 1.97513e-17 5.24052e-26 3.95021e-17
12.9424 1.15144e-19 1.15144e-19 1.2955e-29 1.12511e-10 7.74705e-09 2.13361e-34 1.75094e-18 7.37119e-32 3.49669e-18 1.30369e-29 6.9646e-18 4.85046e-27 1.74577e-17 2.353e-25 3.49149e-17
13.6067 1.10906e-19 1.10906e-19 1.05786e-29 9.53841e-11 -1.00037e-08 2.44356e-33 1.55378e-18 6.34611e-31 3.10301e-18 8.71775e-29 6.18081e-18 2.42943e-26 1.54917e-17 9.75067e-25 3.09829e-17
14.3051 1.08035e-19 1.08035e-19 8.63134e-30 7.98941e-11 2.54329e-10 2.47749e-32 1.38965e-18 4.90471e-30 2.77525e-18 5.29822e-28 5.52823e-18 1.12164e-25 1.38549e-17 3.75916e-24 2.77093e-17
15.0394 1.06573e-19 1.06573e-19 7.03833e-30 6.60425e-11 -2.02552e-08 2.24133e-31 1.25438e-18 3.42749e-29 2.50515e-18 2.94583e-27 4.99041e-18 4.80152e-25 1.2506e-17 1.35565e-23 2.50116e-17
15.8114 1.06825e-19 1.06825e-19 5.7392e-30 5.37254e-11 2.1699e-09 1.82657e-30 1.14678e-18 2.18501e-28 2.29028e-18 1.51095e-26 4.56257e-18 1.9205e-24 1.1433e-17 4.60629e-23 2.28654e-17
16.623 1.08756e-19 1.08756e-19 4.679e-30 4.30229e-11 -6.15721e-09 1.34832e-29 1.06148e-18 1.27691e-27 2.11995e-18 7.18009e-26 4.22342e-18 7.20377e-24 1.05823e-17 1.47953e-22 2.11641e-17
17.4762 1.12592e-19 1.12592e-19 3.81265e-30 3.38624e-11 1.60822e-08 9.0761e-29 9.96072e-19 6.88295e-27 1.98933e-18 3.17909e-25 3.96333e-18 2.54692e-23 9.92984e-18 4.51331e-22 1.98592e-17
18.3733 1.18875e-19 1.18875e-19 3.10504e-30 2.61202e-11 -1.56829e-08 5.61742e-28 9.50406e-19 3.44849e-26 1.89814e-18 1.32096e-24 3.78178e-18 8.54384e-23 9.47425e-18 1.31576e-21 1.8948e-17
19.3164 1.27774e-19 1.27774e-19 2.53201e-30 1.98164e-11 -3.69895e-09 3.20722e-27 9.20571e-19 1.61035e-25 1.83857e-18 5.16271e-24 3.66319e-18 2.72417e-22 9.17648e-18 3.67095e-21 1.83525e-17
20.3079 1.39701e-19 1.39701e-19 2.06605e-30 1.47891e-11 -4.52102e-08 1.69597e-26 9.04521e-19 7.03344e-25 1.80653e-18 1.9037e-23 3.59944e-18 8.27681e-22 9.0161e-18 9.82331e-21 1.80317e-17
21.3503 1.55634e-19 1.55634e-19 1.68764e-30 1.08437e-11 -5.16247e-08 8.35836e-26 9.032e-19 2.88993e-24 1.8039e-18 6.65858e-23 3.59429e-18 2.40801e-21 9.00251e-18 2.53278e-20 1.80045e-17
22.4463 1.76537e-19 1.76537e-19 1.383e-30 7.83403e-12 2.11668e-08 3.85319e-25 9.15963e-19 1.12062e-23 1.8294e-18 2.21528e-22 3.64518e-18 6.72395e-21 9.12928e-18 6.30475e-20 1.8258e-17
23.5984 2.03176e-19 2.03176e-19 1.14012e-30 5.61149e-12 -1.503e-08 1.66256e-24 9.40214e-19 4.1016e-23 1.87784e-18 7.00892e-22 3.74178e-18 1.80086e-20 9.37048e-18 1.51379e-19 1.87403e-17
24.8097 2.35788e-19 2.35788e-19 9.48017e-31 4.02064e-12 1.70763e-08 6.69922e-24 9.70926e-19 1.41328e-22 1.93918e-18 2.10252e-21 3.86408e-18 4.61037e-20 9.67601e-18 3.49284e-19 1.93513e-17
26.0832 2.7405e-19 2.7405e-19 7.98484e-31 2.91365e-12 -2.32829e-08 2.51318e-23 1.00197e-18 4.56853e-22 2.00119e-18 5.95719e-21 3.98772e-18 1.12348e-19 9.9848e-18 7.71027e-19 1.99688e-17
27.4221 3.152e-19 3.152e-19 6.81837e-31 2.16319e-12 1.85779e-08 8.70415e-23 1.02112e-18 1.37335e-21 2.03943e-18 1.57977e-20 4.06398e-18 2.58132e-19 1.01749e-17 1.61252e-18 2.0349e-17
28.8297 3.53063e-19 3.53063e-19 5.92041e-31 1.67687e-12 -5.3483e-08 2.7482e-22 1.01148e-18 3.78975e-21 2.02018e-18 3.86929e-20 4.02568e-18 5.51623e-19 1.00781e-17 3.15107e-18 2.01555e-17
30.3095 3.83282e-19 3.83282e-19 5.20413e-31 1.35778e-12 1.493e-08 7.89765e-22 9.69274e-19 9.58123e-21 1.93589e-18 8.73327e-20 3.85776e-18 1.09356e-18 9.6569e-18 5.73732e-18 1.93129e-17
31.8653 3.92097e-19 3.92097e-19 4.57243e-31 1.16615e-12 -8.80823e-09 2.01468e-21 8.7379e-19 2.16375e-20 1.74518e-18 1.77053e-19 3.47777e-18 1.95965e-18 8.70487e-18 9.48192e-18 1.74089e-17
33.5009 3.84375e-19 3.84375e-19 4.01053e-31 1.04339e-12 -4.37823e-08 4.6528e-21 7.53659e-19 4.45019e-20 1.50525e-18 3.28627e-19 2.99966e-18 3.23447e-18 7.50744e-18 1.44907e-17 1.50141e-17
35.2206 3.52742e-19 3.52742e-19 3.43458e-31 9.7368e-13 -2.17322e-08 9.52995e-21 6.07662e-19 8.16347e-20 1.21365e-18 5.4677e-19 2.41859e-18 4.81301e-18 6.05254e-18 2.00404e-17 1.21045e-17
