# 0.00208343 2 105 : grain size, compostion index, size index
# Heating and cooling timescale: 5.82119e-07 inf
# Ratio of heating to cooling to determine stochastic cutoff: 100
# Equilibrium emission is recorded even for those grains in the stochastic regime.
# Emission spectrum was computed for: 
# Type: IRSF
# Scales: 0.25 0.5 1 1.5 2 2.5 3 3.5 4 4.5 5 5.5 6 6.5 7 7.5 8 8.5 9 9.5 10
# StochasticallyHeated: 0 0 0 0 0 0 0 0 0 0 0 0 0 0 0 0 0 0 0 0 0
# Temperature: -1
# Wavelength  CExt  CAbs  CSca  Albedo G EqEm1 StEm1 EqEm2 StEm2 EqEm3 StEm3 EqEm4 StEm4 EqEm5 StEm5 EqEm6 StEm6 EqEm7 StEm7 EqEm8 StEm8 EqEm9 StEm9 EqEm10 StEm10 EqEm11 StEm11 EqEm12 StEm12 EqEm13 StEm13 EqEm14 StEm14 EqEm15 StEm15 EqEm16 StEm16 EqEm17 StEm17 EqEm18 StEm18 EqEm19 StEm19 EqEm20 StEm20 EqEm21 StEm21
0.05 2.7403e-05 1.15876e-05 1.58154e-05 0.577141 0.931783 0 0 0 0 0 0 0 0 0 0 0 0 0 0 0 0 0 0 0 0 0 0 0 0 0 0 0 0 0 0 0 0 0 0 0 0 0 0 0 0 0 0
0.0525665 2.74082e-05 1.1487e-05 1.59211e-05 0.58089 0.925978 0 0 0 0 0 0 0 0 0 0 0 0 0 0 0 0 0 0 0 0 0 0 0 0 0 0 0 0 0 0 0 0 0 0 0 0 0 0 0 0 0 0
0.0552647 2.74137e-05 1.13197e-05 1.6094e-05 0.58708 0.917097 0 0 0 0 0 0 0 0 0 0 0 0 0 0 0 0 0 0 0 0 0 0 0 0 0 0 0 0 0 0 0 0 0 0 0 0 0 0 0 0 0 0
0.0581015 2.74201e-05 1.10658e-05 1.63543e-05 0.596433 0.903285 0 0 0 0 0 0 0 0 0 0 0 0 0 0 0 0 0 0 0 0 0 0 0 0 0 0 0 0 0 0 0 0 0 0 0 0 0 0 0 0 0 0
0.0610839 2.74275e-05 1.081e-05 1.66174e-05 0.605868 0.887798 0 0 0 0 0 0 0 0 0 0 0 0 0 0 0 0 0 0 0 0 0 0 0 0 0 0 0 0 0 0 0 0 0 0 0 0 0 0 0 0 0 0
0.0642193 2.74351e-05 1.06314e-05 1.68037e-05 0.612489 0.875203 0 0 0 0 0 0 0 0 0 0 0 0 0 0 0 0 0 0 0 0 0 0 0 0 0 0 0 0 0 0 0 0 0 0 0 0 0 0 0 0 0 0
0.0675157 2.7443e-05 1.05308e-05 1.69122e-05 0.616268 0.866317 0 0 0 0 0 0 0 0 0 0 0 0 0 0 0 0 0 0 0 0 0 0 0 0 0 0 0 0 0 0 0 0 0 0 0 0 0 0 0 0 0 0
0.0709813 2.74511e-05 1.04936e-05 1.69575e-05 0.617734 0.860712 0 0 0 0 0 0 0 0 0 0 0 0 0 0 0 0 0 0 0 0 0 0 0 0 0 0 0 0 0 0 0 0 0 0 0 0 0 0 0 0 0 0
0.0746248 2.74593e-05 1.05094e-05 1.69499e-05 0.617274 0.857981 0 0 0 0 0 0 0 0 0 0 0 0 0 0 0 0 0 0 0 0 0 0 0 0 0 0 0 0 0 0 0 0 0 0 0 0 0 0 0 0 0 0
0.0784553 2.74674e-05 1.0585e-05 1.68824e-05 0.614635 0.858623 0 0 0 0 0 0 0 0 0 0 0 0 0 0 0 0 0 0 0 0 0 0 0 0 0 0 0 0 0 0 0 0 0 0 0 0 0 0 0 0 0 0
0.0824824 2.7475e-05 1.07454e-05 1.67296e-05 0.608902 0.864175 0 0 0 0 0 0 0 0 0 0 0 0 0 0 0 0 0 0 0 0 0 0 0 0 0 0 0 0 0 0 0 0 0 0 0 0 0 0 0 0 0 0
0.0867162 2.74818e-05 1.08128e-05 1.6669e-05 0.606547 0.867155 0 0 0 0 0 0 0 0 0 0 0 0 0 0 0 0 0 0 0 0 0 0 0 0 0 0 0 0 0 0 0 0 0 0 0 0 0 0 0 0 0 0
0.0911674 2.74904e-05 1.07166e-05 1.67738e-05 0.610168 0.86063 0 0 0 0 0 0 0 0 0 0 0 0 0 0 0 0 0 0 0 0 0 0 0 0 0 0 0 0 0 0 0 0 0 0 0 0 0 0 0 0 0 0
0.095847 2.74996e-05 1.07041e-05 1.67955e-05 0.610753 0.857329 0 0 0 0 0 0 0 0 0 0 0 0 0 0 0 0 0 0 0 0 0 0 0 0 0 0 0 0 0 0 0 0 0 0 0 0 0 0 0 0 0 0
0.100767 2.75084e-05 1.07373e-05 1.67711e-05 0.609671 0.85686 0 0 0 0 0 0 0 0 0 0 0 0 0 0 0 0 0 0 0 0 0 0 0 0 0 0 0 0 0 0 0 0 0 0 0 0 0 0 0 0 0 0
0.105939 2.75163e-05 1.08469e-05 1.66694e-05 0.6058 0.860786 0 0 0 0 0 0 0 0 0 0 0 0 0 0 0 0 0 0 0 0 0 0 0 0 0 0 0 0 0 0 0 0 0 0 0 0 0 0 0 0 0 0
0.111377 2.75239e-05 1.096e-05 1.6564e-05 0.601802 0.865867 0 0 0 0 0 0 0 0 0 0 0 0 0 0 0 0 0 0 0 0 0 0 0 0 0 0 0 0 0 0 0 0 0 0 0 0 0 0 0 0 0 0
0.117094 2.75319e-05 1.10341e-05 1.64978e-05 0.599224 0.869052 0 0 0 0 0 0 0 0 0 0 0 0 0 0 0 0 0 0 0 0 0 0 0 0 0 0 0 0 0 0 0 0 0 0 0 0 0 0 0 0 0 0
0.123105 2.75403e-05 1.10851e-05 1.64552e-05 0.597495 0.871058 0 0 0 0 0 0 0 0 0 0 0 0 0 0 0 0 0 0 0 0 0 0 0 0 0 0 0 0 0 0 0 0 0 0 0 0 0 0 0 0 0 0
0.129424 2.7549e-05 1.1117e-05 1.6432e-05 0.596465 0.872035 0 0 0 0 0 0 0 0 0 0 0 0 0 0 0 0 0 0 0 0 0 0 0 0 0 0 0 0 0 0 0 0 0 0 0 0 0 0 0 0 0 0
0.136067 2.7558e-05 1.11276e-05 1.64303e-05 0.59621 0.871792 0 0 0 0 0 0 0 0 0 0 0 0 0 0 0 0 0 0 0 0 0 0 0 0 0 0 0 0 0 0 0 0 0 0 0 0 0 0 0 0 0 0
0.143051 2.75674e-05 1.11049e-05 1.64625e-05 0.597172 0.869459 0 0 0 0 0 0 0 0 0 0 0 0 0 0 0 0 0 0 0 0 0 0 0 0 0 0 0 0 0 0 0 0 0 0 0 0 0 0 0 0 0 0
0.150394 2.75756e-05 1.11449e-05 1.64307e-05 0.595841 0.870696 0 0 0 0 0 0 0 0 0 0 0 0 0 0 0 0 0 0 0 0 0 0 0 0 0 0 0 0 0 0 0 0 0 0 0 0 0 0 0 0 0 0
0.158114 2.75835e-05 1.12647e-05 1.63188e-05 0.591615 0.877163 0 0 0 0 0 0 0 0 0 0 0 0 0 0 0 0 0 0 0 0 0 0 0 0 0 0 0 0 0 0 0 0 0 0 0 0 0 0 0 0 0 0
0.16623 2.75923e-05 1.14007e-05 1.61916e-05 0.586815 0.885021 0 0 0 0 0 0 0 0 0 0 0 0 0 0 0 0 0 0 0 0 0 0 0 0 0 0 0 0 0 0 0 0 0 0 0 0 0 0 0 0 0 0
0.174762 2.76021e-05 1.15219e-05 1.60802e-05 0.582572 0.892153 0 0 0 0 0 0 0 0 0 0 0 0 0 0 0 0 0 0 0 0 0 0 0 0 0 0 0 0 0 0 0 0 0 0 0 0 0 0 0 0 0 0
0.183733 2.76125e-05 1.16298e-05 1.59827e-05 0.578821 0.898532 0 0 0 0 0 0 0 0 0 0 0 0 0 0 0 0 0 0 0 0 0 0 0 0 0 0 0 0 0 0 0 0 0 0 0 0 0 0 0 0 0 0
0.193164 2.76236e-05 1.17219e-05 1.59016e-05 0.575654 0.903948 0 0 0 0 0 0 0 0 0 0 0 0 0 0 0 0 0 0 0 0 0 0 0 0 0 0 0 0 0 0 0 0 0 0 0 0 0 0 0 0 0 0
0.203079 2.76352e-05 1.18012e-05 1.5834e-05 0.572966 0.908551 0 0 0 0 0 0 0 0 0 0 0 0 0 0 0 0 0 0 0 0 0 0 0 0 0 0 0 0 0 0 0 0 0 0 0 0 0 0 0 0 0 0
0.213503 2.76474e-05 1.18718e-05 1.57756e-05 0.570599 0.9126 0 0 0 0 0 0 0 0 0 0 0 0 0 0 0 0 0 0 0 0 0 0 0 0 0 0 0 0 0 0 0 0 0 0 0 0 0 0 0 0 0 0
0.224463 2.766e-05 1.19317e-05 1.57284e-05 0.568631 0.915954 0 0 0 0 0 0 0 0 0 0 0 0 0 0 0 0 0 0 0 0 0 0 0 0 0 0 0 0 0 0 0 0 0 0 0 0 0 0 0 0 0 0
0.235984 2.76731e-05 1.198e-05 1.56931e-05 0.567088 0.918564 0 0 0 0 0 0 0 0 0 0 0 0 0 0 0 0 0 0 0 0 0 0 0 0 0 0 0 0 0 0 0 0 0 0 0 0 0 0 0 0 0 0
0.248097 2.76866e-05 1.20183e-05 1.56682e-05 0.565914 0.920529 0 0 0 0 0 0 0 0 0 0 0 0 0 0 0 0 0 0 0 0 0 0 0 0 0 0 0 0 0 0 0 0 0 0 0 0 0 0 0 0 0 0
0.260832 2.77005e-05 1.20507e-05 1.56498e-05 0.564963 0.922102 0 0 0 0 0 0 0 0 0 0 0 0 0 0 0 0 0 0 0 0 0 0 0 0 0 0 0 0 0 0 0 0 0 0 0 0 0 0 0 0 0 0
0.274221 2.77149e-05 1.20794e-05 1.56355e-05 0.564156 0.923419 0 0 0 0 0 0 0 0 0 0 0 0 0 0 0 0 0 0 0 0 0 0 0 0 0 0 0 0 0 0 0 0 0 0 0 0 0 0 0 0 0 0
0.288297 2.77298e-05 1.21048e-05 1.5625e-05 0.563473 0.924512 0 0 0 0 0 0 0 0 0 0 0 0 0 0 0 0 0 0 0 0 0 0 0 0 0 0 0 0 0 0 0 0 0 0 0 0 0 0 0 0 0 0
0.303095 2.77452e-05 1.21277e-05 1.56175e-05 0.56289 0.925423 0 0 0 0 0 0 0 0 0 0 0 0 0 0 0 0 0 0 0 0 0 0 0 0 0 0 0 0 0 0 0 0 0 0 0 0 0 0 0 0 0 0
0.318653 2.77611e-05 1.21489e-05 1.56122e-05 0.562376 0.926209 0 0 0 0 0 0 0 0 0 0 0 0 0 0 0 0 0 0 0 0 0 0 0 0 0 0 0 0 0 0 0 0 0 0 0 0 0 0 0 0 0 0
0.335009 2.77775e-05 1.21686e-05 1.56089e-05 0.561925 0.926874 0 0 0 0 0 0 0 0 0 0 0 0 0 0 0 0 0 0 0 0 0 0 0 0 0 0 0 0 0 0 0 0 0 0 0 0 0 0 0 0 0 0
0.352205 2.77944e-05 1.21874e-05 1.5607e-05 0.561515 0.927457 0 0 0 0 0 0 0 0 0 0 0 0 0 0 0 0 0 0 0 0 0 0 0 0 0 0 0 0 0 0 0 0 0 0 0 0 0 0 0 0 0 0
0.370284 2.7812e-05 1.22055e-05 1.56065e-05 0.561143 0.927968 0 0 0 0 0 0 0 0 0 0 0 0 0 0 0 0 0 0 0 0 0 0 0 0 0 0 0 0 0 0 0 0 0 0 0 0 0 0 0 0 0 0
0.389291 2.78301e-05 1.22225e-05 1.56076e-05 0.560817 0.928386 0 0 0 0 0 0 0 0 0 0 0 0 0 0 0 0 0 0 0 0 0 0 0 0 0 0 0 0 0 0 0 0 0 0 0 0 0 0 0 0 0 0
0.409273 2.78489e-05 1.22389e-05 1.561e-05 0.560523 0.928739 0 0 0 0 0 0 0 0 0 0 0 0 0 0 0 0 0 0 0 0 0 0 0 0 0 0 0 0 0 0 0 0 0 0 0 0 0 0 0 0 0 0
0.430281 2.78683e-05 1.22555e-05 1.56127e-05 0.560234 0.92907 0 0 0 0 0 0 0 0 0 0 0 0 0 0 0 0 0 0 0 0 0 0 0 0 0 0 0 0 0 0 0 0 0 0 0 0 0 0 0 0 0 0
0.452368 2.78882e-05 1.22712e-05 1.5617e-05 0.559985 0.929318 0 0 0 0 0 0 0 0 0 0 0 0 0 0 0 0 0 0 0 0 0 0 0 0 0 0 0 0 0 0 0 0 0 0 0 0 0 0 0 0 0 0
0.475588 2.79089e-05 1.22871e-05 1.56218e-05 0.559743 0.929541 0 0 0 0 0 0 0 0 0 0 0 0 0 0 0 0 0 0 0 0 0 0 0 0 0 0 0 0 0 0 0 0 0 0 0 0 0 0 0 0 0 0
0.5 2.79303e-05 1.2303e-05 1.56273e-05 0.559512 0.929734 0 0 0 0 0 0 0 0 0 0 0 0 0 0 0 0 0 0 0 0 0 0 0 0 0 0 0 0 0 0 0 0 0 0 0 0 0 0 0 0 0 0
0.525665 2.79524e-05 1.23191e-05 1.56333e-05 0.559283 0.929903 0 0 0 0 0 0 0 0 0 0 0 0 0 0 0 0 0 0 0 0 0 0 0 0 0 0 0 0 0 0 0 0 0 0 0 0 0 0 0 0 0 0
0.552648 2.79752e-05 1.23358e-05 1.56395e-05 0.559047 0.930071 0 0 0 0 0 0 0 0 0 0 0 0 0 0 0 0 0 0 0 0 0 0 0 0 0 0 0 0 0 0 0 0 0 0 0 0 0 0 0 0 0 0
0.581015 2.79988e-05 1.23516e-05 1.56472e-05 0.558852 0.930151 0 0 0 0 0 0 0 0 0 0 0 0 0 0 0 0 0 0 0 0 0 0 0 0 0 0 0 0 0 0 0 0 0 0 0 0 0 0 0 0 0 0
0.610839 2.80232e-05 1.23682e-05 1.5655e-05 0.558644 0.930233 0 0 0 0 0 0 0 0 0 0 0 0 0 0 0 0 0 0 0 0 0 0 0 0 0 0 0 0 0 0 0 0 0 0 0 0 0 0 0 0 0 0
0.642193 2.80484e-05 1.23855e-05 1.56629e-05 0.558424 0.930318 0 0 0 0 0 0 0 0 0 0 0 0 0 0 0 0 0 0 0 0 0 0 0 0 0 0 0 0 0 0 0 0 0 0 0 0 0 0 0 0 0 0
0.675157 2.80744e-05 1.24031e-05 1.56713e-05 0.558208 0.930376 0 0 0 0 0 0 0 0 0 0 0 0 0 0 0 0 0 0 0 0 0 0 0 0 0 0 0 0 0 0 0 0 0 0 0 0 0 0 0 0 0 0
0.709813 2.81012e-05 1.2421e-05 1.56802e-05 0.557992 0.930412 0 0 0 0 0 0 0 0 0 0 0 0 0 0 0 0 0 0 0 0 0 0 0 0 0 0 0 0 0 0 0 0 0 0 0 0 0 0 0 0 0 0
0.746248 2.8129e-05 1.24396e-05 1.56894e-05 0.557766 0.930444 0 0 0 0 0 0 0 0 0 0 0 0 0 0 0 0 0 0 0 0 0 0 0 0 0 0 0 0 0 0 0 0 0 0 0 0 0 0 0 0 0 0
0.784553 2.81577e-05 1.2459e-05 1.56987e-05 0.557526 0.930476 0 0 0 0 0 0 0 0 0 0 0 0 0 0 0 0 0 0 0 0 0 0 0 0 0 0 0 0 0 0 0 0 0 0 0 0 0 0 0 0 0 0
0.824824 2.81875e-05 1.24789e-05 1.57086e-05 0.55729 0.930481 0 0 0 0 0 0 0 0 0 0 0 0 0 0 0 0 0 0 0 0 0 0 0 0 0 0 0 0 0 0 0 0 0 0 0 0 0 0 0 0 0 0
0.867162 2.82181e-05 1.24993e-05 1.57188e-05 0.557048 0.930467 0 0 0 0 0 0 0 0 0 0 0 0 0 0 0 0 0 0 0 0 0 0 0 0 0 0 0 0 0 0 0 0 0 0 0 0 0 0 0 0 0 0
0.911674 2.82497e-05 1.25205e-05 1.57292e-05 0.556791 0.930449 0 0 0 0 0 0 0 0 0 0 0 0 0 0 0 0 0 0 0 0 0 0 0 0 0 0 0 0 0 0 0 0 0 0 0 0 0 0 0 0 0 0
0.95847 2.82825e-05 1.25425e-05 1.574e-05 0.556528 0.93042 0 0 0 0 0 0 0 0 0 0 0 0 0 0 0 0 0 0 0 0 0 0 0 0 0 0 0 0 0 0 0 0 0 0 0 0 0 0 0 0 0 0
1.00767 2.83162e-05 1.25654e-05 1.57508e-05 0.556245 0.930387 0 0 0 0 0 0 0 0 0 0 0 0 0 0 0 0 0 0 0 0 0 0 0 0 0 0 0 0 0 0 0 0 0 0 0 0 0 0 0 0 0 0
1.05939 2.83513e-05 1.25894e-05 1.57619e-05 0.555948 0.930357 0 0 0 0 0 0 0 0 0 0 0 0 0 0 0 0 0 0 0 0 0 0 0 0 0 0 0 0 0 0 0 0 0 0 0 0 0 0 0 0 0 0
1.11377 2.83875e-05 1.26144e-05 1.57731e-05 0.555634 0.930322 0 0 0 0 0 0 0 0 0 0 0 0 0 0 0 0 0 0 0 0 0 0 0 0 0 0 0 0 0 0 0 0 0 0 0 0 0 0 0 0 0 0
1.17094 2.84245e-05 1.26406e-05 1.57838e-05 0.55529 0.930291 0 0 0 0 0 0 0 0 0 0 0 0 0 0 0 0 0 0 0 0 0 0 0 0 0 0 0 0 0 0 0 0 0 0 0 0 0 0 0 0 0 0
1.23105 2.84627e-05 1.2668e-05 1.57947e-05 0.554927 0.930258 0 0 0 0 0 0 0 0 0 0 0 0 0 0 0 0 0 0 0 0 0 0 0 0 0 0 0 0 0 0 0 0 0 0 0 0 0 0 0 0 0 0
1.29424 2.85028e-05 1.26967e-05 1.58061e-05 0.554546 0.930235 0 0 0 0 0 0 0 0 0 0 0 0 0 0 0 0 0 0 0 0 0 0 0 0 0 0 0 0 0 0 0 0 0 0 0 0 0 0 0 0 0 0
1.36067 2.85441e-05 1.27259e-05 1.58182e-05 0.554167 0.930172 0 0 0 0 0 0 0 0 0 0 0 0 0 0 0 0 0 0 0 0 0 0 0 0 0 0 0 0 0 0 0 0 0 0 0 0 0 0 0 0 0 0
1.43051 2.85872e-05 1.2757e-05 1.58302e-05 0.553751 0.930141 0 0 0 0 0 0 0 0 0 0 0 0 0 0 0 0 0 0 0 0 0 0 0 0 0 0 0 0 0 0 0 0 0 0 0 0 0 0 0 0 0 0
1.50394 2.8631e-05 1.27891e-05 1.58419e-05 0.553313 0.930089 0 0 0 0 0 0 0 0 0 0 0 0 0 0 0 0 0 0 0 0 0 0 0 0 0 0 0 0 0 0 0 0 0 0 0 0 0 0 0 0 0 0
1.58114 2.86752e-05 1.28225e-05 1.58527e-05 0.552837 0.930025 0 0 0 0 0 0 0 0 0 0 0 0 0 0 0 0 0 0 0 0 0 0 0 0 0 0 0 0 0 0 0 0 0 0 0 0 0 0 0 0 0 0
1.6623 2.87193e-05 1.28576e-05 1.58617e-05 0.5523 0.929975 0 0 0 0 0 0 0 0 0 0 0 0 0 0 0 0 0 0 0 0 0 0 0 0 0 0 0 0 0 0 0 0 0 0 0 0 0 0 0 0 0 0
1.74763 2.87666e-05 1.28941e-05 1.58724e-05 0.551767 0.929921 0 0 0 0 0 0 0 0 0 0 0 0 0 0 0 0 0 0 0 0 0 0 0 0 0 0 0 0 0 0 0 0 0 0 0 0 0 0 0 0 0 0
1.83733 2.88219e-05 1.29323e-05 1.58896e-05 0.551302 0.929907 0 0 0 0 0 0 0 0 0 0 0 0 0 0 0 0 0 0 0 0 0 0 0 0 0 0 0 0 0 0 0 0 0 0 0 0 0 0 0 0 0 0
1.93164 2.8882e-05 1.2972e-05 1.591e-05 0.550862 0.9299 0 0 0 0 0 0 0 0 0 0 0 0 0 0 0 0 0 0 0 0 0 0 0 0 0 0 0 0 0 0 0 0 0 0 0 0 0 0 0 0 0 0
2.03079 2.89268e-05 1.30129e-05 1.59139e-05 0.550143 0.929798 0 0 0 0 0 0 0 0 0 0 0 0 0 0 0 0 0 0 0 0 0 0 0 0 0 0 0 0 0 0 0 0 0 0 0 0 0 0 0 0 0 0
2.13503 2.89695e-05 1.30557e-05 1.59138e-05 0.549329 0.929692 0 0 0 0 0 0 0 0 0 0 0 0 0 0 0 0 0 0 0 0 0 0 0 0 0 0 0 0 0 0 0 0 0 0 0 0 0 0 0 0 0 0
2.24463 2.90518e-05 1.31003e-05 1.59515e-05 0.549072 0.929755 0 0 0 0 0 0 0 0 0 0 0 0 0 0 0 0 0 0 0 0 0 0 0 0 0 0 0 0 0 0 0 0 0 0 0 0 0 0 0 0 0 0
2.35984 2.90993e-05 1.31464e-05 1.59529e-05 0.548223 0.929654 0 0 0 0 0 0 0 0 0 0 0 0 0 0 0 0 0 0 0 0 0 0 0 0 0 0 0 0 0 0 0 0 0 0 0 0 0 0 0 0 0 0
2.48097 2.91417e-05 1.31947e-05 1.59469e-05 0.547221 0.929533 0 0 0 0 0 0 0 0 0 0 0 0 0 0 0 0 0 0 0 0 0 0 0 0 0 0 0 0 0 0 0 0 0 0 0 0 0 0 0 0 0 0
2.60832 2.92523e-05 1.32445e-05 1.60078e-05 0.547232 0.929692 0 0 0 0 0 0 0 0 0 0 0 0 0 0 0 0 0 0 0 0 0 0 0 0 0 0 0 0 0 0 0 0 0 0 0 0 0 0 0 0 0 0
2.74221 2.92528e-05 1.32961e-05 1.59567e-05 0.545477 0.92935 0 0 0 0 0 0 0 0 0 0 0 0 0 0 0 0 0 0 0 0 0 0 0 0 0 0 0 0 0 0 0 0 0 0 0 0 0 0 0 0 0 0
2.88297 2.94008e-05 1.33505e-05 1.60503e-05 0.545913 0.929667 0 0 0 0 0 0 0 0 0 0 0 0 0 0 0 0 0 0 0 0 0 0 0 0 0 0 0 0 0 0 0 0 0 0 0 0 0 0 0 0 0 0
3.03095 2.9376e-05 1.34058e-05 1.59702e-05 0.543647 0.929214 0 0 0 0 0 0 0 0 0 0 0 0 0 0 0 0 0 0 0 0 0 0 0 0 0 0 0 0 0 0 0 0 0 0 0 0 0 0 0 0 0 0
3.18653 2.95571e-05 1.34649e-05 1.60922e-05 0.544444 0.929686 0 0 0 0 0 0 0 0 0 0 0 0 0 0 0 0 0 0 0 0 0 0 0 0 0 0 0 0 0 0 0 0 0 0 0 0 0 0 0 0 0 0
3.35009 2.95042e-05 1.35264e-05 1.59777e-05 0.541541 0.929098 0 0 0 0 0 0 0 0 0 0 0 0 0 0 0 0 0 0 0 0 0 0 0 0 0 0 0 0 0 0 0 0 0 0 0 0 0 0 0 0 0 0
3.52205 2.97347e-05 1.35884e-05 1.61463e-05 0.543012 0.929702 0 0 0 0 0 0 0 0 0 0 0 0 0 0 0 0 0 0 0 0 0 0 0 0 0 0 0 0 0 0 0 0 0 0 0 0 0 0 0 0 0 0
3.70284 2.96605e-05 1.36525e-05 1.6008e-05 0.539709 0.929047 0 0 0 0 0 0 0 0 0 0 0 0 0 0 0 0 0 0 0 0 0 0 0 0 0 0 0 0 0 0 0 0 0 0 0 0 0 0 0 0 0 0
3.89291 2.98472e-05 1.37199e-05 1.61273e-05 0.54033 0.929569 0 0 0 0 0 0 0 0 0 0 0 0 0 0 0 0 0 0 0 0 0 0 0 0 0 0 0 0 0 0 0 0 0 0 0 0 0 0 0 0 0 0
4.09273 2.99452e-05 1.37897e-05 1.61555e-05 0.539503 0.929594 0 0 0 0 0 0 0 0 0 0 0 0 0 0 0 0 0 0 0 0 0 0 0 0 0 0 0 0 0 0 0 0 0 0 0 0 0 0 0 0 0 0
4.30281 2.98557e-05 1.38601e-05 1.59956e-05 0.535764 0.928775 0 0 0 0 0 0 0 0 0 0 0 0 0 0 0 0 0 0 0 0 0 0 0 0 0 0 0 0 0 0 0 0 0 0 0 0 0 0 0 0 0 0
4.52368 3.02598e-05 1.39309e-05 1.63288e-05 0.539622 0.930263 0 0 0 0 0 0 0 0 0 0 0 0 0 0 0 0 0 0 0 0 0 0 0 0 0 0 0 0 0 0 0 0 0 0 0 0 0 0 0 0 0 0
4.75588 3.00812e-05 1.40132e-05 1.6068e-05 0.534154 0.929469 0 0 0 0 0 0 0 0 0 0 0 0 0 0 0 0 0 0 0 0 0 0 0 0 0 0 0 0 0 0 0 0 0 0 0 0 0 0 0 0 0 0
5 3.01957e-05 1.41055e-05 1.60902e-05 0.532863 0.929888 0 0 0 0 0 0 0 0 0 0 0 0 0 0 0 0 0 0 0 0 0 0 0 0 0 0 0 0 0 0 0 0 0 0 0 0 0 0 0 0 0 0
5.25665 3.06471e-05 1.41985e-05 1.64486e-05 0.536709 0.931585 0 0 0 0 0 0 0 0 0 0 0 0 0 0 0 0 0 0 0 0 0 0 0 0 0 0 0 0 0 0 0 0 0 0 0 0 0 0 0 0 0 0
5.52648 3.02498e-05 1.4303e-05 1.59468e-05 0.527171 0.930408 0 0 0 0 0 0 0 0 0 0 0 0 0 0 0 0 0 0 0 0 0 0 0 0 0 0 0 0 0 0 0 0 0 0 0 0 0 0 0 0 0 0
5.81015 3.06191e-05 1.444e-05 1.61791e-05 0.5284 0.933575 0 0 0 0 0 0 0 0 0 0 0 0 0 0 0 0 0 0 0 0 0 0 0 0 0 0 0 0 0 0 0 0 0 0 0 0 0 0 0 0 0 0
6.10839 3.10113e-05 1.4605e-05 1.64063e-05 0.529043 0.937023 0 0 0 0 0 0 0 0 0 0 0 0 0 0 0 0 0 0 0 0 0 0 0 0 0 0 0 0 0 0 0 0 0 0 0 0 0 0 0 0 0 0
6.42193 3.0459e-05 1.47683e-05 1.56907e-05 0.51514 0.935709 0 0 0 0 0 0 0 0 0 0 0 0 0 0 0 0 0 0 0 0 0 0 0 0 0 0 0 0 0 0 0 0 0 0 0 0 0 0 0 0 0 0
6.75157 3.12555e-05 1.49064e-05 1.63491e-05 0.523079 0.939981 0 0 0 0 0 0 0 0 0 0 0 0 0 0 0 0 0 0 0 0 0 0 0 0 0 0 0 0 0 0 0 0 0 0 0 0 0 0 0 0 0 0
7.09813 3.09436e-05 1.50979e-05 1.58456e-05 0.512082 0.944692 0 0 0 0 0 0 0 0 0 0 0 0 0 0 0 0 0 0 0 0 0 0 0 0 0 0 0 0 0 0 0 0 0 0 0 0 0 0 0 0 0 0
7.46248 3.16126e-05 1.56705e-05 1.59421e-05 0.504296 0.956839 0 0 0 0 0 0 0 0 0 0 0 0 0 0 0 0 0 0 0 0 0 0 0 0 0 0 0 0 0 0 0 0 0 0 0 0 0 0 0 0 0 0
7.84553 3.05695e-05 1.57131e-05 1.48564e-05 0.485987 0.965074 0 0 0 0 0 0 0 0 0 0 0 0 0 0 0 0 0 0 0 0 0 0 0 0 0 0 0 0 0 0 0 0 0 0 0 0 0 0 0 0 0 0
8.24824 2.94028e-05 1.49291e-05 1.44737e-05 0.492256 0.956545 0 0 0 0 0 0 0 0 0 0 0 0 0 0 0 0 0 0 0 0 0 0 0 0 0 0 0 0 0 0 0 0 0 0 0 0 0 0 0 0 0 0
8.67162 2.98074e-05 1.44307e-05 1.53767e-05 0.515867 0.931589 0 0 0 0 0 0 0 0 0 0 0 0 0 0 0 0 0 0 0 0 0 0 0 0 0 0 0 0 0 0 0 0 0 0 0 0 0 0 0 0 0 0
9.11674 3.06522e-05 1.38841e-05 1.67682e-05 0.547045 0.892037 0 0 0 0 0 0 0 0 0 0 0 0 0 0 0 0 0 0 0 0 0 0 0 0 0 0 0 0 0 0 0 0 0 0 0 0 0 0 0 0 0 0
9.5847 3.15506e-05 1.37803e-05 1.77702e-05 0.563231 0.860644 0 0 0 0 0 0 0 0 0 0 0 0 0 0 0 0 0 0 0 0 0 0 0 0 0 0 0 0 0 0 0 0 0 0 0 0 0 0 0 0 0 0
10.0767 3.20254e-05 1.38946e-05 1.81307e-05 0.566137 0.847439 0 0 0 0 0 0 0 0 0 0 0 0 0 0 0 0 0 0 0 0 0 0 0 0 0 0 0 0 0 0 0 0 0 0 0 0 0 0 0 0 0 0
10.5939 3.23892e-05 1.39501e-05 1.8439e-05 0.569296 0.834768 0 0 0 0 0 0 0 0 0 0 0 0 0 0 0 0 0 0 0 0 0 0 0 0 0 0 0 0 0 0 0 0 0 0 0 0 0 0 0 0 0 0
11.1377 3.25273e-05 1.41386e-05 1.83887e-05 0.565332 0.832859 0 0 0 0 0 0 0 0 0 0 0 0 0 0 0 0 0 0 0 0 0 0 0 0 0 0 0 0 0 0 0 0 0 0 0 0 0 0 0 0 0 0
11.7094 3.26229e-05 1.43179e-05 1.8305e-05 0.561108 0.832475 0 0 0 0 0 0 0 0 0 0 0 0 0 0 0 0 0 0 0 0 0 0 0 0 0 0 0 0 0 0 0 0 0 0 0 0 0 0 0 0 0 0
12.3105 3.26882e-05 1.45453e-05 1.81429e-05 0.555029 0.835055 0 0 0 0 0 0 0 0 0 0 0 0 0 0 0 0 0 0 0 0 0 0 0 0 0 0 0 0 0 0 0 0 0 0 0 0 0 0 0 0 0 0
12.9424 3.27588e-05 1.48521e-05 1.79067e-05 0.546623 0.841395 0 0 0 0 0 0 0 0 0 0 0 0 0 0 0 0 0 0 0 0 0 0 0 0 0 0 0 0 0 0 0 0 0 0 0 0 0 0 0 0 1.4013e-45 0
13.6067 3.28615e-05 1.5267e-05 1.75944e-05 0.535412 0.852134 0 0 0 0 0 0 0 0 0 0 0 0 0 0 0 0 0 0 0 0 0 0 0 0 0 0 0 0 1.4013e-45 0 4.2039e-45 0 1.12104e-44 0 2.66247e-44 0 5.88545e-44 0 1.24716e-43 0 2.52234e-43 0
14.3051 3.29939e-05 1.57637e-05 1.72302e-05 0.522225 0.866082 0 0 0 0 0 0 0 0 0 0 0 0 0 0 0 0 0 0 1.4013e-45 0 4.2039e-45 0 1.4013e-44 0 4.48416e-44 0 1.34525e-43 0 3.60134e-43 0 9.20653e-43 0 2.17201e-42 0 4.81907e-42 0 1.02435e-41 0 2.08878e-41 0 4.09249e-41 0
15.0394 3.31022e-05 1.60731e-05 1.70291e-05 0.51444 0.872305 0 0 0 0 0 0 0 0 0 0 0 0 0 0 5.60519e-45 0 3.50325e-44 0 1.73761e-43 0 7.00649e-43 0 2.45788e-42 0 7.72396e-42 0 2.18547e-41 0 5.59833e-41 0 1.36694e-40 0 3.09201e-40 0 6.59937e-40 0 1.35201e-39 0 2.66275e-39 0 5.04847e-39 0
15.8114 3.32072e-05 1.61906e-05 1.70167e-05 0.512439 0.87021 0 0 0 0 0 0 0 0 0 0 1.12104e-44 0 1.38729e-43 0 1.06078e-42 0 6.02698e-42 0 2.73856e-41 0 1.02907e-40 0 3.39843e-40 0 1.00976e-39 0 2.71543e-39 0 6.64365e-39 0 1.55301e-38 0 3.37565e-38 0 6.94293e-38 0 1.37345e-37 0 2.61693e-37 0 4.80902e-37 0
16.623 3.33784e-05 1.617e-05 1.72083e-05 0.515554 0.860856 0 0 0 0 0 0 2.8026e-45 0 1.10703e-43 0 2.07672e-42 0 2.16052e-41 0 1.49771e-40 0 7.8141e-40 0 3.29744e-39 0 1.16152e-38 0 3.61847e-38 0 1.01947e-37 0 2.61227e-37 0 6.11808e-37 0 1.37207e-36 0 2.87143e-36 0 5.70155e-36 0 1.09093e-35 0 2.01422e-35 0 3.5931e-35 0
17.4762 3.3685e-05 1.6076e-05 1.7609e-05 0.522754 0.845782 0 0 0 0 1.4013e-45 0 4.04975e-43 0 1.70902e-41 0 2.7883e-40 0 2.58766e-39 0 1.63204e-38 0 7.85517e-38 0 3.08975e-37 0 1.02346e-36 0 3.01632e-36 0 8.07912e-36 0 1.97723e-35 0 4.4423e-35 0 9.57731e-35 0 1.93333e-34 0 3.71241e-34 0 6.88182e-34 0 1.23313e-33 0 2.13845e-33 0
18.3733 3.40978e-05 1.59657e-05 1.81321e-05 0.531768 0.827954 0 0 0 0 3.05483e-43 0 5.81791e-41 0 2.04264e-39 0 2.90796e-38 0 2.42056e-37 0 1.39537e-36 0 6.22005e-36 0 2.28835e-35 0 7.1495e-35 0 1.99877e-34 0 5.1022e-34 0 1.19529e-33 0 2.58142e-33 0 5.3605e-33 0 1.04562e-32 0 1.94486e-32 0 3.49823e-32 0 6.0924e-32 0 1.0285e-31 0
19.3164 3.45058e-05 1.58755e-05 1.86303e-05 0.539918 0.811022 0 0 4.2039e-45 0 4.39237e-41 0 6.47611e-39 0 1.9111e-37 0 2.38982e-36 0 1.79373e-35 0 9.49266e-35 0 3.93369e-34 0 1.35803e-33 0 4.01334e-33 0 1.06707e-32 0 2.60206e-32 0 5.84764e-32 0 1.2163e-31 0 2.43722e-31 0 4.60145e-31 0 8.30332e-31 0 1.45132e-30 0 2.46002e-30 0 4.0481e-30 0
20.3079 3.48128e-05 1.58636e-05 1.89492e-05 0.544317 0.798619 0 0 6.83834e-43 0 4.91934e-39 0 5.68385e-37 0 1.42181e-35 0 1.57167e-34 0 1.06909e-33 0 5.21569e-33 0 2.01642e-32 0 6.55263e-32 0 1.83669e-31 0 4.65574e-31 0 1.08696e-30 0 2.34804e-30 0 4.71235e-30 0 9.12751e-30 0 1.67062e-29 0 2.92899e-29 0 4.98184e-29 0 8.22955e-29 0 1.32168e-28 0
