# 4.0621e-07 0 26 : grain size, compostion index, size index
# Heating and cooling timescale: 895.703 72.1121
# Ratio of heating to cooling to determine stochastic cutoff: 100
# Equilibrium emission is recorded even for those grains in the stochastic regime.
# Emission spectrum was computed for: 
# Type: ISRF
# Scales: 0.25 0.5 1 1.5 2 2.5 3 3.5 4 4.5 5 5.5 6 6.5 7 7.5 8 8.5 9 9.5 10
# StochasticallyHeated: 1 1 1 1 1 1 1 1 1 1 1 1 1 1 1 1 1 1 1 1 1
# Temperature: -1
# Wavelength  CExt  CAbs  CSca  Albedo G EqEm1 StEm1 EqEm2 StEm2 EqEm3 StEm3 EqEm4 StEm4 EqEm5 StEm5 EqEm6 StEm6 EqEm7 StEm7 EqEm8 StEm8 EqEm9 StEm9 EqEm10 StEm10 EqEm11 StEm11 EqEm12 StEm12 EqEm13 StEm13 EqEm14 StEm14 EqEm15 StEm15 EqEm16 StEm16 EqEm17 StEm17 EqEm18 StEm18 EqEm19 StEm19 EqEm20 StEm20 EqEm21 StEm21
0.05 1.35161e-13 1.32655e-13 2.50632e-15 0.0185432 0.0405538 0 0 0 0 0 0 0 0 0 0 0 0 0 0 0 0 0 0 0 0 0 0 0 0 0 0 0 0 0 0 0 0 0 0 0 0 0 0 0 0 0 0
0.0525665 1.46403e-13 1.43886e-13 2.51676e-15 0.0171906 0.0364433 0 0 0 0 0 0 0 0 0 0 0 0 0 0 0 0 0 0 0 0 0 0 0 0 0 0 0 0 0 0 0 0 0 0 0 0 0 0 0 0 0 0
0.0552647 1.58765e-13 1.56233e-13 2.5327e-15 0.0159525 0.0327355 0 0 0 0 0 0 0 0 0 0 0 0 0 0 0 0 0 0 0 0 0 0 0 0 0 0 0 0 0 0 0 0 0 0 0 0 0 0 0 0 0 0
0.0581015 1.72578e-13 1.70021e-13 2.55753e-15 0.0148195 0.0293909 0 0 0 0 0 0 0 0 0 0 0 0 0 0 0 0 0 0 0 0 0 0 0 0 0 0 0 0 0 0 0 0 0 0 0 0 0 0 0 0 0 0
0.0610839 1.87965e-13 1.85372e-13 2.59241e-15 0.013792 0.0263706 0 0 0 0 0 0 0 0 0 0 0 0 0 0 0 0 0 0 0 0 0 0 0 0 0 0 0 0 0 0 0 0 0 0 0 0 0 0 0 0 0 0
0.0642193 2.05324e-13 2.02683e-13 2.64136e-15 0.0128643 0.0236455 0 0 0 0 0 0 0 0 0 0 0 0 0 0 0 0 0 0 0 0 0 0 0 0 0 0 0 0 0 0 0 0 0 0 0 0 0 0 0 0 0 0
0.0675157 2.251e-13 2.22392e-13 2.70807e-15 0.0120305 0.0211841 0 0 0 0 0 0 0 0 0 0 0 0 0 0 0 0 0 0 0 0 0 0 0 0 0 0 0 0 0 0 0 0 0 0 0 0 0 0 0 0 0 0
0.0709813 2.47532e-13 2.44737e-13 2.79472e-15 0.0112903 0.0189579 0 0 0 0 0 0 0 0 0 0 0 0 0 0 0 0 0 0 0 0 0 0 0 0 0 0 0 0 0 0 0 0 0 0 0 0 0 0 0 0 0 0
0.0746248 2.72873e-13 2.69972e-13 2.90166e-15 0.0106337 0.0169518 0 0 0 0 0 0 0 0 0 0 0 0 0 0 0 0 0 0 0 0 0 0 0 0 0 0 0 0 0 0 0 0 0 0 0 0 0 0 0 0 0 0
0.0784553 2.96598e-13 2.93649e-13 2.94936e-15 0.00994397 0.0151982 0 0 0 0 0 0 0 0 0 0 0 0 0 0 0 0 0 0 0 0 0 0 0 0 0 0 0 0 0 0 0 0 0 0 0 0 0 0 0 0 0 0
0.0824824 3.07198e-13 3.0439e-13 2.80813e-15 0.0091411 0.0137312 0 0 0 0 0 0 0 0 0 0 0 0 0 0 0 0 0 0 0 0 0 0 0 0 0 0 0 0 0 0 0 0 0 0 0 0 0 0 0 0 0 0
0.0867162 3.03408e-13 3.00881e-13 2.52732e-15 0.00832977 0.0125251 0 0 0 0 0 0 0 0 0 0 0 0 0 0 0 0 0 0 0 0 0 0 0 0 0 0 0 0 0 0 0 0 0 0 0 0 0 0 0 0 0 0
0.0911674 2.8702e-13 2.84854e-13 2.16614e-15 0.00754698 0.0115476 0 0 0 0 0 0 0 0 0 0 0 0 0 0 0 0 0 0 0 0 0 0 0 0 0 0 0 0 0 0 0 0 0 0 0 0 0 0 0 0 0 0
0.095847 2.61846e-13 2.60066e-13 1.78063e-15 0.00680027 0.0107542 0 0 0 0 0 0 0 0 0 0 0 0 0 0 0 0 0 0 0 0 0 0 0 0 0 0 0 0 0 0 0 0 0 0 0 0 0 0 0 0 0 0
0.100767 2.32601e-13 2.31182e-13 1.41895e-15 0.00610033 0.0100864 0 0 0 0 0 0 0 0 0 0 0 0 0 0 0 0 0 0 0 0 0 0 0 0 0 0 0 0 0 0 0 0 0 0 0 0 0 0 0 0 0 0
0.105939 2.02856e-13 2.01752e-13 1.10364e-15 0.00544052 0.00948594 0 0 0 0 0 0 0 0 0 0 0 0 0 0 0 0 0 0 0 0 0 0 0 0 0 0 0 0 0 0 0 0 0 0 0 0 0 0 0 0 0 0
0.111377 1.75062e-13 1.74217e-13 8.44921e-16 0.0048264 0.00890793 0 0 0 0 0 0 0 0 0 0 0 0 0 0 0 0 0 0 0 0 0 0 0 0 0 0 0 0 0 0 0 0 0 0 0 0 0 0 0 0 0 0
0.117094 1.50325e-13 1.49686e-13 6.39579e-16 0.00425464 0.00832502 0 0 0 0 0 0 0 0 0 0 0 0 0 0 0 0 0 0 0 0 0 0 0 0 0 0 0 0 0 0 0 0 0 0 0 0 0 0 0 0 0 0
0.123105 1.29243e-13 1.28763e-13 4.79768e-16 0.00371215 0.00772104 0 0 0 0 0 0 0 0 0 0 0 0 0 0 0 0 0 0 0 0 0 0 0 0 0 0 0 0 0 0 0 0 0 0 0 0 0 0 0 0 0 0
0.129424 1.11659e-13 1.11301e-13 3.58265e-16 0.00320856 0.00710651 0 0 0 0 0 0 0 0 0 0 0 0 0 0 0 0 0 0 0 0 0 0 0 0 0 0 0 0 0 0 0 0 0 0 0 0 0 0 0 0 0 0
0.136067 9.74241e-14 9.71576e-14 2.66497e-16 0.00273543 0.00649009 0 0 0 0 0 0 0 0 0 0 0 0 0 0 0 0 0 0 0 0 0 0 0 0 0 0 0 0 0 0 0 0 0 0 0 0 0 0 0 0 0 0
0.143051 8.6159e-14 8.59612e-14 1.97828e-16 0.00229608 0.00588723 0 0 0 0 0 0 0 0 0 0 0 0 0 0 0 0 0 0 0 0 0 0 0 0 0 0 0 0 0 0 0 0 0 0 0 0 0 0 0 0 0 0
0.150394 7.74112e-14 7.72646e-14 1.46557e-16 0.00189323 0.00531055 0 0 0 0 0 0 0 0 0 0 0 0 0 0 0 0 0 0 0 0 0 0 0 0 0 0 0 0 0 0 0 0 0 0 0 0 0 0 0 0 0 0
0.158114 7.10305e-14 7.09222e-14 1.0836e-16 0.00152554 0.00476438 0 0 0 0 0 0 0 0 0 0 0 0 0 0 0 0 0 0 0 0 0 0 0 0 0 0 0 0 0 0 0 0 0 0 0 0 0 0 0 0 0 0
0.16623 6.70831e-14 6.70028e-14 8.02744e-17 0.00119664 0.00425047 0 0 0 0 0 0 0 0 0 0 0 0 0 0 0 0 0 0 0 0 0 0 0 0 0 0 0 0 0 0 0 0 0 0 0 0 0 0 0 0 0 0
0.174762 6.62858e-14 6.62248e-14 6.10117e-17 0.000920434 0.00376925 0 0 0 0 0 0 0 0 0 0 0 0 0 0 0 0 0 0 0 0 0 0 0 0 0 0 0 0 0 0 0 0 0 0 0 0 0 0 0 0 0 0
0.183733 6.94003e-14 6.93501e-14 5.02072e-17 0.000723443 0.00332661 0 0 0 0 0 0 0 0 0 0 0 0 0 0 0 0 0 0 0 0 0 0 0 0 0 0 0 0 0 0 0 0 0 0 0 0 0 0 0 0 0 0
0.193164 7.60675e-14 7.60207e-14 4.68014e-17 0.000615261 0.0029328 0 0 0 0 0 0 0 0 0 0 0 0 0 0 0 0 0 0 0 0 0 0 0 0 0 0 0 0 0 0 0 0 0 0 0 0 0 0 0 0 0 0
0.203079 8.43612e-14 8.43129e-14 4.82327e-17 0.000571741 0.00259437 0 0 0 0 0 0 0 0 0 0 0 0 0 0 0 0 0 0 0 0 0 0 0 0 0 0 0 0 0 0 0 0 0 0 0 0 0 0 0 0 0 0
0.213503 9.14783e-14 9.14274e-14 5.09481e-17 0.000556942 0.00231055 0 0 0 0 0 0 0 0 0 0 0 0 0 0 0 0 0 0 0 0 0 0 0 0 0 0 0 0 0 0 0 0 0 0 0 0 0 0 0 0 0 0
0.224463 9.49151e-14 9.48631e-14 5.19424e-17 0.000547251 0.00207879 0 0 0 0 0 0 0 0 0 0 0 0 0 0 0 0 0 0 0 0 0 0 0 0 0 0 0 0 0 0 0 0 0 0 0 0 0 0 0 0 0 0
0.235984 9.43771e-14 9.43268e-14 5.02329e-17 0.000532257 0.00188846 0 0 0 0 0 0 0 0 0 0 0 0 0 0 0 0 0 0 0 0 0 0 0 0 0 0 0 0 0 0 0 0 0 0 0 0 0 0 0 0 0 0
0.248097 9.0723e-14 9.06766e-14 4.63324e-17 0.000510702 0.00173047 0 0 0 0 0 0 0 0 0 0 0 0 0 0 0 0 0 0 0 0 0 0 0 0 0 0 0 0 0 0 0 0 0 0 0 0 0 0 0 0 0 0
0.260832 8.5136e-14 8.50948e-14 4.11957e-17 0.000483881 0.00159693 0 0 0 0 0 0 0 0 0 0 0 0 0 0 0 0 0 0 0 0 0 0 0 0 0 0 0 0 0 0 0 0 0 0 0 0 0 0 0 0 0 0
0.274221 7.87227e-14 7.86869e-14 3.5803e-17 0.000454799 0.00148098 0 0 0 0 0 0 0 0 0 0 0 0 0 0 0 0 0 0 0 0 0 0 0 0 0 0 0 0 0 0 0 0 0 0 0 0 0 0 0 0 0 0
0.288297 7.19698e-14 7.19392e-14 3.05818e-17 0.000424925 0.0013793 0 0 0 0 0 0 0 0 0 0 0 0 0 0 0 0 0 0 0 0 0 0 0 0 0 0 0 0 0 0 0 0 0 0 0 0 0 0 0 0 0 0
0.303095 6.52014e-14 6.51756e-14 2.57827e-17 0.000395432 0.0012894 0 0 0 0 0 0 0 0 0 0 0 0 0 0 0 0 0 0 0 0 0 0 0 0 0 0 0 0 0 0 0 0 0 0 0 0 0 0 0 0 0 0
0.318653 5.85788e-14 5.85573e-14 2.1506e-17 0.000367129 0.00120943 0 0 0 0 0 0 0 0 0 0 0 0 0 0 0 0 0 0 0 0 0 0 0 0 0 0 0 0 0 0 0 0 0 0 0 0 0 0 0 0 0 0
0.335009 5.1881e-14 5.18634e-14 1.75878e-17 0.000339002 0.00113964 0 0 0 0 0 0 0 0 0 0 0 0 0 0 0 0 0 0 0 0 0 0 0 0 0 0 0 0 0 0 0 0 0 0 0 0 0 0 0 0 0 0
0.352205 4.63887e-14 4.63744e-14 1.42371e-17 0.000306908 0.00106449 0 0 0 0 0 0 0 0 0 0 0 0 0 0 0 0 0 0 0 0 0 0 0 0 0 0 0 0 0 0 0 0 0 0 0 0 0 0 0 0 0 0
0.370284 4.1897e-14 4.18854e-14 1.15703e-17 0.00027616 0.000988358 0 0 0 0 0 0 0 0 0 0 0 0 0 0 0 0 0 0 0 0 0 0 0 0 0 0 0 0 0 0 0 0 0 0 0 0 0 0 0 0 0 0
0.389291 3.80867e-14 3.80772e-14 9.43572e-18 0.000247743 0.000914344 0 0 0 0 0 0 0 0 0 0 0 0 0 0 0 0 0 0 0 0 0 0 0 0 0 0 0 0 0 0 0 0 0 0 0 0 0 0 0 0 0 0
0.409273 3.47823e-14 3.47745e-14 7.71745e-18 0.000221879 0.000843854 0 0 0 0 0 0 0 0 0 0 0 0 0 0 0 0 0 0 0 0 0 0 0 0 0 0 0 0 0 0 0 0 0 0 0 0 0 0 0 0 0 0
0.430281 3.18684e-14 3.18621e-14 6.32624e-18 0.000198512 0.000777573 0 0 0 0 0 0 0 0 0 0 0 0 0 0 0 0 0 0 0 0 0 0 0 0 0 0 0 0 0 0 0 0 0 0 0 0 0 0 0 0 0 0
0.452368 2.92631e-14 2.92579e-14 5.19493e-18 0.000177525 0.000715744 0 0 0 0 0 0 0 0 0 0 0 0 0 0 0 0 0 0 0 0 0 0 0 0 0 0 0 0 0 0 0 0 0 0 0 0 0 0 0 0 0 0
0.475588 2.69226e-14 2.69183e-14 4.27182e-18 0.00015867 0.000658261 0 0 0 0 0 0 0 0 0 0 0 0 0 0 0 0 0 0 0 0 0 0 0 0 0 0 0 0 0 0 0 0 0 0 0 0 0 0 0 0 0 0
0.5 2.4797e-14 2.47935e-14 3.51654e-18 0.000141813 0.00060509 0 0 0 0 0 0 0 0 0 0 0 0 0 0 0 0 0 0 0 0 0 0 0 0 0 0 0 0 0 0 0 0 0 0 0 0 0 0 0 0 0 0
0.525665 2.28611e-14 2.28582e-14 2.89759e-18 0.000126748 0.000555997 0 0 0 0 0 0 0 0 0 0 0 0 0 0 0 0 0 0 0 0 0 0 0 0 0 0 0 0 0 0 0 0 0 0 0 0 0 0 0 0 0 0
0.552648 2.10927e-14 2.10903e-14 2.3887e-18 0.000113248 0.000510664 0 0 0 0 0 0 0 0 0 0 0 0 0 0 0 0 0 0 0 0 0 0 0 0 0 0 0 0 0 0 0 0 0 0 0 0 0 0 0 0 0 0
0.581015 1.94702e-14 1.94682e-14 1.96987e-18 0.000101174 0.000468884 0 0 0 0 0 0 0 0 0 0 0 0 0 0 0 0 0 0 0 0 0 0 0 0 0 0 0 0 0 0 0 0 0 0 0 0 0 0 0 0 0 0
0.610839 1.79822e-14 1.79806e-14 1.62484e-18 9.03584e-05 0.000430379 0 0 0 0 0 0 0 0 0 0 0 0 0 0 0 0 0 0 0 0 0 0 0 0 0 0 0 0 0 0 0 0 0 0 0 0 0 0 0 0 0 0
0.642193 1.66143e-14 1.6613e-14 1.34043e-18 8.06794e-05 0.000394919 0 0 0 0 0 0 0 0 0 0 0 0 0 0 0 0 0 0 0 0 0 0 0 0 0 0 0 0 0 0 0 0 0 0 0 0 0 0 0 0 0 0
0.675157 1.53564e-14 1.53553e-14 1.10591e-18 7.20161e-05 0.000362273 0 0 0 0 0 0 0 0 0 0 0 0 0 0 0 0 0 0 0 0 0 0 0 0 0 0 0 0 0 0 0 0 0 0 0 0 0 0 0 0 0 0
0.709813 1.41991e-14 1.41982e-14 9.12395e-19 6.42574e-05 0.000332232 0 0 0 0 0 0 0 0 0 0 0 0 0 0 0 0 0 0 0 0 0 0 0 0 0 0 0 0 0 0 0 0 0 0 0 0 0 0 0 0 0 0
0.746248 1.31328e-14 1.31321e-14 7.52787e-19 5.7321e-05 0.000304593 0 0 0 0 0 0 0 0 0 0 0 0 0 0 0 0 0 0 0 0 0 0 0 0 0 0 0 0 0 0 0 0 0 0 0 0 0 0 0 0 0 0
0.784553 1.21505e-14 1.21499e-14 6.21097e-19 5.1117e-05 0.000279184 0 0 0 0 0 0 0 0 0 0 0 0 0 0 0 0 0 0 0 0 0 0 0 0 0 0 0 0 0 0 0 0 0 0 0 0 0 0 0 0 0 0
0.824824 1.12454e-14 1.12449e-14 5.12414e-19 4.55666e-05 0.000255825 0 0 0 0 0 0 0 0 0 0 0 0 0 0 0 0 0 0 0 0 0 0 0 0 0 0 0 0 0 0 0 0 0 0 0 0 0 0 0 0 0 0
0.867162 1.04104e-14 1.041e-14 4.22722e-19 4.06056e-05 0.000234368 0 0 0 0 0 0 0 0 0 0 0 0 0 0 0 0 0 0 0 0 0 0 0 0 0 0 0 0 0 0 0 0 0 0 0 0 0 0 0 0 0 0
0.911674 9.64041e-15 9.64006e-15 3.48711e-19 3.61718e-05 0.000214648 0 0 0 0 0 0 0 0 0 0 0 0 0 0 0 0 0 0 0 0 0 0 0 0 0 0 0 0 0 0 0 0 0 0 0 0 0 0 0 0 0 0
0.95847 8.929e-15 8.92871e-15 2.87638e-19 3.2214e-05 0.000196559 0 0 0 0 0 0 0 0 0 0 0 0 0 0 0 0 0 0 0 0 0 0 0 0 0 0 0 0 0 0 0 0 0 0 0 0 0 0 0 0 0 0
1.00767 8.27372e-15 8.27349e-15 2.37282e-19 2.86789e-05 0.000179944 0 0 0 0 0 0 0 0 0 0 0 0 0 0 0 0 0 0 0 0 0 0 0 0 0 0 0 0 0 0 0 0 0 0 0 0 0 0 0 0 0 0
1.05939 7.66787e-15 7.66768e-15 1.95759e-19 2.55298e-05 0.000164718 0 0 0 0 0 0 0 0 0 0 0 0 0 0 0 0 0 0 0 0 0 0 0 0 0 0 0 0 0 0 0 0 0 0 0 0 0 0 0 0 0 0
1.11377 7.10822e-15 7.10805e-15 1.6149e-19 2.27188e-05 0.000150745 0 0 0 0 0 0 0 0 0 0 0 0 0 0 0 0 0 0 0 0 0 0 0 0 0 0 0 0 0 0 0 0 0 0 0 0 0 0 0 0 0 0
1.17094 6.59108e-15 6.59094e-15 1.33204e-19 2.02097e-05 0.000137926 0 0 0 0 0 0 0 0 0 0 0 0 0 0 0 0 0 0 0 0 0 0 0 0 0 0 0 0 0 0 0 0 0 0 0 0 0 0 0 0 0 0
1.23105 6.11264e-15 6.11253e-15 1.09865e-19 1.79734e-05 0.000126175 0 0 0 0 0 0 0 0 0 0 0 0 0 0 0 0 0 0 0 0 0 0 0 0 0 0 0 0 0 0 0 0 0 0 0 0 0 0 0 0 0 0
1.29424 5.67035e-15 5.67026e-15 9.06013e-20 1.59781e-05 0.000115403 0 0 0 0 0 0 0 0 0 0 0 0 0 0 0 0 0 0 0 0 0 0 0 0 0 0 0 0 0 0 0 0 0 0 0 0 0 0 0 0 0 0
1.36067 5.26117e-15 5.2611e-15 7.47077e-20 1.41998e-05 0.000105527 0 0 0 0 0 0 0 0 0 0 0 0 0 0 0 0 0 0 0 0 0 0 0 0 0 0 0 0 0 0 0 0 0 0 0 0 0 0 0 0 0 0
1.43051 4.88233e-15 4.88227e-15 6.15972e-20 1.26163e-05 9.64809e-05 0 0 0 0 0 0 0 0 0 0 0 0 0 0 0 0 0 0 0 0 0 0 0 0 0 0 0 0 0 1.4013e-45 0 1.4013e-45 0 1.4013e-45 0 1.4013e-45 0 1.4013e-45 0 1.4013e-45 0 2.8026e-45
1.50394 4.53184e-15 4.53179e-15 5.07802e-20 1.12052e-05 8.81947e-05 0 0 0 0 0 0 0 0 0 1.4013e-45 0 1.4013e-45 0 2.8026e-45 0 4.2039e-45 0 5.60519e-45 0 7.00649e-45 0 9.80909e-45 0 1.4013e-44 0 1.68156e-44 0 2.24208e-44 0 2.66247e-44 0 3.36312e-44 0 4.06377e-44 0 4.90454e-44 0 5.74532e-44 0 6.86636e-44 0 7.9874e-44
1.58114 4.20722e-15 4.20718e-15 4.18585e-20 9.94922e-06 8.06063e-05 0 0 0 1.4013e-45 0 5.60519e-45 0 1.54143e-44 0 3.08286e-44 0 5.32493e-44 0 8.54792e-44 0 1.27518e-43 0 1.82169e-43 0 2.49431e-43 0 3.32108e-43 0 4.34403e-43 0 5.52112e-43 0 6.9084e-43 0 8.56193e-43 0 1.04116e-42 0 1.25416e-42 0 1.49519e-42 0 1.77545e-42 0 2.08093e-42 0 2.42285e-42
1.6623 3.90671e-15 3.90668e-15 3.44996e-20 8.83085e-06 7.36576e-05 0 9.80909e-45 0 4.34403e-44 0 1.93379e-43 0 4.83448e-43 0 9.48679e-43 0 1.62831e-42 0 2.55737e-42 0 3.74847e-42 0 5.2871e-42 0 7.15503e-42 0 9.41532e-42 0 1.21675e-41 0 1.53554e-41 0 1.90633e-41 0 2.34241e-41 0 2.83371e-41 0 3.39114e-41 0 4.0199e-41 0 4.74087e-41 0 5.53135e-41 0 6.40898e-41
1.74763 3.62817e-15 3.62814e-15 2.84313e-20 7.83628e-06 6.72986e-05 0 2.94273e-43 0 1.21493e-42 0 5.35997e-42 0 1.30923e-41 0 2.52206e-41 0 4.25378e-41 0 6.57994e-41 0 9.53836e-41 0 1.32861e-40 0 1.78141e-40 0 2.32418e-40 0 2.97475e-40 0 3.72652e-40 0 4.59476e-40 0 5.60255e-40 0 6.73618e-40 0 8.01567e-40 0 9.45074e-40 0 1.10761e-39 0 1.28597e-39 0 1.4831e-39
1.83733 3.37027e-15 3.37024e-15 2.34268e-20 6.95101e-06 6.14766e-05 0 7.18306e-42 0 2.93306e-41 0 1.26536e-40 0 3.04312e-40 0 5.77561e-40 0 9.60897e-40 0 1.46828e-39 0 2.10843e-39 0 2.90699e-39 0 3.86613e-39 0 5.00618e-39 0 6.35549e-39 0 7.9088e-39 0 9.69097e-39 0 1.17374e-38 0 1.40336e-38 0 1.66109e-38 0 1.94868e-38 0 2.27119e-38 0 2.62481e-38 0 3.01393e-38
1.93164 3.1312e-15 3.13118e-15 1.9301e-20 6.16408e-06 5.61504e-05 0 1.51357e-40 0 6.08451e-40 0 2.57217e-39 0 6.10473e-39 0 1.14481e-38 0 1.88383e-38 0 2.85024e-38 0 4.06033e-38 0 5.55139e-38 0 7.33165e-38 0 9.43179e-38 0 1.18922e-37 0 1.47123e-37 0 1.79285e-37 0 2.15895e-37 0 2.56839e-37 0 3.0256e-37 0 3.53331e-37 0 4.09819e-37 0 4.71639e-37 0 5.39381e-37
2.03079 2.90954e-15 2.90953e-15 1.59042e-20 5.46623e-06 5.12819e-05 0 2.79522e-39 0 1.09744e-38 0 4.54025e-38 0 1.06438e-37 0 1.97544e-37 0 3.2209e-37 0 4.83333e-37 0 6.83833e-37 0 9.28444e-37 0 1.21884e-36 0 1.55915e-36 0 1.95454e-36 0 2.40576e-36 0 2.91754e-36 0 3.49598e-36 0 4.14061e-36 0 4.85709e-36 0 5.64918e-36 0 6.52486e-36 0 7.48085e-36 0 8.52435e-36
2.13503 2.7044e-15 2.70438e-15 1.31043e-20 4.84556e-06 4.68274e-05 0 4.60414e-38 0 1.74439e-37 0 7.02838e-37 0 1.62624e-36 0 2.98857e-36 0 4.83246e-36 0 7.19933e-36 0 1.01236e-35 0 1.36623e-35 0 1.7841e-35 0 2.27093e-35 0 2.83274e-35 0 3.47114e-35 0 4.1917e-35 0 5.00136e-35 0 5.90048e-35 0 6.89559e-35 0 7.99131e-35 0 9.19635e-35 0 1.05084e-34 0 1.19355e-34
2.24463 2.51399e-15 2.51398e-15 1.07964e-20 4.29455e-06 4.27553e-05 0 6.88616e-37 0 2.47943e-36 0 9.64584e-36 0 2.19718e-35 0 3.99526e-35 0 6.40684e-35 0 9.47865e-35 0 1.3251e-34 0 1.77845e-34 0 2.31111e-34 0 2.92846e-34 0 3.63681e-34 0 4.43849e-34 0 5.33939e-34 0 6.34671e-34 0 7.46152e-34 0 8.69066e-34 0 1.00391e-33 0 1.15158e-33 0 1.31191e-33 0 1.48574e-33
2.35984 2.33738e-15 2.33737e-15 8.89373e-21 3.80501e-06 3.90313e-05 0 9.49792e-36 0 3.19964e-35 0 1.18801e-34 0 2.65243e-34 0 4.76306e-34 0 7.56814e-34 0 1.11147e-33 0 1.54443e-33 0 2.06151e-33 0 2.66615e-33 0 3.36355e-33 0 4.15976e-33 0 5.05742e-33 0 6.06216e-33 0 7.18079e-33 0 8.41477e-33 0 9.77058e-33 0 1.12531e-32 0 1.28705e-32 0 1.46221e-32 0 1.65155e-32
2.48097 2.17358e-15 2.17357e-15 7.32567e-21 3.37033e-06 3.56257e-05 0 1.21889e-34 0 3.79888e-34 0 1.32946e-33 0 2.89262e-33 0 5.11422e-33 0 8.03768e-33 0 1.17054e-32 0 1.61552e-32 0 2.14378e-32 0 2.75852e-32 0 3.46431e-32 0 4.26641e-32 0 5.16731e-32 0 6.17191e-32 0 7.28609e-32 0 8.51129e-32 0 9.85314e-32 0 1.13159e-31 0 1.29065e-31 0 1.46246e-31 0 1.64768e-31
2.60832 2.02159e-15 2.02158e-15 6.0329e-21 2.98424e-06 3.25128e-05 0 1.4561e-33 0 4.18574e-33 0 1.36684e-32 0 2.88036e-32 0 4.99536e-32 0 7.74688e-32 0 1.11692e-31 0 1.52931e-31 0 2.01587e-31 0 2.57923e-31 0 3.22301e-31 0 3.95137e-31 0 4.76634e-31 0 5.67182e-31 0 6.6724e-31 0 7.76928e-31 0 8.96688e-31 0 1.02686e-30 0 1.16798e-30 0 1.32002e-30 0 1.4835e-30
2.74221 1.88058e-15 1.88057e-15 4.96777e-21 2.64162e-06 2.96672e-05 0 1.6097e-32 0 4.29144e-32 0 1.30163e-31 0 2.64315e-31 0 4.47994e-31 0 6.83747e-31 0 9.74066e-31 0 1.3212e-30 0 1.72803e-30 0 2.19647e-30 0 2.72913e-30 0 3.32901e-30 0 3.99756e-30 0 4.73758e-30 0 5.55238e-30 0 6.44277e-30 0 7.41194e-30 0 8.46231e-30 0 9.59768e-30 0 1.08179e-29 0 1.21266e-29
2.88297 1.74972e-15 1.74971e-15 4.09008e-21 2.33757e-06 2.70668e-05 0 1.63306e-31 0 4.08302e-31 0 1.15263e-30 0 2.24946e-30 0 3.71591e-30 0 5.56863e-30 0 7.82398e-30 0 1.04966e-29 0 1.36056e-29 0 1.71632e-29 0 2.11866e-29 0 2.56954e-29 0 3.06989e-29 0 3.62154e-29 0 4.22667e-29 0 4.88575e-29 0 5.60087e-29 0 6.3736e-29 0 7.20644e-29 0 8.0992e-29 0 9.05427e-29
3.03095 1.62818e-15 1.62818e-15 3.36496e-21 2.0667e-06 2.46859e-05 0 1.50928e-30 0 3.58525e-30 0 9.48956e-30 0 1.78062e-29 0 2.86354e-29 0 4.20754e-29 0 5.82231e-29 0 7.71646e-29 0 9.90143e-29 0 1.23843e-28 0 1.51754e-28 0 1.82865e-28 0 2.17228e-28 0 2.54952e-28 0 2.96168e-28 0 3.40899e-28 0 3.89273e-28 0 4.4138e-28 0 4.97371e-28 0 5.57228e-28 0 6.21095e-28
3.18653 1.51672e-15 1.51672e-15 2.76947e-21 1.82596e-06 2.25089e-05 0 1.266e-29 0 2.89206e-29 0 7.2501e-29 0 1.31202e-28 0 2.05549e-28 0 2.96065e-28 0 4.03268e-28 0 5.27615e-28 0 6.69734e-28 0 8.29992e-28 0 1.00895e-27 0 1.20726e-27 0 1.42517e-27 0 1.66329e-27 0 1.92235e-27 0 2.20242e-27 0 2.50421e-27 0 2.82822e-27 0 3.17528e-27 0 3.54524e-27 0 3.93889e-27
3.35009 1.4132e-15 1.4132e-15 2.28031e-21 1.61357e-06 2.05313e-05 0 9.61128e-29 0 2.13255e-28 0 5.11696e-28 0 8.97244e-28 0 1.37236e-27 0 1.93953e-27 0 2.60126e-27 0 3.35971e-27 0 4.21806e-27 0 5.17798e-27 0 6.24227e-27 0 7.41426e-27 0 8.69498e-27 0 1.00875e-26 0 1.15955e-26 0 1.32192e-26 0 1.49622e-26 0 1.68268e-26 0 1.88174e-26 0 2.09329e-26 0 2.31774e-26
3.52205 1.31439e-15 1.31439e-15 1.87992e-21 1.43026e-06 1.8752e-05 0 6.59246e-28 0 1.43159e-27 0 3.31899e-27 0 5.66843e-27 0 8.48998e-27 0 1.17942e-26 0 1.5592e-26 0 1.98923e-26 0 2.471e-26 0 3.00516e-26 0 3.59299e-26 0 4.23607e-26 0 4.93472e-26 0 5.69037e-26 0 6.50481e-26 0 7.37788e-26 0 8.31132e-26 0 9.30622e-26 0 1.03647e-25 0 1.14859e-25 0 1.26718e-25
3.70284 1.22123e-15 1.22123e-15 1.54544e-21 1.26548e-06 1.70885e-05 0 4.09578e-27 0 8.75383e-27 0 1.97624e-26 0 3.30367e-26 0 4.86118e-26 0 6.6527e-26 0 8.68239e-26 0 1.09536e-25 0 1.34726e-25 0 1.62417e-25 0 1.92661e-25 0 2.25526e-25 0 2.61019e-25 0 2.99202e-25 0 3.40153e-25 0 3.83857e-25 0 4.30388e-25 0 4.79793e-25 0 5.32164e-25 0 5.87455e-25 0 6.45755e-25
3.89291 1.13751e-15 1.13751e-15 1.27143e-21 1.11773e-06 1.55764e-05 0 2.31934e-26 0 4.89868e-26 0 1.08349e-25 0 1.78047e-25 0 2.58178e-25 0 3.48866e-25 0 4.50252e-25 0 5.6244e-25 0 6.8568e-25 0 8.20024e-25 0 9.65678e-25 0 1.12292e-24 0 1.29173e-24 0 1.47236e-24 0 1.66513e-24 0 1.86994e-24 0 2.08708e-24 0 2.31674e-24 0 2.55931e-24 0 2.81453e-24 0 3.08278e-24
4.09273 1.05964e-15 1.05964e-15 1.04604e-21 9.87165e-07 1.41976e-05 0 1.19815e-25 0 2.50812e-25 0 5.46033e-25 0 8.85116e-25 0 1.26822e-24 0 1.69565e-24 0 2.1678e-24 0 2.68492e-24 0 3.24794e-24 0 3.85687e-24 0 4.51245e-24 0 5.21573e-24 0 5.96646e-24 0 6.76556e-24 0 7.6143e-24 0 8.51201e-24 0 9.45991e-24 0 1.04586e-23 0 1.15096e-23 0 1.26117e-23 1.4013e-45 1.37665e-23
4.30281 9.87279e-16 9.87279e-16 8.60435e-22 8.71521e-07 1.29389e-05 0 5.6672e-25 0 1.17825e-24 0 2.53366e-24 0 4.06264e-24 0 5.76482e-24 0 7.64061e-24 0 9.69084e-24 0 1.19158e-23 0 1.43185e-23 0 1.68985e-23 0 1.96581e-23 0 2.2601e-23 0 2.57255e-23 0 2.90349e-23 0 3.25338e-23 0 3.62189e-23 1.4013e-45 4.00946e-23 4.2039e-45 4.41629e-23 1.12104e-44 4.84293e-23 2.8026e-44 5.28886e-23 6.72623e-44 5.75462e-23
4.52368 9.20096e-16 9.20095e-16 7.07798e-22 7.69266e-07 1.1791e-05 0 2.46357e-24 0 5.09482e-24 0 1.08497e-23 0 1.72463e-23 0 2.42798e-23 0 3.19488e-23 0 4.0254e-23 0 4.91938e-23 0 5.87781e-23 0 6.90022e-23 0 7.98734e-23 0 9.14036e-23 0 1.03585e-22 2.8026e-45 1.16427e-22 9.80909e-45 1.29946e-22 3.36312e-44 1.44128e-22 1.02295e-43 1.58987e-22 2.83062e-43 1.7453e-22 7.62306e-43 1.90776e-22 1.89876e-42 2.07703e-22 4.39587e-42 2.2533e-22
4.75588 8.57714e-16 8.57713e-16 5.82091e-22 6.78654e-07 1.07427e-05 0 9.87897e-24 0 2.03448e-23 0 4.29908e-23 0 6.78574e-23 0 9.49173e-23 0 1.24157e-22 0 1.55569e-22 0 1.89142e-22 0 2.24903e-22 0 2.6283e-22 1.4013e-45 3.02942e-22 1.12104e-44 3.45275e-22 5.1848e-44 3.89795e-22 1.98984e-43 4.36533e-22 6.96445e-43 4.85538e-22 2.22246e-42 5.36756e-22 6.50343e-42 5.90234e-22 1.70482e-41 6.45988e-22 4.37583e-41 7.04079e-22 1.04296e-40 7.64429e-22 2.31722e-40 8.27099e-22
