# 0.000434067 0 90 : grain size, compostion index, size index
# Heating and cooling timescale: 1.41778e-05 9.89325e+11
# Ratio of heating to cooling to determine stochastic cutoff: 100
# Equilibrium emission is recorded even for those grains in the stochastic regime.
# Emission spectrum was computed for: 
# Type: ISRF
# Scales: 0.25 0.5 1 1.5 2 2.5 3 3.5 4 4.5 5 5.5 6 6.5 7 7.5 8 8.5 9 9.5 10
# StochasticallyHeated: 0 0 0 0 0 0 0 0 0 0 0 0 0 0 0 0 0 0 0 0 0
# Temperature: -1
# Wavelength  CExt  CAbs  CSca  Albedo G EqEm1 StEm1 EqEm2 StEm2 EqEm3 StEm3 EqEm4 StEm4 EqEm5 StEm5 EqEm6 StEm6 EqEm7 StEm7 EqEm8 StEm8 EqEm9 StEm9 EqEm10 StEm10 EqEm11 StEm11 EqEm12 StEm12 EqEm13 StEm13 EqEm14 StEm14 EqEm15 StEm15 EqEm16 StEm16 EqEm17 StEm17 EqEm18 StEm18 EqEm19 StEm19 EqEm20 StEm20 EqEm21 StEm21
0.05 1.19285e-06 5.61947e-07 6.30898e-07 0.528902 0.989851 0 0 0 0 0 0 0 0 0 0 0 0 0 0 0 0 0 0 0 0 0 0 0 0 0 0 0 0 0 0 0 0 0 0 0 0 0 0 0 0 0 0
0.0525665 1.19463e-06 5.5143e-07 6.43202e-07 0.53841 0.983231 0 0 0 0 0 0 0 0 0 0 0 0 0 0 0 0 0 0 0 0 0 0 0 0 0 0 0 0 0 0 0 0 0 0 0 0 0 0 0 0 0 0
0.0552647 1.1958e-06 5.48357e-07 6.47443e-07 0.541431 0.979642 0 0 0 0 0 0 0 0 0 0 0 0 0 0 0 0 0 0 0 0 0 0 0 0 0 0 0 0 0 0 0 0 0 0 0 0 0 0 0 0 0 0
0.0581015 1.19676e-06 5.47077e-07 6.49683e-07 0.542868 0.977155 0 0 0 0 0 0 0 0 0 0 0 0 0 0 0 0 0 0 0 0 0 0 0 0 0 0 0 0 0 0 0 0 0 0 0 0 0 0 0 0 0 0
0.0610839 1.19761e-06 5.46505e-07 6.51105e-07 0.54367 0.975299 0 0 0 0 0 0 0 0 0 0 0 0 0 0 0 0 0 0 0 0 0 0 0 0 0 0 0 0 0 0 0 0 0 0 0 0 0 0 0 0 0 0
0.0642193 1.1984e-06 5.46001e-07 6.52397e-07 0.544391 0.973672 0 0 0 0 0 0 0 0 0 0 0 0 0 0 0 0 0 0 0 0 0 0 0 0 0 0 0 0 0 0 0 0 0 0 0 0 0 0 0 0 0 0
0.0675157 1.19916e-06 5.45201e-07 6.53963e-07 0.545349 0.971962 0 0 0 0 0 0 0 0 0 0 0 0 0 0 0 0 0 0 0 0 0 0 0 0 0 0 0 0 0 0 0 0 0 0 0 0 0 0 0 0 0 0
0.0709813 1.19995e-06 5.4405e-07 6.55899e-07 0.546606 0.970001 0 0 0 0 0 0 0 0 0 0 0 0 0 0 0 0 0 0 0 0 0 0 0 0 0 0 0 0 0 0 0 0 0 0 0 0 0 0 0 0 0 0
0.0746248 1.20077e-06 5.4268e-07 6.58093e-07 0.548058 0.967781 0 0 0 0 0 0 0 0 0 0 0 0 0 0 0 0 0 0 0 0 0 0 0 0 0 0 0 0 0 0 0 0 0 0 0 0 0 0 0 0 0 0
0.0784553 1.20163e-06 5.41319e-07 6.60315e-07 0.549514 0.965464 0 0 0 0 0 0 0 0 0 0 0 0 0 0 0 0 0 0 0 0 0 0 0 0 0 0 0 0 0 0 0 0 0 0 0 0 0 0 0 0 0 0
0.0824824 1.20253e-06 5.40021e-07 6.62504e-07 0.550928 0.96311 0 0 0 0 0 0 0 0 0 0 0 0 0 0 0 0 0 0 0 0 0 0 0 0 0 0 0 0 0 0 0 0 0 0 0 0 0 0 0 0 0 0
0.0867162 1.20345e-06 5.38758e-07 6.64695e-07 0.552323 0.960707 0 0 0 0 0 0 0 0 0 0 0 0 0 0 0 0 0 0 0 0 0 0 0 0 0 0 0 0 0 0 0 0 0 0 0 0 0 0 0 0 0 0
0.0911674 1.20441e-06 5.37522e-07 6.66887e-07 0.553705 0.958244 0 0 0 0 0 0 0 0 0 0 0 0 0 0 0 0 0 0 0 0 0 0 0 0 0 0 0 0 0 0 0 0 0 0 0 0 0 0 0 0 0 0
0.095847 1.20541e-06 5.36338e-07 6.69072e-07 0.555058 0.95573 0 0 0 0 0 0 0 0 0 0 0 0 0 0 0 0 0 0 0 0 0 0 0 0 0 0 0 0 0 0 0 0 0 0 0 0 0 0 0 0 0 0
0.100767 1.20646e-06 5.35276e-07 6.71184e-07 0.556325 0.953221 0 0 0 0 0 0 0 0 0 0 0 0 0 0 0 0 0 0 0 0 0 0 0 0 0 0 0 0 0 0 0 0 0 0 0 0 0 0 0 0 0 0
0.105939 1.20757e-06 5.34605e-07 6.72964e-07 0.557288 0.950921 0 0 0 0 0 0 0 0 0 0 0 0 0 0 0 0 0 0 0 0 0 0 0 0 0 0 0 0 0 0 0 0 0 0 0 0 0 0 0 0 0 0
0.111377 1.20868e-06 5.34526e-07 6.74151e-07 0.557759 0.949201 0 0 0 0 0 0 0 0 0 0 0 0 0 0 0 0 0 0 0 0 0 0 0 0 0 0 0 0 0 0 0 0 0 0 0 0 0 0 0 0 0 0
0.117094 1.20976e-06 5.34836e-07 6.74924e-07 0.557899 0.94803 0 0 0 0 0 0 0 0 0 0 0 0 0 0 0 0 0 0 0 0 0 0 0 0 0 0 0 0 0 0 0 0 0 0 0 0 0 0 0 0 0 0
0.123105 1.21087e-06 5.34897e-07 6.75974e-07 0.558254 0.946648 0 0 0 0 0 0 0 0 0 0 0 0 0 0 0 0 0 0 0 0 0 0 0 0 0 0 0 0 0 0 0 0 0 0 0 0 0 0 0 0 0 0
0.129424 1.21204e-06 5.35372e-07 6.76672e-07 0.55829 0.945564 0 0 0 0 0 0 0 0 0 0 0 0 0 0 0 0 0 0 0 0 0 0 0 0 0 0 0 0 0 0 0 0 0 0 0 0 0 0 0 0 0 0
0.136067 1.21314e-06 5.36812e-07 6.76333e-07 0.557504 0.94567 0 0 0 0 0 0 0 0 0 0 0 0 0 0 0 0 0 0 0 0 0 0 0 0 0 0 0 0 0 0 0 0 0 0 0 0 0 0 0 0 0 0
0.143051 1.21424e-06 5.37681e-07 6.76558e-07 0.557187 0.945377 0 0 0 0 0 0 0 0 0 0 0 0 0 0 0 0 0 0 0 0 0 0 0 0 0 0 0 0 0 0 0 0 0 0 0 0 0 0 0 0 0 0
0.150394 1.21542e-06 5.39756e-07 6.75667e-07 0.555911 0.946034 0 0 0 0 0 0 0 0 0 0 0 0 0 0 0 0 0 0 0 0 0 0 0 0 0 0 0 0 0 0 0 0 0 0 0 0 0 0 0 0 0 0
0.158114 1.21607e-06 5.44617e-07 6.71455e-07 0.55215 0.950603 0 0 0 0 0 0 0 0 0 0 0 0 0 0 0 0 0 0 0 0 0 0 0 0 0 0 0 0 0 0 0 0 0 0 0 0 0 0 0 0 0 0
0.16623 1.21638e-06 5.45244e-07 6.71133e-07 0.551748 0.952039 0 0 0 0 0 0 0 0 0 0 0 0 0 0 0 0 0 0 0 0 0 0 0 0 0 0 0 0 0 0 0 0 0 0 0 0 0 0 0 0 0 0
0.174762 1.21709e-06 5.4139e-07 6.75702e-07 0.555177 0.948661 0 0 0 0 0 0 0 0 0 0 0 0 0 0 0 0 0 0 0 0 0 0 0 0 0 0 0 0 0 0 0 0 0 0 0 0 0 0 0 0 0 0
0.183733 1.21821e-06 5.35392e-07 6.82823e-07 0.560511 0.942612 0 0 0 0 0 0 0 0 0 0 0 0 0 0 0 0 0 0 0 0 0 0 0 0 0 0 0 0 0 0 0 0 0 0 0 0 0 0 0 0 0 0
0.193164 1.2198e-06 5.26639e-07 6.93165e-07 0.568259 0.933059 0 0 0 0 0 0 0 0 0 0 0 0 0 0 0 0 0 0 0 0 0 0 0 0 0 0 0 0 0 0 0 0 0 0 0 0 0 0 0 0 0 0
0.203079 1.22201e-06 5.1782e-07 7.04191e-07 0.576256 0.921727 0 0 0 0 0 0 0 0 0 0 0 0 0 0 0 0 0 0 0 0 0 0 0 0 0 0 0 0 0 0 0 0 0 0 0 0 0 0 0 0 0 0
0.213503 1.22426e-06 5.11324e-07 7.12935e-07 0.58234 0.912276 0 0 0 0 0 0 0 0 0 0 0 0 0 0 0 0 0 0 0 0 0 0 0 0 0 0 0 0 0 0 0 0 0 0 0 0 0 0 0 0 0 0
0.224463 1.22654e-06 5.0592e-07 7.2062e-07 0.587523 0.903787 0 0 0 0 0 0 0 0 0 0 0 0 0 0 0 0 0 0 0 0 0 0 0 0 0 0 0 0 0 0 0 0 0 0 0 0 0 0 0 0 0 0
0.235984 1.22888e-06 5.00476e-07 7.28405e-07 0.592739 0.89526 0 0 0 0 0 0 0 0 0 0 0 0 0 0 0 0 0 0 0 0 0 0 0 0 0 0 0 0 0 0 0 0 0 0 0 0 0 0 0 0 0 0
0.248097 1.23153e-06 4.94043e-07 7.37488e-07 0.598838 0.88518 0 0 0 0 0 0 0 0 0 0 0 0 0 0 0 0 0 0 0 0 0 0 0 0 0 0 0 0 0 0 0 0 0 0 0 0 0 0 0 0 0 0
0.260832 1.23433e-06 4.89459e-07 7.44873e-07 0.603463 0.876622 0 0 0 0 0 0 0 0 0 0 0 0 0 0 0 0 0 0 0 0 0 0 0 0 0 0 0 0 0 0 0 0 0 0 0 0 0 0 0 0 0 0
0.274221 1.23719e-06 4.86236e-07 7.50956e-07 0.606984 0.869433 0 0 0 0 0 0 0 0 0 0 0 0 0 0 0 0 0 0 0 0 0 0 0 0 0 0 0 0 0 0 0 0 0 0 0 0 0 0 0 0 0 0
0.288297 1.24004e-06 4.84014e-07 7.56023e-07 0.609678 0.863492 0 0 0 0 0 0 0 0 0 0 0 0 0 0 0 0 0 0 0 0 0 0 0 0 0 0 0 0 0 0 0 0 0 0 0 0 0 0 0 0 0 0
0.303095 1.24296e-06 4.82488e-07 7.60475e-07 0.611824 0.858227 0 0 0 0 0 0 0 0 0 0 0 0 0 0 0 0 0 0 0 0 0 0 0 0 0 0 0 0 0 0 0 0 0 0 0 0 0 0 0 0 0 0
0.318653 1.2459e-06 4.81509e-07 7.6439e-07 0.613525 0.853674 0 0 0 0 0 0 0 0 0 0 0 0 0 0 0 0 0 0 0 0 0 0 0 0 0 0 0 0 0 0 0 0 0 0 0 0 0 0 0 0 0 0
0.335009 1.24888e-06 4.80869e-07 7.68012e-07 0.61496 0.849524 0 0 0 0 0 0 0 0 0 0 0 0 0 0 0 0 0 0 0 0 0 0 0 0 0 0 0 0 0 0 0 0 0 0 0 0 0 0 0 0 0 0
0.352205 1.25192e-06 4.80552e-07 7.71364e-07 0.616146 0.845742 0 0 0 0 0 0 0 0 0 0 0 0 0 0 0 0 0 0 0 0 0 0 0 0 0 0 0 0 0 0 0 0 0 0 0 0 0 0 0 0 0 0
0.370284 1.25502e-06 4.80291e-07 7.74731e-07 0.617305 0.842037 0 0 0 0 0 0 0 0 0 0 0 0 0 0 0 0 0 0 0 0 0 0 0 0 0 0 0 0 0 0 0 0 0 0 0 0 0 0 0 0 0 0
0.389291 1.2582e-06 4.80158e-07 7.78038e-07 0.618376 0.838471 0 0 0 0 0 0 0 0 0 0 0 0 0 0 0 0 0 0 0 0 0 0 0 0 0 0 0 0 0 0 0 0 0 0 0 0 0 0 0 0 0 0
0.409273 1.26145e-06 4.79991e-07 7.81462e-07 0.619493 0.834854 0 0 0 0 0 0 0 0 0 0 0 0 0 0 0 0 0 0 0 0 0 0 0 0 0 0 0 0 0 0 0 0 0 0 0 0 0 0 0 0 0 0
0.430281 1.2648e-06 4.79849e-07 7.84952e-07 0.620613 0.831214 0 0 0 0 0 0 0 0 0 0 0 0 0 0 0 0 0 0 0 0 0 0 0 0 0 0 0 0 0 0 0 0 0 0 0 0 0 0 0 0 0 0
0.452368 1.26821e-06 4.79887e-07 7.88319e-07 0.621601 0.827705 0 0 0 0 0 0 0 0 0 0 0 0 0 0 0 0 0 0 0 0 0 0 0 0 0 0 0 0 0 0 0 0 0 0 0 0 0 0 0 0 0 0
0.475588 1.27167e-06 4.80004e-07 7.91664e-07 0.62254 0.824238 0 0 0 0 0 0 0 0 0 0 0 0 0 0 0 0 0 0 0 0 0 0 0 0 0 0 0 0 0 0 0 0 0 0 0 0 0 0 0 0 0 0
0.5 1.27512e-06 4.80484e-07 7.94634e-07 0.623185 0.821137 0 0 0 0 0 0 0 0 0 0 0 0 0 0 0 0 0 0 0 0 0 0 0 0 0 0 0 0 0 0 0 0 0 0 0 0 0 0 0 0 0 0
0.525665 1.27853e-06 4.81281e-07 7.97251e-07 0.623567 0.818407 0 0 0 0 0 0 0 0 0 0 0 0 0 0 0 0 0 0 0 0 0 0 0 0 0 0 0 0 0 0 0 0 0 0 0 0 0 0 0 0 0 0
0.552648 1.28191e-06 4.8235e-07 7.99556e-07 0.623725 0.816023 0 0 0 0 0 0 0 0 0 0 0 0 0 0 0 0 0 0 0 0 0 0 0 0 0 0 0 0 0 0 0 0 0 0 0 0 0 0 0 0 0 0
0.581015 1.28526e-06 4.83585e-07 8.01675e-07 0.623746 0.813865 0 0 0 0 0 0 0 0 0 0 0 0 0 0 0 0 0 0 0 0 0 0 0 0 0 0 0 0 0 0 0 0 0 0 0 0 0 0 0 0 0 0
0.610839 1.28861e-06 4.84862e-07 8.03752e-07 0.623734 0.811777 0 0 0 0 0 0 0 0 0 0 0 0 0 0 0 0 0 0 0 0 0 0 0 0 0 0 0 0 0 0 0 0 0 0 0 0 0 0 0 0 0 0
0.642193 1.29198e-06 4.86193e-07 8.05782e-07 0.623682 0.809774 0 0 0 0 0 0 0 0 0 0 0 0 0 0 0 0 0 0 0 0 0 0 0 0 0 0 0 0 0 0 0 0 0 0 0 0 0 0 0 0 0 0
0.675157 1.29536e-06 4.87519e-07 8.07842e-07 0.623643 0.807779 0 0 0 0 0 0 0 0 0 0 0 0 0 0 0 0 0 0 0 0 0 0 0 0 0 0 0 0 0 0 0 0 0 0 0 0 0 0 0 0 0 0
0.709813 1.29875e-06 4.88838e-07 8.09914e-07 0.623609 0.805767 0 0 0 0 0 0 0 0 0 0 0 0 0 0 0 0 0 0 0 0 0 0 0 0 0 0 0 0 0 0 0 0 0 0 0 0 0 0 0 0 0 0
0.746248 1.30215e-06 4.90214e-07 8.11932e-07 0.623534 0.803814 0 0 0 0 0 0 0 0 0 0 0 0 0 0 0 0 0 0 0 0 0 0 0 0 0 0 0 0 0 0 0 0 0 0 0 0 0 0 0 0 0 0
0.784553 1.30549e-06 4.91687e-07 8.13807e-07 0.623371 0.801951 0 0 0 0 0 0 0 0 0 0 0 0 0 0 0 0 0 0 0 0 0 0 0 0 0 0 0 0 0 0 0 0 0 0 0 0 0 0 0 0 0 0
0.824824 1.30875e-06 4.93549e-07 8.15201e-07 0.622885 0.800527 0 0 0 0 0 0 0 0 0 0 0 0 0 0 0 0 0 0 0 0 0 0 0 0 0 0 0 0 0 0 0 0 0 0 0 0 0 0 0 0 0 0
0.867162 1.31201e-06 4.9583e-07 8.16179e-07 0.622083 0.799586 0 0 0 0 0 0 0 0 0 0 0 0 0 0 0 0 0 0 0 0 0 0 0 0 0 0 0 0 0 0 0 0 0 0 0 0 0 0 0 0 0 0
0.911674 1.31539e-06 4.98205e-07 8.17187e-07 0.62125 0.798724 0 0 0 0 0 0 0 0 0 0 0 0 0 0 0 0 0 0 0 0 0 0 0 0 0 0 0 0 0 0 0 0 0 0 0 0 0 0 0 0 0 0
0.95847 1.31898e-06 5.00283e-07 8.18695e-07 0.620704 0.797471 0 0 0 0 0 0 0 0 0 0 0 0 0 0 0 0 0 0 0 0 0 0 0 0 0 0 0 0 0 0 0 0 0 0 0 0 0 0 0 0 0 0
1.00767 1.32265e-06 5.02168e-07 8.20477e-07 0.62033 0.79593 0 0 0 0 0 0 0 0 0 0 0 0 0 0 0 0 0 0 0 0 0 0 0 0 0 0 0 0 0 0 0 0 0 0 0 0 0 0 0 0 0 0
1.05939 1.32636e-06 5.04141e-07 8.22221e-07 0.619907 0.794418 0 0 0 0 0 0 0 0 0 0 0 0 0 0 0 0 0 0 0 0 0 0 0 0 0 0 0 0 0 0 0 0 0 0 0 0 0 0 0 0 0 0
1.11377 1.33015e-06 5.06175e-07 8.23977e-07 0.619461 0.7929 0 0 0 0 0 0 0 0 0 0 0 0 0 0 0 0 0 0 0 0 0 0 0 0 0 0 0 0 0 0 0 0 0 0 0 0 0 0 0 0 0 0
1.17094 1.33403e-06 5.0815e-07 8.25876e-07 0.619086 0.791234 0 0 0 0 0 0 0 0 0 0 0 0 0 0 0 0 0 0 0 0 0 0 0 0 0 0 0 0 0 0 0 0 0 0 0 0 0 0 0 0 0 0
1.23105 1.33799e-06 5.10165e-07 8.27822e-07 0.618707 0.789528 0 0 0 0 0 0 0 0 0 0 0 0 0 0 0 0 0 0 0 0 0 0 0 0 0 0 0 0 0 0 0 0 0 0 0 0 0 0 0 0 0 0
1.29424 1.34198e-06 5.12297e-07 8.29687e-07 0.618254 0.78786 0 0 0 0 0 0 0 0 0 0 0 0 0 0 0 0 0 0 0 0 0 0 0 0 0 0 0 0 0 0 0 0 0 0 0 0 0 0 0 0 0 0
1.36067 1.34603e-06 5.14799e-07 8.31231e-07 0.617543 0.786481 0 0 0 0 0 0 0 0 0 0 0 0 0 0 0 0 0 0 0 0 0 0 0 0 0 0 0 0 0 0 0 0 0 0 0 0 0 0 0 0 0 0
1.43051 1.35033e-06 5.1745e-07 8.32878e-07 0.616797 0.785115 0 0 0 0 0 0 0 0 0 0 0 0 0 0 0 0 0 0 0 0 0 0 0 0 0 0 0 0 0 0 0 0 0 0 0 0 0 0 0 0 0 0
1.50394 1.3548e-06 5.19782e-07 8.35017e-07 0.61634 0.783292 0 0 0 0 0 0 0 0 0 0 0 0 0 0 0 0 0 0 0 0 0 0 0 0 0 0 0 0 0 0 0 0 0 0 0 0 0 0 0 0 0 0
1.58114 1.35933e-06 5.22064e-07 8.37266e-07 0.61594 0.781307 0 0 0 0 0 0 0 0 0 0 0 0 0 0 0 0 0 0 0 0 0 0 0 0 0 0 0 0 0 0 0 0 0 0 0 0 0 0 0 0 0 0
1.6623 1.36391e-06 5.24485e-07 8.39425e-07 0.615455 0.779348 0 0 0 0 0 0 0 0 0 0 0 0 0 0 0 0 0 0 0 0 0 0 0 0 0 0 0 0 0 0 0 0 0 0 0 0 0 0 0 0 0 0
1.74763 1.36859e-06 5.2715e-07 8.41438e-07 0.614822 0.777495 0 0 0 0 0 0 0 0 0 0 0 0 0 0 0 0 0 0 0 0 0 0 0 0 0 0 0 0 0 0 0 0 0 0 0 0 0 0 0 0 0 0
1.83733 1.37354e-06 5.29941e-07 8.43596e-07 0.614178 0.775588 0 0 0 0 0 0 0 0 0 0 0 0 0 0 0 0 0 0 0 0 0 0 0 0 0 0 0 0 0 0 0 0 0 0 0 0 0 0 0 0 0 0
1.93164 1.37856e-06 5.32412e-07 8.46148e-07 0.613791 0.773247 0 0 0 0 0 0 0 0 0 0 0 0 0 0 0 0 0 0 0 0 0 0 0 0 0 0 0 0 0 0 0 0 0 0 0 0 0 0 0 0 0 0
2.03079 1.38359e-06 5.35147e-07 8.48441e-07 0.613218 0.771028 0 0 0 0 0 0 0 0 0 0 0 0 0 0 0 0 0 0 0 0 0 0 0 0 0 0 0 0 0 0 0 0 0 0 0 0 0 0 0 0 0 0
2.13503 1.38882e-06 5.38162e-07 8.50655e-07 0.612503 0.768885 0 0 0 0 0 0 0 0 0 0 0 0 0 0 0 0 0 0 0 0 0 0 0 0 0 0 0 0 0 0 0 0 0 0 0 0 0 0 0 0 0 0
2.24463 1.39421e-06 5.4128e-07 8.5293e-07 0.611766 0.766664 0 0 0 0 0 0 0 0 0 0 0 0 0 0 0 0 0 0 0 0 0 0 0 0 0 0 0 0 0 0 0 0 0 0 0 0 0 0 0 0 0 0
2.35984 1.3998e-06 5.44505e-07 8.55298e-07 0.611013 0.764344 0 0 0 0 0 0 0 0 0 0 0 0 0 0 0 0 0 0 0 0 0 0 0 0 0 0 0 0 0 0 0 0 0 0 0 0 0 0 0 0 0 0
2.48097 1.40548e-06 5.47629e-07 8.5785e-07 0.610361 0.761757 0 0 0 0 0 0 0 0 0 0 0 0 0 0 0 0 0 0 0 0 0 0 0 0 0 0 0 0 0 0 0 0 0 0 0 0 0 0 0 0 0 0
2.60832 1.41134e-06 5.5151e-07 8.59827e-07 0.609229 0.759631 0 0 0 0 0 0 0 0 0 0 0 0 0 0 0 0 0 0 0 0 0 0 0 0 0 0 0 0 0 0 0 0 0 0 0 0 0 0 0 0 0 0
2.74221 1.41769e-06 5.54991e-07 8.62696e-07 0.608523 0.75686 0 0 0 0 0 0 0 0 0 0 0 0 0 0 0 0 0 0 0 0 0 0 0 0 0 0 0 0 0 0 0 0 0 0 0 0 0 0 0 0 0 0
2.88297 1.42386e-06 5.58219e-07 8.65643e-07 0.607954 0.753772 0 0 0 0 0 0 0 0 0 0 0 0 0 0 0 0 0 0 0 0 0 0 0 0 0 0 0 0 0 0 0 0 0 0 0 0 0 0 0 0 0 0
3.03095 1.43038e-06 5.6211e-07 8.68269e-07 0.60702 0.750934 0 0 0 0 0 0 0 0 0 0 0 0 0 0 0 0 0 0 0 0 0 0 0 0 0 0 0 0 0 0 0 0 0 0 0 0 0 0 0 0 0 0
3.18653 1.43712e-06 5.65375e-07 8.71749e-07 0.606593 0.747399 0 0 0 0 0 0 0 0 0 0 0 0 0 0 0 0 0 0 0 0 0 0 0 0 0 0 0 0 0 0 0 0 0 0 0 0 0 0 0 0 0 0
3.35009 1.44347e-06 5.68521e-07 8.74944e-07 0.606142 0.743606 0 0 0 0 0 0 0 0 0 0 0 0 0 0 0 0 0 0 0 0 0 0 0 0 0 0 0 0 0 0 0 0 0 0 0 0 0 0 0 0 0 0
3.52205 1.45054e-06 5.72782e-07 8.77762e-07 0.605126 0.74038 0 0 0 0 0 0 0 0 0 0 0 0 0 0 0 0 0 0 0 0 0 0 0 0 0 0 0 0 0 0 0 0 0 0 0 0 0 0 0 0 0 0
3.70284 1.45771e-06 5.76602e-07 8.8111e-07 0.604447 0.736518 0 0 0 0 0 0 0 0 0 0 0 0 0 0 0 0 0 0 0 0 0 0 0 0 0 0 0 0 0 0 0 0 0 0 0 0 0 0 0 0 0 0
3.89291 1.4646e-06 5.79957e-07 8.84645e-07 0.604018 0.732139 0 0 0 0 0 0 0 0 0 0 0 0 0 0 0 0 0 0 0 0 0 0 0 0 0 0 0 0 0 0 0 0 0 0 0 0 0 0 0 0 0 0
4.09273 1.47211e-06 5.83931e-07 8.88182e-07 0.603338 0.727929 0 0 0 0 0 0 0 0 0 0 0 0 0 0 0 0 0 0 0 0 0 0 0 0 0 0 0 0 0 0 0 0 0 0 0 0 0 0 0 0 0 0
4.30281 1.47974e-06 5.88807e-07 8.90933e-07 0.602088 0.723931 0 0 0 0 0 0 0 0 0 0 0 0 0 0 0 0 0 0 0 0 0 0 0 0 0 0 0 0 0 0 0 0 0 0 0 0 0 0 0 0 0 0
4.52368 1.48708e-06 5.93308e-07 8.93768e-07 0.601024 0.719494 0 0 0 0 0 0 0 0 0 0 0 0 0 0 0 0 0 0 0 0 0 0 0 0 0 0 0 0 0 0 0 0 0 0 0 0 0 0 0 0 0 0
4.75588 1.49521e-06 5.9806e-07 8.97146e-07 0.600015 0.714886 0 0 0 0 0 0 0 0 0 0 0 0 0 0 0 0 0 0 0 0 0 0 0 0 0 0 0 0 0 0 0 0 0 0 0 0 0 0 0 0 0 0
5 1.50302e-06 6.03075e-07 8.99944e-07 0.598757 0.709974 0 0 0 0 0 0 0 0 0 0 0 0 0 0 0 0 0 0 0 0 0 0 0 0 0 0 0 0 0 0 0 0 0 0 0 0 0 0 0 0 0 0
5.25665 1.511e-06 6.09071e-07 9.01931e-07 0.596909 0.7053 0 0 0 0 0 0 0 0 0 0 0 0 0 0 0 0 0 0 0 0 0 0 0 0 0 0 0 0 0 0 0 0 0 0 0 0 0 0 0 0 0 0
5.52648 1.52021e-06 6.15941e-07 9.04266e-07 0.594831 0.700845 0 0 0 0 0 0 0 0 0 0 0 0 0 0 0 0 0 0 0 0 0 0 0 0 0 0 0 0 0 0 0 0 0 0 0 0 0 0 0 0 0 0
5.81015 1.53137e-06 6.2565e-07 9.05722e-07 0.591445 0.6974 0 0 0 0 0 0 0 0 0 0 0 0 0 0 0 0 0 0 0 0 0 0 0 0 0 0 0 0 0 0 0 0 0 0 0 0 0 0 0 0 0 0
6.10839 1.54253e-06 6.32848e-07 9.09682e-07 0.589734 0.691589 0 0 0 0 0 0 0 0 0 0 0 0 0 0 0 0 0 0 0 0 0 0 0 0 0 0 0 0 0 0 0 0 0 0 0 0 0 0 0 0 0 0
6.42193 1.55078e-06 6.32139e-07 9.18638e-07 0.592373 0.680944 0 0 0 0 0 0 0 0 0 0 0 0 0 0 0 0 0 0 0 0 0 0 0 0 0 0 0 0 0 0 0 0 0 0 0 0 0 0 0 0 0 0
6.75157 1.56038e-06 6.36286e-07 9.24096e-07 0.592224 0.673049 0 0 0 0 0 0 0 0 0 0 0 0 0 0 0 0 0 0 0 0 0 0 0 0 0 0 0 0 0 0 0 0 0 0 0 0 0 0 0 0 0 0
7.09813 1.5727e-06 6.42491e-07 9.30208e-07 0.591472 0.665771 0 0 0 0 0 0 0 0 0 0 0 0 0 0 0 0 0 0 0 0 0 0 0 0 0 0 0 0 0 0 0 0 0 0 0 0 0 0 0 0 0 0
7.46248 1.58233e-06 6.44087e-07 9.38238e-07 0.592949 0.655305 0 0 0 0 0 0 0 0 0 0 0 0 0 0 0 0 0 0 0 0 0 0 0 0 0 0 0 0 0 0 0 0 0 0 0 0 0 0 0 0 0 0
7.84553 1.58881e-06 6.44808e-07 9.44004e-07 0.594157 0.643488 0 0 0 0 0 0 0 0 0 0 0 0 0 0 0 0 0 0 0 0 0 0 0 0 0 0 0 0 0 0 0 0 0 0 0 0 0 0 0 0 0 0
8.24824 1.59504e-06 6.43189e-07 9.51852e-07 0.596757 0.629853 0 0 0 0 0 0 0 0 0 0 0 0 0 0 0 0 0 0 0 0 0 0 0 0 0 0 0 0 0 0 0 0 0 0 0 0 0 0 0 0 0 0
8.67162 1.60388e-06 6.44219e-07 9.59665e-07 0.598338 0.617583 0 0 0 0 0 0 0 0 0 0 0 0 0 0 0 0 0 0 0 0 0 0 0 0 0 0 0 0 0 0 0 0 0 0 0 0 0 0 0 0 0 0
9.11674 1.61465e-06 6.48671e-07 9.65978e-07 0.598259 0.607146 0 0 0 0 0 0 0 0 0 0 0 0 0 0 0 0 0 0 0 0 0 0 0 0 0 0 0 0 0 0 0 0 0 0 0 0 0 0 0 0 0 0
9.5847 1.62404e-06 6.55065e-07 9.68971e-07 0.596644 0.597042 0 0 0 0 0 0 0 0 0 0 0 0 0 0 0 0 0 0 0 0 0 0 0 0 0 0 0 0 0 0 0 0 0 0 0 0 0 0 0 0 1.4013e-45 0
10.0767 1.63035e-06 6.62295e-07 9.68059e-07 0.593772 0.585493 0 0 0 0 0 0 0 0 0 0 0 0 0 0 0 0 0 0 0 0 0 0 0 0 0 0 0 0 0 0 1.4013e-45 0 5.60519e-45 0 1.82169e-44 0 4.76441e-44 0 1.17709e-43 0 2.76056e-43 0
10.5939 1.63536e-06 6.69772e-07 9.65583e-07 0.590442 0.571463 0 0 0 0 0 0 0 0 0 0 0 0 0 0 0 0 0 0 0 0 0 0 1.4013e-45 0 8.40779e-45 0 3.22299e-44 0 1.14906e-43 0 3.6714e-43 0 1.06218e-42 0 2.94133e-42 0 7.46332e-42 0 1.78259e-41 0 4.01724e-41 0
11.1377 1.64185e-06 6.73266e-07 9.6858e-07 0.589933 0.553439 0 0 0 0 0 0 0 0 0 0 0 0 0 0 0 0 1.4013e-45 0 1.12104e-44 0 6.5861e-44 0 3.25101e-43 0 1.42652e-42 0 5.21703e-42 0 1.72486e-41 0 5.18424e-41 0 1.42394e-40 0 3.75114e-40 0 9.09694e-40 0 2.08227e-39 0 4.51007e-39 0
11.7094 1.65025e-06 6.74095e-07 9.76154e-07 0.591519 0.533405 0 0 0 0 0 0 0 0 0 0 0 0 1.4013e-45 0 2.66247e-44 0 2.49431e-43 0 1.77685e-42 0 9.91699e-42 0 4.53979e-41 0 1.8548e-40 0 6.36878e-40 0 1.98616e-39 0 5.65724e-39 0 1.47907e-38 0 3.71637e-38 0 8.63111e-38 0 1.89736e-37 0 3.95739e-37 0
12.3105 1.66447e-06 6.79926e-07 9.84548e-07 0.591507 0.516038 0 0 0 0 0 0 0 0 0 0 1.4013e-44 0 3.16693e-43 0 4.11561e-42 0 3.5195e-41 0 2.27484e-40 0 1.16757e-39 0 4.96252e-39 0 1.89284e-38 0 6.11949e-38 0 1.80533e-37 0 4.88598e-37 0 1.21887e-36 0 2.92787e-36 0 6.52579e-36 0 1.38043e-35 0 2.7777e-35 0
12.9424 1.68484e-06 6.92036e-07 9.928e-07 0.589256 0.502462 0 0 0 0 0 0 0 0 5.46506e-44 0 2.29533e-42 0 4.39041e-41 0 5.04502e-40 0 3.88464e-39 0 2.29216e-38 0 1.08616e-37 0 4.30161e-37 0 1.53694e-36 0 4.6922e-36 0 1.31304e-35 0 3.38503e-35 0 8.0758e-35 0 1.85865e-34 0 3.98367e-34 0 8.12416e-34 0 1.57987e-33 0
13.6067 1.69657e-06 6.96426e-07 1.00014e-06 0.589509 0.486493 0 0 0 0 0 0 6.44597e-44 0 8.00141e-42 0 2.82949e-40 0 4.6863e-39 0 4.77982e-38 0 3.33132e-37 0 1.80249e-36 0 7.91652e-36 0 2.93148e-35 0 9.84264e-35 0 2.84555e-34 0 7.57266e-34 0 1.86402e-33 0 4.26223e-33 0 9.41833e-33 0 1.94489e-32 0 3.83071e-32 0 7.21143e-32 0
14.3051 1.70621e-06 7.0767e-07 9.98535e-07 0.585238 0.472448 0 0 0 0 9.80909e-45 0 9.50921e-42 0 9.26087e-40 0 2.75139e-38 0 3.97332e-37 0 3.61819e-36 0 2.29366e-35 0 1.14283e-34 0 4.66948e-34 0 1.62204e-33 0 5.13339e-33 0 1.40912e-32 0 3.575e-32 0 8.42129e-32 0 1.84939e-31 0 3.93145e-31 0 7.83606e-31 0 1.49317e-30 0 2.72544e-30 0
15.0394 1.70708e-06 7.15819e-07 9.91263e-07 0.580677 0.454037 0 0 0 0 1.65073e-42 0 1.07391e-39 0 8.36382e-38 0 2.10568e-36 0 2.66917e-35 0 2.18211e-34 0 1.26402e-33 0 5.82314e-33 0 2.22125e-32 0 7.26083e-32 0 2.1722e-31 0 5.67586e-31 0 1.376e-30 0 3.10853e-30 0 6.56936e-30 0 1.34604e-29 0 2.59404e-29 0 4.7898e-29 0 8.48958e-29 0
15.8114 1.70009e-06 7.17643e-07 9.8245e-07 0.57788 0.427658 0 0 1.4013e-45 0 1.98926e-40 0 9.43302e-38 0 5.93937e-36 0 1.2774e-34 0 1.4304e-33 0 1.05537e-32 0 5.61096e-32 0 2.39911e-31 0 8.57238e-31 0 2.6447e-30 0 7.49988e-30 0 1.86991e-29 0 4.34141e-29 0 9.42509e-29 0 1.92038e-28 0 3.79936e-28 0 7.09121e-28 0 1.27074e-27 0 2.19023e-27 0
16.623 1.69119e-06 7.13837e-07 9.77351e-07 0.577908 0.392234 0 0 2.94273e-43 0 1.85977e-38 0 6.52781e-36 0 3.35752e-34 0 6.21645e-33 0 6.1866e-32 0 4.14021e-31 0 2.02874e-30 0 8.08034e-30 0 2.71318e-29 0 7.92257e-29 0 2.13521e-28 0 5.09138e-28 0 1.13445e-27 0 2.3714e-27 0 4.66675e-27 0 8.93039e-27 0 1.61677e-26 0 2.81589e-26 0 4.72611e-26 0
17.4762 1.68624e-06 7.10501e-07 9.7574e-07 0.578648 0.350305 0 0 3.7367e-41 0 1.37677e-36 0 3.62992e-34 0 1.54027e-32 0 2.47307e-31 0 2.2e-30 0 1.3418e-29 0 6.08403e-29 0 2.26512e-28 0 7.16897e-28 0 1.98665e-27 0 5.10123e-27 0 1.16585e-26 0 2.49807e-26 0 5.03719e-26 0 9.59056e-26 0 1.77803e-25 0 3.12702e-25 0 5.3007e-25 0 8.67445e-25 0
