# 0.000208763 4 83 : grain size, compostion index, size index
# This grain was stochastically heated: No
# Heating and cooling timescale: 0.000661921 2.78887e+12
# Ratio of heating to cooling to determine stochastic cutoff: 100
# Equilibrium emission is recorded even for those grains in the stochastic regime.
# Emission spectrum was computed for: 
# Type: IRSF
# Scale: 1
# Temperature: -1
# Wavelength  CExt  CAbs  CSca  Albedo G EqEmission StEmission
0.05 2.79094e-07 1.17636e-07 1.61458e-07 0.578509 0.932485 0 0
0.0525665 2.79357e-07 1.16715e-07 1.62642e-07 0.582202 0.926792 0 0
0.0552647 2.79647e-07 1.15108e-07 1.64539e-07 0.588382 0.918099 0 0
0.0581015 2.80009e-07 1.12647e-07 1.67362e-07 0.597703 0.904596 0 0
0.0610839 2.80449e-07 1.10232e-07 1.70217e-07 0.606945 0.889464 0 0
0.0642193 2.80923e-07 1.08654e-07 1.72268e-07 0.613223 0.877164 0 0
0.0675157 2.81409e-07 1.07903e-07 1.73506e-07 0.616562 0.868492 0 0
0.0709813 2.81898e-07 1.07823e-07 1.74075e-07 0.617511 0.863026 0 0
0.0746248 2.82383e-07 1.083e-07 1.74083e-07 0.616477 0.860361 0 0
0.0784553 2.8284e-07 1.09394e-07 1.73446e-07 0.613231 0.860975 0 0
0.0824824 2.8323e-07 1.11337e-07 1.71893e-07 0.606903 0.866357 0 0
0.0867162 2.83538e-07 1.12206e-07 1.71332e-07 0.604265 0.869262 0 0
0.0911674 2.84012e-07 1.11491e-07 1.72521e-07 0.607442 0.862908 0 0
0.095847 2.84507e-07 1.11708e-07 1.72799e-07 0.607363 0.859661 0 0
0.100767 2.84937e-07 1.12358e-07 1.72579e-07 0.605674 0.859155 0 0
0.105939 2.85276e-07 1.13749e-07 1.71526e-07 0.601265 0.862905 0 0
0.111377 2.85578e-07 1.15124e-07 1.70454e-07 0.596873 0.867789 0 0
0.117094 2.85908e-07 1.16106e-07 1.69802e-07 0.593903 0.870831 0 0
0.123105 2.86257e-07 1.16857e-07 1.694e-07 0.591776 0.872724 0 0
0.129424 2.86624e-07 1.17419e-07 1.69205e-07 0.590337 0.87361 0 0
0.136067 2.87007e-07 1.17773e-07 1.69234e-07 0.589652 0.873299 0 0
0.143051 2.87397e-07 1.1779e-07 1.69607e-07 0.590149 0.870936 0 0
0.150394 2.87693e-07 1.18404e-07 1.69289e-07 0.588436 0.872006 0 0
0.158114 2.8798e-07 1.1982e-07 1.68161e-07 0.583932 0.878182 0 0
0.16623 2.88343e-07 1.2144e-07 1.66903e-07 0.578835 0.885736 0 0
0.174762 2.88776e-07 1.22953e-07 1.65824e-07 0.574229 0.892591 0 0
0.183733 2.89255e-07 1.24363e-07 1.64893e-07 0.57006 0.89871 0 0
0.193164 2.89772e-07 1.25639e-07 1.64133e-07 0.56642 0.903885 0 0
0.203079 2.90328e-07 1.26803e-07 1.63525e-07 0.563243 0.908253 0 0
0.213503 2.90848e-07 1.27829e-07 1.63019e-07 0.560496 0.911866 0 0
0.224463 2.91306e-07 1.28626e-07 1.6268e-07 0.558449 0.914459 0 0
0.235984 2.92255e-07 1.29379e-07 1.62876e-07 0.557308 0.916703 0 0
0.248097 2.92761e-07 1.30135e-07 1.62626e-07 0.555491 0.918278 0 0
0.260832 2.92922e-07 1.30787e-07 1.62136e-07 0.553511 0.919156 0 0
0.274221 2.93405e-07 1.31381e-07 1.62024e-07 0.55222 0.919834 0 0
0.288297 2.95411e-07 1.31909e-07 1.63502e-07 0.553473 0.920923 0 0
0.303095 2.9511e-07 1.32387e-07 1.62722e-07 0.551396 0.920652 0 0
0.318653 2.95858e-07 1.32793e-07 1.63065e-07 0.55116 0.920516 0 0
0.335009 2.97468e-07 1.33164e-07 1.64303e-07 0.552341 0.920711 0 0
0.352205 2.97036e-07 1.33532e-07 1.63504e-07 0.550452 0.919648 0 0
0.370284 2.98707e-07 1.33814e-07 1.64894e-07 0.552024 0.919319 0 0
0.389291 3.00093e-07 1.33939e-07 1.66154e-07 0.553676 0.918502 0 0
0.409273 2.97813e-07 1.34155e-07 1.63658e-07 0.549532 0.915825 0 0
0.430281 3.04209e-07 1.34276e-07 1.69933e-07 0.558605 0.917262 0 0
0.452368 3.00268e-07 1.34226e-07 1.66042e-07 0.55298 0.912803 0 0
0.475588 3.00269e-07 1.33994e-07 1.66275e-07 0.553754 0.910229 0 0
0.5 3.08619e-07 1.33912e-07 1.74707e-07 0.566093 0.911569 0 0
0.525665 3.04674e-07 1.33836e-07 1.70838e-07 0.560723 0.907186 0 0
0.552647 3.00007e-07 1.33876e-07 1.6613e-07 0.553755 0.901809 0 0
0.581015 3.09271e-07 1.33212e-07 1.76059e-07 0.569272 0.902656 0 0
0.610839 3.15697e-07 1.32813e-07 1.82884e-07 0.579303 0.901922 0 0
0.642193 3.07918e-07 1.32068e-07 1.7585e-07 0.571093 0.892602 0 0
0.675157 3.00722e-07 1.32115e-07 1.68607e-07 0.560675 0.883457 0 0
0.709813 3.08613e-07 1.30375e-07 1.78239e-07 0.577547 0.884103 0 0
0.746248 3.23698e-07 1.30203e-07 1.93495e-07 0.597764 0.889515 0 0
0.784553 3.26281e-07 1.30148e-07 1.96133e-07 0.601116 0.887278 0 0
0.824824 3.13046e-07 1.29371e-07 1.83674e-07 0.586733 0.874369 0 0
0.867162 3.0112e-07 1.28341e-07 1.7278e-07 0.57379 0.857845 0 0
0.911674 3.03789e-07 1.27561e-07 1.76228e-07 0.5801 0.852054 0 0
0.95847 3.20659e-07 1.2714e-07 1.93519e-07 0.603504 0.856923 0 0
1.00767 3.39641e-07 1.26286e-07 2.13355e-07 0.628177 0.858059 0 0
1.05939 3.47694e-07 1.25038e-07 2.22656e-07 0.640379 0.851702 0 0
1.11377 3.3975e-07 1.23205e-07 2.16545e-07 0.637365 0.841702 0 0
1.17094 3.1965e-07 1.19304e-07 2.00346e-07 0.626766 0.816936 0 0
1.23105 3.00128e-07 1.17157e-07 1.8297e-07 0.609641 0.792218 0 0
1.29424 2.97219e-07 1.17915e-07 1.79304e-07 0.603273 0.788794 0 0
1.36067 3.13165e-07 1.17079e-07 1.96086e-07 0.626142 0.796735 0 0
1.43051 3.35138e-07 1.16415e-07 2.18723e-07 0.652636 0.817844 0 0
1.50394 3.58106e-07 1.16094e-07 2.42011e-07 0.67581 0.833009 0 0
1.58114 3.83714e-07 1.16027e-07 2.67687e-07 0.697621 0.840518 0 0
1.6623 3.88214e-07 1.15511e-07 2.72703e-07 0.702455 0.8394 6.14085e-301 0
1.74762 3.80592e-07 1.12683e-07 2.67909e-07 0.703928 0.825957 4.67525e-286 0
1.83733 3.67749e-07 1.14337e-07 2.53412e-07 0.68909 0.802947 6.8553e-272 0
1.93164 3.39585e-07 1.13106e-07 2.26479e-07 0.666928 0.752808 1.9706e-258 0
2.03079 3.14126e-07 1.11208e-07 2.02917e-07 0.645975 0.704645 1.22429e-245 0
2.13503 2.99128e-07 1.12777e-07 1.86351e-07 0.622982 0.634553 1.83811e-233 0
2.24463 2.7899e-07 1.12096e-07 1.66894e-07 0.598208 0.543902 6.80093e-222 0
2.35984 2.93584e-07 1.07914e-07 1.8567e-07 0.632425 0.542706 6.55601e-211 0
2.48097 3.03644e-07 1.17972e-07 1.85672e-07 0.611478 0.511386 2.05847e-200 0
2.60832 3.07454e-07 1.00295e-07 2.07159e-07 0.673788 0.529873 1.53217e-190 0
2.74221 3.61123e-07 1.03584e-07 2.57539e-07 0.713163 0.580302 4.47577e-181 0
2.88297 3.93281e-07 1.12105e-07 2.81176e-07 0.714949 0.590795 4.67709e-172 0
3.03095 4.04806e-07 9.42461e-08 3.1056e-07 0.767182 0.635442 1.36584e-163 0
3.18653 4.69311e-07 9.44608e-08 3.7485e-07 0.798725 0.671319 1.79831e-155 0
3.35009 5.15245e-07 1.03424e-07 4.11821e-07 0.799272 0.674277 1.02577e-147 0
3.52205 5.0257e-07 9.27237e-08 4.09846e-07 0.815501 0.680447 1.9877e-140 0
3.70284 5.25052e-07 8.40323e-08 4.41019e-07 0.839954 0.713563 1.68621e-133 0
3.89291 5.68306e-07 8.67981e-08 4.81508e-07 0.847269 0.727564 7.35557e-127 0
4.09273 5.75983e-07 8.97198e-08 4.86263e-07 0.844232 0.718424 1.50604e-120 0
4.30281 5.35971e-07 8.04904e-08 4.55481e-07 0.849823 0.701167 1.30252e-114 0
4.52368 5.13515e-07 7.20717e-08 4.41444e-07 0.85965 0.703859 5.66806e-109 0
4.75588 5.12279e-07 7.09985e-08 4.41281e-07 0.861407 0.718529 1.41446e-103 0
5 5.00657e-07 7.29125e-08 4.27745e-07 0.854367 0.727639 1.98009e-98 0
5.25665 4.56397e-07 7.12052e-08 3.85192e-07 0.843984 0.7185 1.46204e-93 0
5.52648 3.97481e-07 6.49257e-08 3.32555e-07 0.836657 0.690122 5.75287e-89 0
5.81015 3.4821e-07 5.9598e-08 2.88612e-07 0.828845 0.65989 1.33707e-84 0
6.10839 3.0971e-07 5.76734e-08 2.52036e-07 0.813782 0.643807 1.97248e-80 0
6.42193 2.70599e-07 5.73293e-08 2.1327e-07 0.788139 0.644631 1.84515e-76 0
6.75157 2.21732e-07 5.538e-08 1.66352e-07 0.750239 0.652953 1.05988e-72 0
7.09813 1.64496e-07 5.09931e-08 1.13502e-07 0.690003 0.649161 3.75087e-69 0
7.46248 1.13361e-07 5.2006e-08 6.1355e-08 0.541235 0.61027 9.70563e-66 0
7.84553 1.03839e-07 7.69031e-08 2.69357e-08 0.259399 0.546095 2.45346e-62 0
8.24824 1.46715e-07 1.20427e-07 2.62876e-08 0.179175 0.495828 4.51066e-59 0
8.67162 1.93821e-07 1.53021e-07 4.07993e-08 0.210501 0.457352 4.70759e-56 0
9.11674 2.54254e-07 1.87331e-07 6.69233e-08 0.263214 0.421362 3.3694e-53 0
9.5847 3.1214e-07 2.14605e-07 9.7535e-08 0.312472 0.390044 1.63348e-50 0
10.0767 3.37708e-07 2.23631e-07 1.14077e-07 0.337798 0.354267 5.29611e-48 0
10.5939 3.59992e-07 2.28858e-07 1.31134e-07 0.36427 0.319178 1.25879e-45 0
11.1377 3.66992e-07 2.29241e-07 1.37752e-07 0.375353 0.296885 2.21722e-43 0
11.7094 3.67019e-07 2.27488e-07 1.39531e-07 0.380173 0.281863 2.96938e-41 0
12.3105 3.54706e-07 2.18997e-07 1.35709e-07 0.382597 0.276422 2.99947e-39 0
12.9424 3.19463e-07 1.97346e-07 1.22117e-07 0.382258 0.272564 2.23223e-37 0
13.6067 2.59299e-07 1.61531e-07 9.77683e-08 0.377048 0.254458 1.20168e-35 0
14.3051 2.00903e-07 1.32694e-07 6.82088e-08 0.339511 0.21527 5.22785e-34 0
15.0394 1.7968e-07 1.30371e-07 4.93086e-08 0.274425 0.17879 2.21375e-32 0
15.8114 1.7837e-07 1.3837e-07 4e-08 0.224253 0.151688 8.32415e-31 0
16.623 1.87238e-07 1.50933e-07 3.63053e-08 0.193899 0.130067 2.6699e-29 0
17.4762 1.99594e-07 1.63583e-07 3.6011e-08 0.180422 0.112519 7.12604e-28 0
18.3733 2.08617e-07 1.71683e-07 3.6934e-08 0.177042 0.0984784 1.55601e-26 0
19.3164 2.07603e-07 1.70736e-07 3.6867e-08 0.177584 0.0881673 2.74222e-25 0
20.3079 1.93962e-07 1.59759e-07 3.42031e-08 0.176339 0.0816423 3.90377e-24 0
21.3503 1.76388e-07 1.46403e-07 2.99857e-08 0.169998 0.0761695 4.70731e-23 0
22.4463 1.58835e-07 1.33011e-07 2.58234e-08 0.16258 0.0713675 4.90202e-22 0
23.5984 1.41576e-07 1.19826e-07 2.17504e-08 0.15363 0.0671556 4.43877e-21 0
24.8097 1.26059e-07 1.07819e-07 1.82394e-08 0.14469 0.063184 3.54329e-20 0
26.0832 1.1141e-07 9.6312e-08 1.50981e-08 0.135518 0.0597173 2.49337e-19 0
27.4221 9.8182e-08 8.572e-08 1.24619e-08 0.126927 0.0565917 1.56143e-18 0
28.8297 8.66316e-08 7.6372e-08 1.02597e-08 0.118429 0.0535188 8.79062e-18 0
30.3095 7.63636e-08 6.79331e-08 8.43046e-09 0.110399 0.0506379 4.46092e-17 0
31.8653 6.7294e-08 6.04044e-08 6.88957e-09 0.10238 0.0478037 2.05323e-16 0
33.5009 5.92757e-08 5.36375e-08 5.63817e-09 0.0951178 0.0451631 8.60378e-16 0
35.2206 5.25378e-08 4.79371e-08 4.60073e-09 0.0875699 0.0423435 3.32309e-15 0
37.0284 4.65558e-08 4.27998e-08 3.75595e-09 0.0806764 0.0397054 1.17928e-14 0
38.9291 4.12372e-08 3.81667e-08 3.07047e-09 0.0744588 0.0372551 3.8601e-14 0
40.9273 3.65019e-08 3.39878e-08 2.51404e-09 0.0688743 0.034983 1.16975e-13 0
43.0282 3.22924e-08 3.02388e-08 2.05361e-09 0.0635941 0.0327771 3.29549e-13 0
45.2368 2.85342e-08 2.68567e-08 1.67744e-09 0.0587871 0.0306956 8.6545e-13 0
47.5588 2.52602e-08 2.38913e-08 1.36894e-09 0.0541934 0.0286417 2.13291e-12 0
50 2.2322e-08 2.12036e-08 1.11837e-09 0.0501018 0.0267314 4.9291e-12 0
52.5665 1.97549e-08 1.88422e-08 9.12712e-10 0.0462019 0.0248632 1.07527e-11 0
55.2648 1.74845e-08 1.67399e-08 7.44624e-10 0.0425877 0.0230772 2.21726e-11 0
58.1015 1.54824e-08 1.48744e-08 6.07966e-10 0.0392682 0.0213807 4.33535e-11 0
61.0839 1.37199e-08 1.32238e-08 4.96153e-10 0.0361629 0.0197594 8.06167e-11 0
64.2193 1.21602e-08 1.17554e-08 4.04841e-10 0.0332923 0.0182268 1.42837e-10 0
67.5157 1.07913e-08 1.0461e-08 3.30371e-10 0.0306145 0.0167765 2.41978e-10 0
70.9813 9.58502e-09 9.3153e-09 2.69719e-10 0.0281396 0.0154148 3.92686e-10 0
74.6248 8.52519e-09 8.30506e-09 2.20129e-10 0.025821 0.0141338 6.1207e-10 0
78.4553 7.5863e-09 7.40664e-09 1.79662e-10 0.0236825 0.0129426 9.17358e-10 0
82.4824 6.7584e-09 6.61168e-09 1.46723e-10 0.0217097 0.0118367 1.32548e-09 0
86.7162 6.02935e-09 5.90952e-09 1.19827e-10 0.019874 0.0108095 1.85029e-09 0
91.1674 5.38334e-09 5.28549e-09 9.78536e-11 0.0181771 0.00986053 2.49827e-09 0
95.847 4.8099e-09 4.72999e-09 7.99081e-11 0.0166133 0.00898643 3.26768e-09 0
100.767 4.30343e-09 4.23812e-09 6.53047e-11 0.0151751 0.00818343 4.14979e-09 0
105.939 3.85956e-09 3.8062e-09 5.33566e-11 0.0138245 0.00744339 5.12997e-09 0
111.377 3.45698e-09 3.41339e-09 4.35919e-11 0.0126098 0.00676771 6.15887e-09 0
117.094 3.09755e-09 3.06192e-09 3.56285e-11 0.0115022 0.00615145 7.20295e-09 0
123.105 2.78015e-09 2.75102e-09 2.91291e-11 0.0104775 0.0055875 8.2278e-09 0
129.424 2.50051e-09 2.47669e-09 2.38144e-11 0.00952382 0.00507285 9.19488e-09 0
136.067 2.24385e-09 2.22439e-09 1.94671e-11 0.00867575 0.00460475 1.00205e-08 0
143.051 2.02225e-09 2.00633e-09 1.59198e-11 0.00787234 0.00417686 1.07322e-08 0
150.394 1.81583e-09 1.80281e-09 1.30203e-11 0.00717043 0.00378883 1.1218e-08 0
158.114 1.64203e-09 1.63139e-09 1.06467e-11 0.00648384 0.00343427 1.15801e-08 0
166.23 1.47893e-09 1.47022e-09 8.70488e-12 0.00588595 0.00311284 1.1686e-08 0
174.763 1.32588e-09 1.31875e-09 7.1227e-12 0.00537207 0.00282222 1.15322e-08 0
183.733 1.19885e-09 1.19303e-09 5.82708e-12 0.00486054 0.00255727 1.12873e-08 0
193.164 1.07992e-09 1.07515e-09 4.76618e-12 0.00441348 0.00231706 1.08318e-08 0
203.079 9.71397e-10 9.67498e-10 3.8994e-12 0.00401422 0.00209946 1.0224e-08 0
213.503 8.77576e-10 8.74385e-10 3.19162e-12 0.00363686 0.0019022 9.55437e-09 0
224.463 7.89072e-10 7.86461e-10 2.61179e-12 0.00330995 0.00172344 8.76642e-09 0
235.984 7.1204e-10 7.09903e-10 2.13686e-12 0.00300104 0.00156109 7.96924e-09 0
248.097 6.39933e-10 6.38184e-10 1.74982e-12 0.00273438 0.00141503 7.12792e-09 0
260.832 5.6888e-10 5.67448e-10 1.43226e-12 0.00251768 0.00128186 6.23383e-09 0
274.221 5.04958e-10 5.03787e-10 1.17166e-12 0.00232032 0.00116042 5.38487e-09 0
288.297 4.50507e-10 4.49549e-10 9.58079e-13 0.00212667 0.00104976 4.62758e-09 0
303.095 4.01211e-10 4.00427e-10 7.83917e-13 0.00195387 0.000949716 3.93143e-09 0
318.653 3.60949e-10 3.60307e-10 6.41253e-13 0.00177658 0.00085898 3.34342e-09 0
335.009 3.22657e-10 3.22133e-10 5.2441e-13 0.00162529 0.000776834 2.80099e-09 0
352.206 2.87639e-10 2.8721e-10 4.28945e-13 0.00149126 0.000702562 2.32126e-09 0
370.284 2.59827e-10 2.59476e-10 3.50981e-13 0.00135083 0.000635407 1.93448e-09 0
389.291 2.33403e-10 2.33116e-10 2.87109e-13 0.0012301 0.000574613 1.59174e-09 0
409.273 2.10452e-10 2.10217e-10 2.34804e-13 0.00111571 0.000519573 1.30581e-09 0
430.282 1.90583e-10 1.90391e-10 1.92127e-13 0.0010081 0.000469857 1.06912e-09 0
452.368 1.72121e-10 1.71964e-10 1.572e-13 0.000913313 0.000424894 8.67772e-10 0
475.588 1.56683e-10 1.56554e-10 1.28605e-13 0.000820801 0.000384257 7.06001e-10 0
500 1.42015e-10 1.4191e-10 1.05197e-13 0.00074074 0.000347487 5.68926e-10 0
525.665 1.29716e-10 1.2963e-10 8.61126e-14 0.000663854 0.000314345 4.59748e-10 0
552.648 1.18223e-10 1.18153e-10 7.04709e-14 0.000596082 0.000284338 3.69005e-10 0
581.015 1.08263e-10 1.08205e-10 5.7656e-14 0.000532556 0.000257173 2.96303e-10 0
610.838 9.90519e-11 9.90047e-11 4.71842e-14 0.000476358 0.00023264 2.3675e-10 0
642.193 9.08936e-11 9.0855e-11 3.8628e-14 0.00042498 0.000210495 1.89008e-10 0
675.157 8.35553e-11 8.35237e-11 3.16151e-14 0.000378373 0.000190441 1.50624e-10 0
709.813 7.69529e-11 7.6927e-11 2.58688e-14 0.000336164 0.000172285 1.19858e-10 0
746.247 7.09351e-11 7.09139e-11 2.11783e-14 0.000298558 0.000155884 9.51629e-11 0
784.553 6.54653e-11 6.54479e-11 1.73368e-14 0.000264824 0.000141041 7.5423e-11 0
824.824 6.04642e-11 6.045e-11 1.41894e-14 0.000234675 0.000127615 5.96598e-11 0
867.162 5.57898e-11 5.57782e-11 1.16127e-14 0.00020815 0.000115472 4.70225e-11 0
911.674 5.14197e-11 5.14102e-11 9.50963e-15 0.000184941 0.000104508 3.69313e-11 0
958.471 4.74525e-11 4.74447e-11 7.78614e-15 0.000164083 9.45937e-05 2.89766e-11 0
1007.67 4.37282e-11 4.37219e-11 6.37322e-15 0.000145746 8.56114e-05 2.2654e-11 0
1059.39 4.04488e-11 4.04436e-11 5.21746e-15 0.000128989 7.74747e-05 1.77424e-11 0
1113.77 3.73321e-11 3.73278e-11 4.27223e-15 0.000114438 7.01165e-05 1.38386e-11 0
1170.94 3.43668e-11 3.43633e-11 3.49723e-15 0.000101762 6.34519e-05 1.07468e-11 0
1231.05 3.16283e-11 3.16254e-11 2.86258e-15 9.05069e-05 5.743e-05 8.3296e-12 0
1294.24 2.9253e-11 2.92507e-11 2.34426e-15 8.01372e-05 5.19832e-05 6.47809e-12 0
1360.67 2.7019e-11 2.70171e-11 1.91946e-15 7.10411e-05 4.70488e-05 5.0238e-12 0
1430.51 2.48942e-11 2.48927e-11 1.57126e-15 6.31175e-05 4.25804e-05 3.88099e-12 0
1503.94 2.28905e-11 2.28892e-11 1.28613e-15 5.61863e-05 3.85359e-05 2.98823e-12 0
1581.14 2.12249e-11 2.12239e-11 1.05327e-15 4.96241e-05 3.48781e-05 2.31733e-12 0
1662.3 1.96428e-11 1.96419e-11 8.62326e-16 4.39004e-05 3.15652e-05 1.79152e-12 0
1747.63 1.81375e-11 1.81368e-11 7.05808e-16 3.89143e-05 2.85648e-05 1.38037e-12 0
1837.33 1.67071e-11 1.67065e-11 5.77853e-16 3.45873e-05 2.58522e-05 1.05993e-12 0
1931.64 1.53478e-11 1.53473e-11 4.73201e-16 3.08319e-05 2.3399e-05 8.10872e-13 0
2030.79 1.41107e-11 1.41103e-11 3.87382e-16 2.74531e-05 2.1176e-05 6.20285e-13 0
2135.03 1.30592e-11 1.30589e-11 3.17023e-16 2.42759e-05 1.91607e-05 4.77218e-13 0
2244.63 1.20605e-11 1.20603e-11 2.59598e-16 2.15246e-05 1.73403e-05 3.66077e-13 0
2359.84 1.11105e-11 1.11103e-11 2.12546e-16 1.91301e-05 1.56924e-05 2.79906e-13 0
2480.97 1.02115e-11 1.02114e-11 1.73976e-16 1.70372e-05 1.42001e-05 2.13364e-13 0
2608.32 9.44631e-12 9.44616e-12 1.42405e-16 1.50752e-05 1.28508e-05 1.63587e-13 0
2742.21 8.72309e-12 8.72297e-12 1.16625e-16 1.33697e-05 1.16316e-05 1.25121e-13 0
2882.96 8.03512e-12 8.03503e-12 9.54872e-17 1.18837e-05 1.05276e-05 9.54026e-14 0
3030.95 7.39833e-12 7.39825e-12 7.81582e-17 1.05643e-05 9.52726e-06 7.26699e-14 0
3186.53 6.85959e-12 6.85953e-12 6.39861e-17 9.32798e-06 8.62151e-06 5.57104e-14 0
3350.09 6.34748e-12 6.34742e-12 5.23936e-17 8.25425e-06 7.80242e-06 4.26021e-14 0
3522.05 5.86024e-12 5.8602e-12 4.28902e-17 7.31884e-06 7.06069e-06 3.2488e-14 0
3702.84 5.39667e-12 5.39663e-12 3.51012e-17 6.50424e-06 6.38898e-06 2.47006e-14 0
3892.91 4.95641e-12 4.95638e-12 2.87442e-17 5.79941e-06 5.78226e-06 1.87212e-14 0
4092.73 4.56524e-12 4.56521e-12 2.35346e-17 5.15518e-06 5.23284e-06 1.42244e-14 0
4302.81 4.22468e-12 4.22467e-12 1.92634e-17 4.55973e-06 4.73503e-06 1.08542e-14 0
4523.68 3.9008e-12 3.90079e-12 1.57667e-17 4.04191e-06 4.28453e-06 8.26088e-15 0
4755.88 3.59313e-12 3.59312e-12 1.29114e-17 3.59334e-06 3.87752e-06 6.26993e-15 0
5000 3.30269e-12 3.30268e-12 1.05702e-17 3.20048e-06 3.50892e-06 4.7471e-15 0
