# 2.09606e-06 1 39 : grain size, compostion index, size index
# Heating and cooling timescale: 7.42528 6642.06
# Ratio of heating to cooling to determine stochastic cutoff: 100
# Equilibrium emission is recorded even for those grains in the stochastic regime.
# Emission spectrum was computed for: 
# Type: IRSF
# Scales: 0.5 1 2 5 10
# StochasticallyHeated: 1 1 0 0 0
# Temperature: -1
# Wavelength  CExt  CAbs  CSca  Albedo G EqEm1 StEm1 EqEm2 StEm2 EqEm3 StEm3 EqEm4 StEm4 EqEm5 StEm5
0.05 2.29861e-11 1.15936e-11 1.13925e-11 0.495626 0.686163 0 0 0 0 0 0 0 0 0 0
0.0525665 2.43257e-11 1.24598e-11 1.18659e-11 0.487793 0.663485 0 0 0 0 0 0 0 0 0 0
0.0552647 2.57406e-11 1.34283e-11 1.23123e-11 0.478322 0.64314 0 0 0 0 0 0 0 0 0 0
0.0581015 2.69441e-11 1.4363e-11 1.2581e-11 0.466931 0.625023 0 0 0 0 0 0 0 0 0 0
0.0610839 2.8115e-11 1.51333e-11 1.29817e-11 0.461736 0.603912 0 0 0 0 0 0 0 0 0 0
0.0642193 3.01655e-11 1.61129e-11 1.40526e-11 0.46585 0.579055 0 0 0 0 0 0 0 0 0 0
0.0675157 3.35472e-11 1.78678e-11 1.56794e-11 0.467383 0.558713 0 0 0 0 0 0 0 0 0 0
0.0709813 3.69719e-11 2.00544e-11 1.69175e-11 0.457578 0.546105 0 0 0 0 0 0 0 0 0 0
0.0746248 3.92546e-11 2.17159e-11 1.75387e-11 0.446794 0.533091 0 0 0 0 0 0 0 0 0 0
0.0784553 4.02887e-11 2.26557e-11 1.76331e-11 0.437667 0.514191 0 0 0 0 0 0 0 0 0 0
0.0824824 4.02836e-11 2.29864e-11 1.72971e-11 0.429384 0.485337 0 0 0 0 0 0 0 0 0 0
0.0867162 4.05441e-11 2.31987e-11 1.73454e-11 0.427816 0.44839 0 0 0 0 0 0 0 0 0 0
0.0911674 4.14137e-11 2.3361e-11 1.80528e-11 0.435913 0.406372 0 0 0 0 0 0 0 0 0 0
0.095847 4.21756e-11 2.31731e-11 1.90025e-11 0.450556 0.361243 0 0 0 0 0 0 0 0 0 0
0.100767 4.23828e-11 2.29193e-11 1.94635e-11 0.459231 0.327098 0 0 0 0 0 0 0 0 0 0
0.105939 4.3419e-11 2.27368e-11 2.06821e-11 0.476339 0.319212 0 0 0 0 0 0 0 0 0 0
0.111377 4.01957e-11 2.12166e-11 1.89791e-11 0.472168 0.33346 0 0 0 0 0 0 0 0 0 0
0.117094 3.48101e-11 1.86546e-11 1.61555e-11 0.464104 0.331488 0 0 0 0 0 0 0 0 0 0
0.123105 2.82626e-11 1.52614e-11 1.30012e-11 0.460014 0.318374 0 0 0 0 0 0 0 0 0 0
0.129424 1.97751e-11 1.09608e-11 8.81426e-12 0.445725 0.279518 0 0 0 0 0 0 0 0 0 0
0.136067 1.42753e-11 8.56798e-12 5.70731e-12 0.399803 0.229926 0 0 0 0 0 0 0 0 0 0
0.143051 1.13077e-11 7.5611e-12 3.74661e-12 0.331332 0.191405 0 0 0 0 0 0 0 0 0 0
0.150394 1.00666e-11 7.56071e-12 2.50584e-12 0.248927 0.161447 0 0 0 0 0 0 0 0 0 0
0.158114 1.00265e-11 8.22059e-12 1.80589e-12 0.180112 0.138164 0 0 0 0 0 0 0 0 0 0
0.16623 1.0893e-11 9.35393e-12 1.53911e-12 0.141293 0.119794 0 0 0 0 0 0 0 0 0 0
0.174762 1.26741e-11 1.1035e-11 1.63911e-12 0.129328 0.104521 0 0 0 0 0 0 0 0 0 0
0.183733 1.53571e-11 1.33259e-11 2.03112e-12 0.13226 0.0907642 0 0 0 0 0 0 0 0 0 0
0.193164 1.96899e-11 1.68342e-11 2.85563e-12 0.145031 0.0774027 0 0 0 0 0 0 0 0 0 0
0.203079 2.60378e-11 2.17813e-11 4.25655e-12 0.163476 0.0632785 0 0 0 0 0 0 0 0 0 0
0.213503 3.30296e-11 2.69159e-11 6.1137e-12 0.185098 0.0488798 0 0 0 0 0 0 0 0 0 0
0.224463 3.49093e-11 2.78609e-11 7.04848e-12 0.201908 0.0367353 0 0 0 0 0 0 0 0 0 0
0.235984 2.89916e-11 2.30648e-11 5.92684e-12 0.204433 0.0276435 0 0 0 0 0 0 0 0 0 0
0.248097 2.14479e-11 1.73723e-11 4.07555e-12 0.190021 0.0214134 0 0 0 0 0 0 0 0 0 0
0.260832 1.66625e-11 1.38823e-11 2.78013e-12 0.16685 0.0189745 0 0 0 0 0 0 0 0 0 0
0.274221 1.3556e-11 1.15877e-11 1.96829e-12 0.145197 0.0204041 0 0 0 0 0 0 0 0 0 0
0.288297 1.14607e-11 1.00236e-11 1.43708e-12 0.125392 0.0259364 0 0 0 0 0 0 0 0 0 0
0.303095 9.82882e-12 8.73843e-12 1.09039e-12 0.110938 0.0297655 0 0 0 0 0 0 0 0 0 0
0.318653 8.4418e-12 7.60403e-12 8.37766e-13 0.0992403 0.0321376 0 0 0 0 0 0 0 0 0 0
0.335009 7.33403e-12 6.68199e-12 6.52035e-13 0.0889055 0.0325753 0 0 0 0 0 0 0 0 0 0
0.352205 6.47124e-12 5.95671e-12 5.14533e-13 0.0795107 0.0315655 0 0 0 0 0 0 0 0 0 0
0.370284 5.77027e-12 5.36012e-12 4.10151e-13 0.07108 0.0299448 0 0 0 0 0 0 0 0 0 0
0.389291 5.15665e-12 4.82679e-12 3.29858e-13 0.0639676 0.0282255 0 0 0 0 0 0 0 0 0 0
0.409273 4.60294e-12 4.33665e-12 2.66292e-13 0.0578525 0.0264709 0 0 0 0 0 0 0 0 0 0
0.430281 4.09824e-12 3.88293e-12 2.15312e-13 0.0525376 0.0247513 0 0 0 0 0 0 0 0 0 0
0.452368 3.67062e-12 3.49648e-12 1.74146e-13 0.0474433 0.0228963 0 0 0 0 0 0 0 0 0 0
0.475588 3.29518e-12 3.15417e-12 1.41012e-13 0.0427933 0.0210813 0 0 0 0 0 0 0 0 0 0
0.5 2.9822e-12 2.86766e-12 1.14541e-13 0.0384082 0.0193067 0 0 0 0 0 0 0 0 0 0
0.525665 2.71652e-12 2.62334e-12 9.31776e-14 0.0343003 0.0176074 0 0 0 0 0 0 0 0 0 0
0.552647 2.47438e-12 2.39852e-12 7.58561e-14 0.0306566 0.0160505 0 0 0 0 0 0 0 0 0 0
0.581015 2.27571e-12 2.21362e-12 6.20856e-14 0.0272819 0.0145873 0 0 0 0 0 0 0 0 0 0
0.610839 2.09189e-12 2.04104e-12 5.08457e-14 0.0243061 0.0132582 0 0 0 0 0 0 0 0 0 0
0.642193 1.92111e-12 1.87947e-12 4.1645e-14 0.0216775 0.0120494 0 0 0 0 0 0 0 0 0 0
0.675157 1.76654e-12 1.73238e-12 3.4158e-14 0.0193361 0.0109534 0 0 0 0 0 0 0 0 0 0
0.709813 1.62657e-12 1.5985e-12 2.80724e-14 0.0172586 0.00996757 0 0 0 0 0 0 0 0 0 0
0.746248 1.49752e-12 1.47444e-12 2.30797e-14 0.015412 0.0090856 0 0 0 0 0 0 0 0 0 0
0.784553 1.37715e-12 1.35818e-12 1.89727e-14 0.0137768 0.00828334 0 0 0 0 0 0 0 0 0 0
0.824824 1.26623e-12 1.25064e-12 1.55959e-14 0.0123167 0.00756276 0 0 0 0 0 0 0 0 0 0
0.867162 1.16387e-12 1.15104e-12 1.28268e-14 0.0110209 0.00691372 0 0 0 0 0 0 0 0 0 0
0.911674 1.06887e-12 1.05833e-12 1.05454e-14 0.00986595 0.006326 0 0 0 0 0 0 0 0 0 0
0.95847 9.81668e-13 9.73004e-13 8.66366e-15 0.00882545 0.00579926 0 0 0 0 0 0 0 0 0 0
1.00767 9.00994e-13 8.93875e-13 7.11919e-15 0.00790148 0.00532036 0 0 0 0 0 0 0 0 0 0
1.05939 8.27968e-13 8.2212e-13 5.84826e-15 0.00706338 0.00488588 0 0 0 0 0 0 0 0 0 0
1.11377 7.60002e-13 7.55199e-13 4.80327e-15 0.00632007 0.00448974 0 0 0 0 0 0 0 0 0 0
1.17094 6.99844e-13 6.959e-13 3.94369e-15 0.00563509 0.00411952 0 0 0 0 0 0 0 0 0 0
1.23105 6.4476e-13 6.4152e-13 3.23976e-15 0.00502475 0.0037801 0 0 0 0 0 0 0 0 0 0
1.29424 5.94056e-13 5.91394e-13 2.66257e-15 0.00448202 0.00346725 0 0 0 0 0 0 0 0 0 0
1.36067 5.47428e-13 5.4524e-13 2.18712e-15 0.00399527 0.00318206 0 0 0 0 0 0 0 0 0 0
1.43051 5.04602e-13 5.02806e-13 1.79586e-15 0.00355897 0.00292207 0 0 0 0 0 0 0 0 0 0
1.50394 4.65858e-13 4.64383e-13 1.47525e-15 0.00316673 0.00268151 0 0 0 0 0 0 0 0 0 0
1.58114 4.30636e-13 4.29424e-13 1.21196e-15 0.00281435 0.00245687 0 0 0 0 0 0 0 0 0 0
1.6623 3.98221e-13 3.97225e-13 9.95825e-16 0.00250069 0.00224817 0 0 0 0 0 0 0 0 0 0
1.74762 3.6787e-13 3.67052e-13 8.18368e-16 0.00222461 0.00206 0 0 0 0 0 0 0 0 0 0
1.83733 3.39947e-13 3.39274e-13 6.72496e-16 0.00197824 0.00188791 0 0 0 0 0 0 0 0 0 0
1.93164 3.14166e-13 3.13614e-13 5.52437e-16 0.00175842 0.00172978 0 0 0 0 0 0 0 0 0 0
2.03079 2.90604e-13 2.9015e-13 4.53725e-16 0.00156132 0.00158292 0 0 0 0 0 0 0 0 0 0
2.13503 2.68752e-13 2.68379e-13 3.72958e-16 0.00138774 0.00144846 0 0 0 0 0 0 0 0 0 0
2.24463 2.48423e-13 2.48117e-13 3.06438e-16 0.00123353 0.00132587 0 0 0 0 0 0 0 0 0 0
2.35984 2.29828e-13 2.29576e-13 2.51695e-16 0.00109515 0.00121282 0 0 0 0 0 0 0 0 0 0
2.48097 2.12714e-13 2.12507e-13 2.06702e-16 0.000971737 0.00110833 0 0 0 0 0 0 0 0 0 0
2.60832 1.96794e-13 1.96624e-13 1.69898e-16 0.000863326 0.00101183 0 0 0 0 0 0 0 0 0 0
2.74221 1.81854e-13 1.81715e-13 1.39603e-16 0.000767667 0.000923971 0 0 0 0 0 0 0 0 0 0
2.88297 1.68066e-13 1.67951e-13 1.14624e-16 0.000682019 0.000844468 0 0 0 0 0 0 0 0 0 0
3.03095 1.55191e-13 1.55097e-13 9.41326e-17 0.000606561 0.00077224 0 0 0 0 0 0 0 0 0 0
3.18653 1.43352e-13 1.43274e-13 7.73192e-17 0.000539367 0.000705192 0 0 0 0 0 0 0 0 0 0
3.35009 1.32413e-13 1.3235e-13 6.34887e-17 0.000479474 0.00064352 0 0 0 0 0 0 0 0 0 0
3.52205 1.22271e-13 1.22219e-13 5.21082e-17 0.000426169 0.000587391 0 0 0 0 0 0 0 0 0 0
3.70284 1.12914e-13 1.12872e-13 4.27869e-17 0.000378933 0.000536061 0 0 0 0 0 0 0 0 0 0
3.89291 1.04341e-13 1.04306e-13 3.51206e-17 0.000336594 0.000488668 0 0 0 0 0 0 0 0 0 0
4.09273 9.64418e-14 9.6413e-14 2.88243e-17 0.000298877 0.000443907 0 0 0 0 0 0 0 0 0 0
4.30281 8.90652e-14 8.90415e-14 2.36521e-17 0.00026556 0.000403427 0 0 0 0 0 0 0 0 0 0
4.52368 8.22304e-14 8.2211e-14 1.94141e-17 0.000236094 0.000366588 0 0 0 0 0 0 0 0 5.60519e-45 0
4.75588 7.59139e-14 7.5898e-14 1.59295e-17 0.000209836 0.000332804 0 0 0 0 0 0 0 0 4.83448e-43 0
5 7.01807e-14 7.01676e-14 1.30666e-17 0.000186185 0.000300472 0 0 0 0 0 0 1.4013e-45 0 3.44874e-41 0
5.25665 6.4713e-14 6.47023e-14 1.07207e-17 0.000165666 0.000271471 0 0 0 0 0 0 1.56945e-43 0 1.96109e-39 0
5.52648 5.96029e-14 5.95941e-14 8.79552e-18 0.000147569 0.000245526 0 0 0 1.4013e-45 0 0 1.14416e-41 0 8.99739e-38 0
5.81015 5.49189e-14 5.49116e-14 7.21147e-18 0.000131311 0.00022184 0 0 0 8.40779e-44 1.4013e-45 0 6.64218e-40 0 3.37094e-36 0
6.10839 5.06505e-14 5.06446e-14 5.91117e-18 0.000116705 0.00019963 0 1.26117e-44 0 3.72745e-42 1.33123e-43 0 3.11443e-38 0 1.04209e-34 0
6.42193 4.65955e-14 4.65907e-14 4.84532e-18 0.000103987 0.000181458 0 5.67526e-43 0 1.39149e-40 9.24577e-42 0 1.18782e-36 0 2.67422e-33 0
6.75157 4.30216e-14 4.30177e-14 3.97222e-18 9.23308e-05 0.000162014 0 2.09886e-41 2.94273e-44 4.42561e-39 5.17606e-40 0 3.74457e-35 0 5.78318e-32 0
7.09813 3.96812e-14 3.96779e-14 3.25463e-18 8.20195e-05 0.000145063 0 6.60988e-40 2.17482e-42 1.20139e-37 2.34051e-38 0 9.80518e-34 0 1.05811e-30 0
7.46248 3.66377e-14 3.66351e-14 2.66589e-18 7.27634e-05 0.000129453 5.60519e-45 1.78573e-38 1.26485e-40 2.80648e-36 8.65387e-37 0 2.15618e-32 0 1.65453e-29 0
7.84553 3.38935e-14 3.38913e-14 2.18445e-18 6.44503e-05 0.00011442 4.40008e-43 4.16777e-37 5.94977e-39 5.6809e-35 2.64496e-35 0 4.02011e-31 0 2.23034e-28 0
8.24824 3.13168e-14 3.13151e-14 1.78937e-18 5.71375e-05 0.000100407 2.67802e-41 8.42512e-36 2.27929e-37 9.98946e-34 6.72377e-34 0 6.38646e-30 0 2.60264e-27 0
8.67162 2.89312e-14 2.89297e-14 1.46476e-18 5.06292e-05 8.82665e-05 1.31417e-39 1.48506e-34 7.19045e-36 1.53607e-32 1.43601e-32 0 8.72168e-29 0 2.65042e-26 0
9.11674 2.67794e-14 2.67782e-14 1.19904e-18 4.47748e-05 7.74245e-05 5.25745e-38 2.29947e-33 1.8896e-34 2.08075e-31 2.60397e-31 0 1.03361e-27 0 2.37604e-25 0
9.5847 2.48671e-14 2.48661e-14 9.81131e-19 3.94549e-05 6.76593e-05 1.73436e-36 3.14805e-32 4.1796e-33 2.49889e-30 4.04694e-30 0 1.07187e-26 0 1.88948e-24 0
10.0767 2.31809e-14 2.31801e-14 8.02471e-19 3.46178e-05 5.85367e-05 4.76598e-35 3.83178e-31 7.85284e-32 2.67537e-29 5.4354e-29 0 9.79765e-26 0 1.3417e-23 0
10.5939 2.16937e-14 2.1693e-14 6.55854e-19 3.02325e-05 4.97931e-05 1.10111e-33 4.16703e-30 1.26369e-30 2.56582e-28 6.35588e-28 0 7.9451e-25 0 8.55692e-23 0
11.1377 2.04515e-14 2.04509e-14 5.35618e-19 2.61897e-05 4.16879e-05 2.16469e-32 4.08112e-29 1.76123e-29 2.22184e-27 6.53806e-27 0 5.76989e-24 0 4.94498e-22 0
11.7094 1.91422e-14 1.91417e-14 4.41504e-19 2.30645e-05 3.45084e-05 3.59843e-31 3.56336e-28 2.11074e-28 1.71956e-26 5.86962e-26 0 3.7197e-23 0 2.56524e-21 0
12.3105 1.82473e-14 1.82469e-14 3.58983e-19 1.96732e-05 2.69607e-05 5.22966e-30 2.85753e-27 2.24716e-27 1.22531e-25 4.7476e-25 0 2.19569e-22 0 1.23146e-20 0
12.9424 1.74368e-14 1.74365e-14 2.93125e-19 1.68107e-05 1.96099e-05 6.58885e-29 2.07991e-26 2.10576e-26 7.9442e-25 3.42564e-24 0 1.17414e-21 0 5.40983e-20 0
13.6067 1.67881e-14 1.67878e-14 2.39354e-19 1.42574e-05 1.34761e-05 7.285e-28 1.38658e-25 1.75689e-25 4.72865e-24 2.229e-23 0 5.74537e-21 0 2.19566e-19 0
14.3051 1.6346e-14 1.63458e-14 1.95292e-19 1.19474e-05 8.15955e-06 7.14249e-27 8.52942e-25 1.3178e-24 2.60328e-23 1.31984e-22 0 2.59421e-20 0 8.29855e-19 0
15.0394 1.61168e-14 1.61167e-14 1.59248e-19 9.88087e-06 3.3769e-06 6.25832e-26 4.86567e-24 8.95001e-24 1.33217e-22 7.15835e-22 0 1.08723e-19 0 2.93654e-18 0
15.8114 1.61463e-14 1.61461e-14 1.29853e-19 8.0423e-06 -1.10838e-06 4.94716e-25 2.59167e-23 5.55249e-23 6.37976e-22 3.58564e-21 0 4.26151e-19 0 9.79914e-18 0
16.623 1.64292e-14 1.64291e-14 1.05864e-19 6.44368e-06 -5.62531e-06 3.54735e-24 1.29278e-22 3.16184e-22 2.86773e-21 1.66588e-20 0 1.56794e-18 0 3.09367e-17 0
17.4762 1.69996e-14 1.69995e-14 8.62624e-20 5.07438e-06 -9.96766e-06 2.32281e-23 6.06582e-22 1.66281e-21 1.21525e-20 7.21913e-20 0 5.44264e-18 0 9.28367e-17 0
18.3733 1.79385e-14 1.79385e-14 7.0252e-20 3.91627e-06 -1.408e-05 1.40033e-22 2.69329e-21 8.13761e-21 4.8841e-20 2.93889e-19 0 1.79411e-17 0 2.66447e-16 0
19.3164 1.92715e-14 1.92714e-14 5.72868e-20 2.97262e-06 -1.82762e-05 7.79752e-22 1.13302e-20 3.71608e-20 1.86389e-19 1.12647e-18 0 5.62602e-17 0 7.32411e-16 0
20.3079 2.10609e-14 2.10609e-14 4.67442e-20 2.21947e-06 -2.30367e-05 4.02649e-21 4.52545e-20 1.589e-19 6.76825e-19 4.07772e-18 0 1.68257e-16 0 1.93245e-15 0
21.3503 2.34537e-14 2.34537e-14 3.81825e-20 1.628e-06 -2.65198e-05 1.94013e-20 1.72378e-19 6.39872e-19 2.34894e-18 1.40146e-17 0 4.82234e-16 0 4.91625e-15 0
22.4463 2.65943e-14 2.65943e-14 3.12899e-20 1.17656e-06 -2.92958e-05 8.75416e-20 6.27382e-19 2.43416e-18 7.80609e-18 4.58552e-17 0 1.32751e-15 0 1.20832e-14 0
23.5984 3.05979e-14 3.05979e-14 2.57949e-20 8.43027e-07 -3.18342e-05 3.70106e-19 2.17965e-18 8.74889e-18 2.48163e-17 1.42804e-16 0 3.50773e-15 0 2.86643e-14 0
24.8097 3.55002e-14 3.55002e-14 2.14485e-20 6.04178e-07 -3.53166e-05 1.46277e-18 7.20174e-18 2.96304e-17 7.51909e-17 4.21999e-16 0 8.86581e-15 0 6.53867e-14 0
26.0832 4.12532e-14 4.12532e-14 1.80654e-20 4.37914e-07 -3.76251e-05 5.38782e-18 2.25292e-17 9.42287e-17 2.16162e-16 1.17878e-15 0 2.13441e-14 0 1.42784e-13 0
27.4221 4.74409e-14 4.74409e-14 1.54262e-20 3.25166e-07 -3.94585e-05 1.83382e-17 6.60832e-17 2.789e-16 5.83923e-16 3.08409e-15 0 4.84793e-14 0 2.95569e-13 0
28.8297 5.31343e-14 5.31343e-14 1.33945e-20 2.52088e-07 -4.01765e-05 5.69514e-17 1.79254e-16 7.58372e-16 1.46179e-15 7.4577e-15 0 1.02475e-13 0 5.71994e-13 0
30.3095 5.76783e-14 5.76783e-14 1.17739e-20 2.04131e-07 -4.04916e-05 1.61117e-16 4.48425e-16 1.89069e-15 3.38202e-15 1.66293e-14 0 2.01061e-13 0 1.0319e-12 0
31.8653 5.90029e-14 5.90029e-14 1.03447e-20 1.75326e-07 -3.98252e-05 4.04932e-16 1.00795e-15 4.21354e-15 7.04544e-15 3.33271e-14 0 3.5678e-13 0 1.69056e-12 0
33.5009 5.78403e-14 5.78403e-14 9.0735e-21 1.56872e-07 -3.90977e-05 9.22039e-16 2.07409e-15 8.5575e-15 1.34645e-14 6.11853e-14 0 5.83419e-13 0 2.56227e-12 0
35.2206 5.30812e-14 5.30812e-14 7.77046e-21 1.46388e-07 -3.68829e-05 1.86336e-15 3.82415e-15 1.55114e-14 2.31046e-14 1.00749e-13 0 8.60517e-13 0 3.51583e-12 0
37.0284 4.6982e-14 4.6982e-14 6.57274e-21 1.39899e-07 -3.46814e-05 3.45203e-15 6.52028e-15 2.59117e-14 3.67391e-14 1.53607e-13 0 1.18154e-12 0 4.50686e-12 0
38.9291 4.02881e-14 4.02881e-14 5.46019e-21 1.35529e-07 -3.16918e-05 5.90393e-15 1.03456e-14 4.01624e-14 5.44764e-14 2.18272e-13 0 1.51977e-12 0 5.43021e-12 0
40.9273 3.39397e-14 3.39397e-14 4.4922e-21 1.32358e-07 -2.84974e-05 9.47428e-15 1.5515e-14 5.86909e-14 7.65041e-14 2.93667e-13 0 1.85989e-12 0 6.24492e-12 0
43.0282 2.83964e-14 2.83964e-14 3.66481e-21 1.29059e-07 -2.42518e-05 1.44546e-14 2.2269e-14 8.19144e-14 1.03036e-13 3.78881e-13 0 2.19279e-12 0 6.93997e-12 0
45.2368 2.36711e-14 2.36711e-14 2.97976e-21 1.25882e-07 -1.96612e-05 2.10775e-14 3.07357e-14 1.09747e-13 1.33708e-13 4.71042e-13 0 2.50224e-12 0 7.48627e-12 0
47.5588 1.9857e-14 1.9857e-14 2.41674e-21 1.21707e-07 -1.17984e-05 2.97309e-14 4.1264e-14 1.42822e-13 1.6911e-13 5.70919e-13 0 2.79536e-12 0 7.92767e-12 0
50 1.6657e-14 1.6657e-14 1.96044e-21 1.17695e-07 -4.27311e-06 4.03884e-14 5.36232e-14 1.79708e-13 2.07434e-13 6.71377e-13 0 3.04197e-12 0 8.19924e-12 0
52.5665 1.40802e-14 1.40802e-14 1.58934e-21 1.12878e-07 4.03033e-06 5.33468e-14 6.8066e-14 2.20681e-13 2.49015e-13 7.73075e-13 0 3.25373e-12 0 8.35594e-12 0
55.2648 1.19698e-14 1.19698e-14 1.28874e-21 1.07666e-07 1.15299e-05 6.84945e-14 8.43366e-14 2.64367e-13 2.92349e-13 8.71133e-13 0 3.41811e-12 0 8.38356e-12 0
58.1015 1.02381e-14 1.02381e-14 1.04644e-21 1.0221e-07 1.80731e-05 8.56656e-14 1.02176e-13 3.09544e-13 3.36229e-13 9.62323e-13 0 3.53231e-12 0 8.29306e-12 0
61.0839 8.80268e-15 8.80268e-15 8.5003e-22 9.65649e-08 2.33696e-05 1.04438e-13 1.21082e-13 3.54435e-13 3.78928e-13 1.04254e-12 0 3.59163e-12 0 8.08914e-12 0
64.2193 7.60316e-15 7.60316e-15 6.9077e-22 9.0853e-08 2.7499e-05 1.24217e-13 1.40421e-13 3.97153e-13 4.18683e-13 1.10829e-12 0 3.59473e-12 0 7.78269e-12 0
67.5157 6.60095e-15 6.60095e-15 5.61788e-22 8.51071e-08 3.02511e-05 1.44428e-13 1.59645e-13 4.36304e-13 4.54305e-13 1.1581e-12 0 3.54707e-12 0 7.39681e-12 0
70.9813 5.75574e-15 5.75574e-15 4.57337e-22 7.94575e-08 3.18895e-05 1.6425e-13 1.7798e-13 4.70127e-13 4.8423e-13 1.18987e-12 0 3.45122e-12 0 6.94509e-12 0
74.6248 5.03788e-15 5.03788e-15 3.7241e-22 7.39219e-08 3.25225e-05 1.82842e-13 1.94672e-13 4.97172e-13 5.07232e-13 1.20266e-12 0 3.3124e-12 0 6.44414e-12 0
78.4553 4.42473e-15 4.42473e-15 3.03319e-22 6.85508e-08 3.22794e-05 1.99407e-13 2.09042e-13 5.16403e-13 5.2249e-13 1.1966e-12 0 3.13765e-12 0 5.91147e-12 0
82.4824 3.89986e-15 3.89986e-15 2.47269e-22 6.34047e-08 3.11338e-05 2.13324e-13 2.20604e-13 5.27413e-13 5.29784e-13 1.17317e-12 0 2.936e-12 0 5.36581e-12 0
86.7162 3.45014e-15 3.45014e-15 2.01657e-22 5.84491e-08 2.89154e-05 2.24164e-13 2.29061e-13 5.30316e-13 5.29376e-13 1.13472e-12 0 2.71675e-12 0 4.82402e-12 0
91.1674 3.06156e-15 3.06156e-15 1.64474e-22 5.37222e-08 2.61377e-05 2.31458e-13 2.34062e-13 5.25112e-13 5.21364e-13 1.08292e-12 0 2.48609e-12 0 4.29553e-12 0
95.847 2.72436e-15 2.72436e-15 1.34161e-22 4.92452e-08 2.32668e-05 2.35018e-13 2.35519e-13 5.12391e-13 5.06393e-13 1.02035e-12 0 2.25101e-12 0 3.79011e-12 0
100.767 2.43218e-15 2.43218e-15 1.09535e-22 4.50356e-08 2.03801e-05 2.35001e-13 2.33665e-13 4.93355e-13 4.85674e-13 9.50363e-13 0 2.01899e-12 0 3.31734e-12 0
105.939 2.18447e-15 2.18447e-15 8.942e-23 4.09344e-08 1.69334e-05 2.32269e-13 2.294e-13 4.70439e-13 4.6159e-13 8.78135e-13 0 1.80009e-12 0 2.89011e-12 0
111.377 1.97102e-15 1.97102e-15 7.29897e-23 3.70314e-08 1.35657e-05 2.26793e-13 2.22707e-13 4.43975e-13 4.34428e-13 8.04377e-13 0 1.59409e-12 0 2.50413e-12 0
117.094 1.79517e-15 1.79517e-15 5.96035e-23 3.32021e-08 1.02648e-05 2.20003e-13 2.14989e-13 4.17002e-13 4.07112e-13 7.34457e-13 0 1.40975e-12 0 2.1694e-12 0
123.105 1.65577e-15 1.65577e-15 4.87123e-23 2.94198e-08 7.19492e-06 2.12888e-13 2.07187e-13 3.91357e-13 3.81376e-13 6.71097e-13 0 1.24983e-12 0 1.8863e-12 0
129.424 1.54313e-15 1.54313e-15 3.98461e-23 2.58217e-08 4.43476e-06 2.05195e-13 1.99023e-13 3.66441e-13 3.56575e-13 6.12674e-13 0 1.10896e-12 0 1.64333e-12 0
136.067 1.43638e-15 1.43638e-15 3.26198e-23 2.27098e-08 2.11136e-06 1.94877e-13 1.8849e-13 3.38596e-13 3.29109e-13 5.52742e-13 0 9.73932e-13 0 1.41857e-12 0
143.051 1.30291e-15 1.30291e-15 2.67426e-23 2.05252e-08 1.48502e-07 1.78056e-13 1.71835e-13 3.01444e-13 2.92754e-13 4.81106e-13 0 8.26489e-13 0 1.18444e-12 0
150.394 1.15837e-15 1.15837e-15 2.19181e-23 1.89215e-08 -1.60198e-06 1.57529e-13 1.51757e-13 2.60228e-13 2.52578e-13 4.06568e-13 0 6.81958e-13 0 9.62512e-13 0
158.114 1.01443e-15 1.01443e-15 1.79375e-23 1.76823e-08 -2.83972e-06 1.35711e-13 1.30563e-13 2.19051e-13 2.12532e-13 3.35425e-13 0 5.50117e-13 0 7.65374e-13 0
166.23 8.87081e-16 8.87081e-16 1.46703e-23 1.65378e-08 -4.04188e-06 1.15483e-13 1.10994e-13 1.82369e-13 1.76909e-13 2.74015e-13 0 4.39995e-13 0 6.03965e-13 0
174.763 7.76869e-16 7.76869e-16 1.20033e-23 1.54508e-08 -5.20657e-06 9.74123e-14 9.35625e-14 1.5069e-13 1.46174e-13 2.22415e-13 0 3.50104e-13 0 4.74531e-13 0
183.733 6.88044e-16 6.88044e-16 9.8163e-24 1.4267e-08 -5.93467e-06 8.2298e-14 7.9014e-14 1.24858e-13 1.21128e-13 1.81219e-13 0 2.79975e-13 0 3.74996e-13 0
193.164 6.10493e-16 6.10493e-16 8.02587e-24 1.31465e-08 -6.62341e-06 6.90237e-14 6.62582e-14 1.02819e-13 9.97683e-14 1.46894e-13 0 2.22994e-13 0 2.95363e-13 0
203.079 5.43765e-16 5.43765e-16 6.56338e-24 1.20703e-08 -7.18723e-06 5.76154e-14 5.53085e-14 8.43581e-14 8.18799e-14 1.18744e-13 0 1.77313e-13 0 2.32413e-13 0
213.503 4.87653e-16 4.87653e-16 5.36954e-24 1.1011e-08 -7.48559e-06 4.80323e-14 4.61179e-14 6.91958e-14 6.71881e-14 9.60525e-14 0 1.41227e-13 0 1.83305e-13 0
