# 5.0119e-06 0 86 : grain size, compostion index, size index
# Heating and cooling timescale: 0.372862 29275.1
# Ratio of heating to cooling to determine stochastic cutoff: 100
# Equilibrium emission is recorded even for those grains in the stochastic regime.
# Emission spectrum was computed for: 
# Type: IRSF
# Scales: 0.25 0.5 1 1.5 2 2.5 3 3.5 4 4.5 5 5.5 6 6.5 7 7.5 8 8.5 9 9.5 10
# StochasticallyHeated: 0 0 0 0 0 0 0 0 0 0 0 0 0 0 0 0 0 0 0 0 0
# Temperature: -1
# Wavelength  CExt  CAbs  CSca  Albedo G EqEm1 StEm1 EqEm2 StEm2 EqEm3 StEm3 EqEm4 StEm4 EqEm5 StEm5 EqEm6 StEm6 EqEm7 StEm7 EqEm8 StEm8 EqEm9 StEm9 EqEm10 StEm10 EqEm11 StEm11 EqEm12 StEm12 EqEm13 StEm13 EqEm14 StEm14 EqEm15 StEm15 EqEm16 StEm16 EqEm17 StEm17 EqEm18 StEm18 EqEm19 StEm19 EqEm20 StEm20 EqEm21 StEm21
0.05 5.57226e-11 2.73426e-11 2.83801e-11 0.50931 0.00576547 0 0 0 0 0 0 0 0 0 0 0 0 0 0 0 0 0 0 0 0 0 0 0 0 0 0 0 0 0 0 0 0 0 0 0 0 0 0 0 0 0 0
0.0525665 6.159e-11 3.02216e-11 3.13684e-11 0.50931 0.00637255 0 0 0 0 0 0 0 0 0 0 0 0 0 0 0 0 0 0 0 0 0 0 0 0 0 0 0 0 0 0 0 0 0 0 0 0 0 0 0 0 0 0
0.0552647 6.80751e-11 3.34038e-11 3.46713e-11 0.50931 0.00704355 0 0 0 0 0 0 0 0 0 0 0 0 0 0 0 0 0 0 0 0 0 0 0 0 0 0 0 0 0 0 0 0 0 0 0 0 0 0 0 0 0 0
0.0581015 7.5243e-11 3.6921e-11 3.8322e-11 0.50931 0.0077852 0 0 0 0 0 0 0 0 0 0 0 0 0 0 0 0 0 0 0 0 0 0 0 0 0 0 0 0 0 0 0 0 0 0 0 0 0 0 0 0 0 0
0.0610839 8.31658e-11 4.08086e-11 4.23571e-11 0.50931 0.00860494 0 0 0 0 0 0 0 0 0 0 0 0 0 0 0 0 0 0 0 0 0 0 0 0 0 0 0 0 0 0 0 0 0 0 0 0 0 0 0 0 0 0
0.0642193 9.19227e-11 4.51056e-11 4.68171e-11 0.50931 0.009511 0 0 0 0 0 0 0 0 0 0 0 0 0 0 0 0 0 0 0 0 0 0 0 0 0 0 0 0 0 0 0 0 0 0 0 0 0 0 0 0 0 0
0.0675157 1.01602e-10 4.9855e-11 5.17468e-11 0.50931 0.0105125 0 0 0 0 0 0 0 0 0 0 0 0 0 0 0 0 0 0 0 0 0 0 0 0 0 0 0 0 0 0 0 0 0 0 0 0 0 0 0 0 0 0
0.0709813 1.123e-10 5.51045e-11 5.71954e-11 0.50931 0.0116194 0 0 0 0 0 0 0 0 0 0 0 0 0 0 0 0 0 0 0 0 0 0 0 0 0 0 0 0 0 0 0 0 0 0 0 0 0 0 0 0 0 0
0.0746248 1.24125e-10 6.09067e-11 6.32178e-11 0.50931 0.0128428 0 0 0 0 0 0 0 0 0 0 0 0 0 0 0 0 0 0 0 0 0 0 0 0 0 0 0 0 0 0 0 0 0 0 0 0 0 0 0 0 0 0
0.0784553 1.37194e-10 6.73199e-11 6.98743e-11 0.50931 0.0141951 0 0 0 0 0 0 0 0 0 0 0 0 0 0 0 0 0 0 0 0 0 0 0 0 0 0 0 0 0 0 0 0 0 0 0 0 0 0 0 0 0 0
0.0824824 1.5164e-10 7.44083e-11 7.72318e-11 0.50931 0.0156898 0 0 0 0 0 0 0 0 0 0 0 0 0 0 0 0 0 0 0 0 0 0 0 0 0 0 0 0 0 0 0 0 0 0 0 0 0 0 0 0 0 0
0.0867162 1.67607e-10 8.22432e-11 8.5364e-11 0.50931 0.0173419 0 0 0 0 0 0 0 0 0 0 0 0 0 0 0 0 0 0 0 0 0 0 0 0 0 0 0 0 0 0 0 0 0 0 0 0 0 0 0 0 0 0
0.0911674 1.85255e-10 9.0903e-11 9.43524e-11 0.50931 0.0191679 0 0 0 0 0 0 0 0 0 0 0 0 0 0 0 0 0 0 0 0 0 0 0 0 0 0 0 0 0 0 0 0 0 0 0 0 0 0 0 0 0 0
0.095847 2.04762e-10 1.00475e-10 1.04287e-10 0.50931 0.0211862 0 0 0 0 0 0 0 0 0 0 0 0 0 0 0 0 0 0 0 0 0 0 0 0 0 0 0 0 0 0 0 0 0 0 0 0 0 0 0 0 0 0
0.100767 2.22715e-10 1.10034e-10 1.12681e-10 0.505942 0.0235692 0 0 0 0 0 0 0 0 0 0 0 0 0 0 0 0 0 0 0 0 0 0 0 0 0 0 0 0 0 0 0 0 0 0 0 0 0 0 0 0 0 0
0.105939 2.22905e-10 1.14702e-10 1.08203e-10 0.485421 0.0256046 0 0 0 0 0 0 0 0 0 0 0 0 0 0 0 0 0 0 0 0 0 0 0 0 0 0 0 0 0 0 0 0 0 0 0 0 0 0 0 0 0 0
0.111377 2.25102e-10 1.17324e-10 1.07777e-10 0.478793 0.0289403 0 0 0 0 0 0 0 0 0 0 0 0 0 0 0 0 0 0 0 0 0 0 0 0 0 0 0 0 0 0 0 0 0 0 0 0 0 0 0 0 0 0
0.117094 2.30493e-10 1.23609e-10 1.06885e-10 0.463721 0.0274507 0 0 0 0 0 0 0 0 0 0 0 0 0 0 0 0 0 0 0 0 0 0 0 0 0 0 0 0 0 0 0 0 0 0 0 0 0 0 0 0 0 0
0.123105 2.47491e-10 1.23891e-10 1.236e-10 0.499413 0.0236555 0 0 0 0 0 0 0 0 0 0 0 0 0 0 0 0 0 0 0 0 0 0 0 0 0 0 0 0 0 0 0 0 0 0 0 0 0 0 0 0 0 0
0.129424 2.60511e-10 1.163e-10 1.44211e-10 0.553568 0.0199126 0 0 0 0 0 0 0 0 0 0 0 0 0 0 0 0 0 0 0 0 0 0 0 0 0 0 0 0 0 0 0 0 0 0 0 0 0 0 0 0 0 0
0.136067 2.48065e-10 1.09644e-10 1.38421e-10 0.558002 0.0168557 0 0 0 0 0 0 0 0 0 0 0 0 0 0 0 0 0 0 0 0 0 0 0 0 0 0 0 0 0 0 0 0 0 0 0 0 0 0 0 0 0 0
0.143051 2.12356e-10 1.00196e-10 1.12159e-10 0.528168 0.0143876 0 0 0 0 0 0 0 0 0 0 0 0 0 0 0 0 0 0 0 0 0 0 0 0 0 0 0 0 0 0 0 0 0 0 0 0 0 0 0 0 0 0
0.150394 1.76497e-10 9.43578e-11 8.21395e-11 0.465387 0.0122986 0 0 0 0 0 0 0 0 0 0 0 0 0 0 0 0 0 0 0 0 0 0 0 0 0 0 0 0 0 0 0 0 0 0 0 0 0 0 0 0 0 0
0.158114 1.49353e-10 9.26729e-11 5.66802e-11 0.379505 0.01055 0 0 0 0 0 0 0 0 0 0 0 0 0 0 0 0 0 0 0 0 0 0 0 0 0 0 0 0 0 0 0 0 0 0 0 0 0 0 0 0 0 0
0.16623 1.34726e-10 9.36665e-11 4.106e-11 0.304765 0.00908216 0 0 0 0 0 0 0 0 0 0 0 0 0 0 0 0 0 0 0 0 0 0 0 0 0 0 0 0 0 0 0 0 0 0 0 0 0 0 0 0 0 0
0.174762 1.31709e-10 9.65702e-11 3.51387e-11 0.266791 0.00782097 0 0 0 0 0 0 0 0 0 0 0 0 0 0 0 0 0 0 0 0 0 0 0 0 0 0 0 0 0 0 0 0 0 0 0 0 0 0 0 0 0 0
0.183733 1.37853e-10 1.01247e-10 3.66055e-11 0.26554 0.00667218 0 0 0 0 0 0 0 0 0 0 0 0 0 0 0 0 0 0 0 0 0 0 0 0 0 0 0 0 0 0 0 0 0 0 0 0 0 0 0 0 0 0
0.193164 1.55115e-10 1.09072e-10 4.60427e-11 0.296831 0.00556038 0 0 0 0 0 0 0 0 0 0 0 0 0 0 0 0 0 0 0 0 0 0 0 0 0 0 0 0 0 0 0 0 0 0 0 0 0 0 0 0 0 0
0.203079 1.82547e-10 1.20171e-10 6.23765e-11 0.341701 0.00446034 0 0 0 0 0 0 0 0 0 0 0 0 0 0 0 0 0 0 0 0 0 0 0 0 0 0 0 0 0 0 0 0 0 0 0 0 0 0 0 0 0 0
0.213503 2.14532e-10 1.32161e-10 8.23711e-11 0.383957 0.00342932 0 0 0 0 0 0 0 0 0 0 0 0 0 0 0 0 0 0 0 0 0 0 0 0 0 0 0 0 0 0 0 0 0 0 0 0 0 0 0 0 0 0
0.224463 2.40577e-10 1.39062e-10 1.01515e-10 0.421964 0.00254317 0 0 0 0 0 0 0 0 0 0 0 0 0 0 0 0 0 0 0 0 0 0 0 0 0 0 0 0 0 0 0 0 0 0 0 0 0 0 0 0 0 0
0.235984 2.52784e-10 1.36772e-10 1.16012e-10 0.458938 0.00182186 0 0 0 0 0 0 0 0 0 0 0 0 0 0 0 0 0 0 0 0 0 0 0 0 0 0 0 0 0 0 0 0 0 0 0 0 0 0 0 0 0 0
0.248097 2.55622e-10 1.30277e-10 1.25345e-10 0.490354 0.00138916 0 0 0 0 0 0 0 0 0 0 0 0 0 0 0 0 0 0 0 0 0 0 0 0 0 0 0 0 0 0 0 0 0 0 0 0 0 0 0 0 0 0
0.260832 2.56174e-10 1.26468e-10 1.29706e-10 0.506321 0.00141961 0 0 0 0 0 0 0 0 0 0 0 0 0 0 0 0 0 0 0 0 0 0 0 0 0 0 0 0 0 0 0 0 0 0 0 0 0 0 0 0 0 0
0.274221 2.56665e-10 1.27764e-10 1.28901e-10 0.502215 0.00187131 0 0 0 0 0 0 0 0 0 0 0 0 0 0 0 0 0 0 0 0 0 0 0 0 0 0 0 0 0 0 0 0 0 0 0 0 0 0 0 0 0 0
0.288297 2.57714e-10 1.33072e-10 1.24642e-10 0.483646 0.00251556 0 0 0 0 0 0 0 0 0 0 0 0 0 0 0 0 0 0 0 0 0 0 0 0 0 0 0 0 0 0 0 0 0 0 0 0 0 0 0 0 0 0
0.303095 2.56424e-10 1.38272e-10 1.18152e-10 0.460767 0.0028362 0 0 0 0 0 0 0 0 0 0 0 0 0 0 0 0 0 0 0 0 0 0 0 0 0 0 0 0 0 0 0 0 0 0 0 0 0 0 0 0 0 0
0.318653 2.45001e-10 1.38275e-10 1.06726e-10 0.435613 0.00297223 0 0 0 0 0 0 0 0 0 0 0 0 0 0 0 0 0 0 0 0 0 0 0 0 0 0 0 0 0 0 0 0 0 0 0 0 0 0 0 0 0 0
0.335009 2.22273e-10 1.31375e-10 9.08979e-11 0.408947 0.00293231 0 0 0 0 0 0 0 0 0 0 0 0 0 0 0 0 0 0 0 0 0 0 0 0 0 0 0 0 0 0 0 0 0 0 0 0 0 0 0 0 0 0
0.352205 1.96481e-10 1.2128e-10 7.52006e-11 0.382738 0.00278811 0 0 0 0 0 0 0 0 0 0 0 0 0 0 0 0 0 0 0 0 0 0 0 0 0 0 0 0 0 0 0 0 0 0 0 0 0 0 0 0 0 0
0.370284 1.73847e-10 1.1174e-10 6.21069e-11 0.35725 0.00261033 0 0 0 0 0 0 0 0 0 0 0 0 0 0 0 0 0 0 0 0 0 0 0 0 0 0 0 0 0 0 0 0 0 0 0 0 0 0 0 0 0 0
0.389291 1.5532e-10 1.0361e-10 5.171e-11 0.332925 0.00243645 0 0 0 0 0 0 0 0 0 0 0 0 0 0 0 0 0 0 0 0 0 0 0 0 0 0 0 0 0 0 0 0 0 0 0 0 0 0 0 0 0 0
0.409273 1.39639e-10 9.63091e-11 4.33302e-11 0.310301 0.00226652 0 0 0 0 0 0 0 0 0 0 0 0 0 0 0 0 0 0 0 0 0 0 0 0 0 0 0 0 0 0 0 0 0 0 0 0 0 0 0 0 0 0
0.430281 1.25628e-10 8.92833e-11 3.63446e-11 0.289303 0.00210471 0 0 0 0 0 0 0 0 0 0 0 0 0 0 0 0 0 0 0 0 0 0 0 0 0 0 0 0 0 0 0 0 0 0 0 0 0 0 0 0 0 0
0.452368 1.12683e-10 8.23132e-11 3.03698e-11 0.269516 0.00193723 0 0 0 0 0 0 0 0 0 0 0 0 0 0 0 0 0 0 0 0 0 0 0 0 0 0 0 0 0 0 0 0 0 0 0 0 0 0 0 0 0 0
0.475588 1.00713e-10 7.54861e-11 2.52269e-11 0.250483 0.00177642 0 0 0 0 0 0 0 0 0 0 0 0 0 0 0 0 0 0 0 0 0 0 0 0 0 0 0 0 0 0 0 0 0 0 0 0 0 0 0 0 0 0
0.5 8.98198e-11 6.89904e-11 2.08294e-11 0.231902 0.00162159 0 0 0 0 0 0 0 0 0 0 0 0 0 0 0 0 0 0 0 0 0 0 0 0 0 0 0 0 0 0 0 0 0 0 0 0 0 0 0 0 0 0
0.525665 8.01317e-11 6.30113e-11 1.71204e-11 0.213654 0.0014751 0 0 0 0 0 0 0 0 0 0 0 0 0 0 0 0 0 0 0 0 0 0 0 0 0 0 0 0 0 0 0 0 0 0 0 0 0 0 0 0 0 0
0.552648 7.16847e-11 5.76501e-11 1.40346e-11 0.195782 0.00134175 0 0 0 0 0 0 0 0 0 0 0 0 0 0 0 0 0 0 0 0 0 0 0 0 0 0 0 0 0 0 0 0 0 0 0 0 0 0 0 0 0 0
0.581015 6.44234e-11 5.29291e-11 1.14943e-11 0.178417 0.00121775 0 0 0 0 0 0 0 0 0 0 0 0 0 0 0 0 0 0 0 0 0 0 0 0 0 0 0 0 0 0 0 0 0 0 0 0 0 0 0 0 0 0
0.610839 5.82177e-11 4.87993e-11 9.41841e-12 0.161779 0.00110516 0 0 0 0 0 0 0 0 0 0 0 0 0 0 0 0 0 0 0 0 0 0 0 0 0 0 0 0 0 0 0 0 0 0 0 0 0 0 0 0 0 0
0.642193 5.2918e-11 4.5189e-11 7.72897e-12 0.146056 0.00100302 0 0 0 0 0 0 0 0 0 0 0 0 0 0 0 0 0 0 0 0 0 0 0 0 0 0 0 0 0 0 0 0 0 0 0 0 0 0 0 0 0 0
0.675157 4.83619e-11 4.20062e-11 6.35575e-12 0.13142 0.000910957 0 0 0 0 0 0 0 0 0 0 0 0 0 0 0 0 0 0 0 0 0 0 0 0 0 0 0 0 0 0 0 0 0 0 0 0 0 0 0 0 0 0
0.709813 4.44022e-11 3.91638e-11 5.23838e-12 0.117976 0.00082817 0 0 0 0 0 0 0 0 0 0 0 0 0 0 0 0 0 0 0 0 0 0 0 0 0 0 0 0 0 0 0 0 0 0 0 0 0 0 0 0 0 0
0.746248 4.09153e-11 3.65883e-11 4.32694e-12 0.105754 0.000754183 0 0 0 0 0 0 0 0 0 0 0 0 0 0 0 0 0 0 0 0 0 0 0 0 0 0 0 0 0 0 0 0 0 0 0 0 0 0 0 0 0 0
0.784553 3.77961e-11 3.42152e-11 3.58086e-12 0.0947416 0.000686995 0 0 0 0 0 0 0 0 0 0 0 0 0 0 0 0 0 0 0 0 0 0 0 0 0 0 0 0 0 0 0 0 0 0 0 0 0 0 0 0 0 0
0.824824 3.49692e-11 3.20009e-11 2.96828e-12 0.0848828 0.000626788 0 0 0 0 0 0 0 0 0 0 0 0 0 0 0 0 0 0 0 0 0 0 0 0 0 0 0 0 0 0 0 0 0 0 0 0 0 0 0 0 0 0
0.867162 3.23717e-11 2.99085e-11 2.46324e-12 0.0760924 0.000572518 0 0 0 0 0 0 0 0 0 0 0 0 0 0 0 0 0 0 0 0 0 0 0 0 0 0 0 0 0 0 0 0 0 0 0 0 0 0 0 0 0 0
0.911674 2.99637e-11 2.7918e-11 2.04569e-12 0.0682722 0.000523427 0 0 0 0 0 0 0 0 0 0 0 0 0 0 0 0 0 0 0 0 0 0 0 0 0 0 0 0 0 0 0 0 0 0 0 0 0 0 0 0 0 0
0.95847 2.77152e-11 2.60158e-11 1.69942e-12 0.061317 0.00047944 0 0 0 0 0 0 0 0 0 0 0 0 0 0 0 0 0 0 0 0 0 0 0 0 0 0 0 0 0 0 0 0 0 0 0 0 0 0 0 0 0 0
1.00767 2.56089e-11 2.4197e-11 1.41187e-12 0.0551319 0.0004395 0 0 0 0 0 0 0 0 0 0 0 0 0 0 0 0 0 0 0 0 0 0 0 0 0 0 0 0 0 0 0 0 0 0 0 0 0 0 0 0 0 0
1.05939 2.36339e-11 2.24613e-11 1.17254e-12 0.0496129 0.000403275 0 0 0 0 0 0 0 0 0 0 0 0 0 0 0 0 0 0 0 0 0 0 0 0 0 0 0 0 0 0 0 0 0 0 0 0 0 0 0 0 0 0
1.11377 2.17585e-11 2.07856e-11 9.72955e-13 0.0447161 0.000370298 0 0 0 0 0 0 0 0 0 0 0 0 0 0 0 0 0 0 0 0 0 0 0 0 0 0 0 0 0 0 0 0 0 0 0 0 0 0 0 0 0 0
1.17094 2.00106e-11 1.92034e-11 8.07173e-13 0.0403373 0.000339515 0 0 0 0 0 0 0 0 0 0 0 0 0 0 0 0 0 0 0 0 0 0 0 0 0 0 0 0 0 0 0 0 0 0 0 0 0 0 0 0 0 0
1.23105 1.8372e-11 1.77032e-11 6.6885e-13 0.0364058 0.000311294 0 0 0 0 0 0 0 0 0 0 0 0 0 0 0 0 0 0 0 0 0 0 0 0 0 0 0 0 0 0 0 0 0 0 0 0 0 0 0 0 0 0
1.29424 1.68409e-11 1.62871e-11 5.53864e-13 0.032888 0.000285362 0 0 0 0 0 0 0 0 0 0 0 0 0 0 0 0 0 0 0 0 0 0 0 0 0 0 0 0 0 0 0 0 0 0 0 0 0 0 0 0 0 0
1.36067 1.54136e-11 1.49554e-11 4.58236e-13 0.0297293 0.000261742 0 0 0 0 0 0 0 0 0 0 0 0 0 0 0 0 0 0 0 0 0 0 0 0 0 0 0 0 0 0 0 0 0 0 0 0 0 0 0 0 0 0
1.43051 1.4086e-11 1.37073e-11 3.7868e-13 0.0268834 0.000240209 0 0 0 0 0 0 0 0 0 0 0 0 0 0 0 0 0 0 0 0 0 0 0 0 0 0 0 0 0 0 0 0 0 0 0 0 0 0 0 0 0 0
1.50394 1.28587e-11 1.2546e-11 3.12712e-13 0.024319 0.000220279 0 0 0 0 0 0 0 0 0 0 0 0 0 0 0 0 0 0 0 0 0 0 0 0 0 0 0 0 0 0 0 0 0 0 0 0 0 0 0 0 0 0
1.58114 1.17258e-11 1.14677e-11 2.5805e-13 0.0220071 0.000201732 0 0 0 0 0 0 0 0 0 0 0 0 0 0 0 0 0 0 0 0 0 0 0 0 0 0 0 0 0 0 0 0 0 0 0 0 0 0 0 0 0 0
1.6623 1.06816e-11 1.04689e-11 2.12761e-13 0.0199184 0.000184534 0 0 0 0 0 0 0 0 0 0 0 0 0 0 0 0 0 0 0 0 0 0 0 0 0 0 0 0 0 0 0 0 0 0 0 0 0 0 0 0 0 0
1.74763 9.72174e-12 9.54644e-12 1.753e-13 0.0180318 0.000169005 0 0 0 0 0 0 0 0 0 0 0 0 0 0 0 0 0 0 0 0 0 0 0 0 0 0 0 0 0 0 0 0 0 0 0 0 0 0 0 0 0 0
1.83733 8.84188e-12 8.69753e-12 1.44344e-13 0.0163251 0.000154804 0 0 0 0 0 0 0 0 0 0 0 0 0 0 0 0 0 0 0 0 0 0 0 0 0 0 0 0 0 0 0 0 0 0 0 0 0 0 0 0 0 0
1.93164 8.0361e-12 7.91732e-12 1.18777e-13 0.0147804 0.000141793 0 0 0 0 0 0 0 0 0 0 0 0 0 0 0 0 0 0 0 0 0 0 0 0 0 0 0 0 0 0 0 0 0 0 0 0 0 0 0 0 0 0
2.03079 7.3001e-12 7.20242e-12 9.76737e-14 0.0133798 0.000129725 0 0 0 0 0 0 0 0 0 0 0 0 0 0 0 0 0 0 0 0 0 0 0 0 0 0 0 0 0 0 0 0 0 0 0 0 0 0 0 0 0 0
2.13503 6.62893e-12 6.54864e-12 8.0295e-14 0.0121128 0.000118657 0 0 0 0 0 0 0 0 0 0 0 0 0 0 0 0 0 0 0 0 0 0 0 0 0 0 0 0 0 0 0 0 0 0 0 0 0 0 0 0 0 0
2.24463 6.01724e-12 5.95126e-12 6.59718e-14 0.0109638 0.000108569 0 0 0 0 0 0 0 0 0 0 0 0 0 0 0 0 0 0 0 0 0 0 0 0 0 0 0 0 0 0 0 0 0 0 0 0 0 0 0 0 0 0
2.35984 5.46063e-12 5.40644e-12 5.41841e-14 0.00992268 9.92926e-05 0 0 0 0 0 0 0 0 0 0 0 0 0 0 0 0 0 0 0 0 0 0 0 0 0 0 0 0 0 0 0 0 0 0 0 0 0 0 0 0 0 0
2.48097 4.95464e-12 4.91016e-12 4.44851e-14 0.00897846 9.07218e-05 0 0 0 0 0 0 0 0 0 0 0 0 0 0 0 0 0 0 0 0 0 0 0 0 0 0 0 0 0 0 0 0 0 0 0 0 0 0 0 0 0 0
2.60832 4.49518e-12 4.45866e-12 3.65116e-14 0.00812241 8.27967e-05 0 0 0 0 0 0 0 0 0 0 0 0 0 0 0 0 0 0 0 0 0 0 0 0 0 0 0 0 0 0 0 0 0 0 0 0 0 0 0 0 0 0
2.74221 4.07853e-12 4.04857e-12 2.99621e-14 0.00734628 7.55862e-05 0 0 0 0 0 0 0 0 0 0 0 0 0 0 0 0 0 0 0 0 0 0 0 0 0 0 0 0 0 0 0 0 0 0 0 0 0 0 0 0 0 0
2.88297 3.70029e-12 3.67571e-12 2.45752e-14 0.00664142 6.90729e-05 0 0 0 0 0 0 0 0 0 0 0 0 0 0 0 0 0 0 0 0 0 0 0 0 0 0 0 0 0 0 0 0 0 0 0 0 0 0 0 0 0 0
3.03095 3.35798e-12 3.33783e-12 2.01577e-14 0.00600292 6.31538e-05 0 0 0 0 0 0 0 0 0 0 0 0 0 0 0 0 0 0 0 0 0 0 0 0 0 0 0 0 0 0 0 0 0 0 0 0 0 0 0 0 0 0
3.18653 3.0478e-12 3.03128e-12 1.6528e-14 0.00542293 5.76567e-05 0 0 0 0 0 0 0 0 0 0 0 0 0 0 0 0 0 0 0 0 0 0 0 0 0 0 0 0 0 0 0 0 0 0 0 0 0 0 0 0 0 0
3.35009 2.76703e-12 2.75348e-12 1.35496e-14 0.00489681 5.2603e-05 0 0 0 0 0 0 0 0 0 0 0 0 0 0 0 0 0 0 0 0 0 0 0 0 0 0 0 0 0 0 0 0 0 0 0 0 0 0 0 0 0 0
3.52205 2.51313e-12 2.50202e-12 1.11067e-14 0.00441949 4.80102e-05 0 0 0 0 0 0 0 0 0 0 0 0 0 0 0 0 0 0 0 0 0 0 0 0 0 0 0 0 0 0 0 0 0 0 0 0 0 0 0 0 0 0
3.70284 2.28341e-12 2.27431e-12 9.10267e-15 0.00398643 4.38066e-05 0 0 0 0 0 0 0 0 0 0 0 0 0 0 0 0 0 0 0 0 0 0 0 0 0 0 0 0 0 0 0 0 0 0 0 0 0 0 0 0 0 0
3.89291 2.07578e-12 2.06832e-12 7.45887e-15 0.00359328 3.9926e-05 0 0 0 0 0 0 0 0 0 0 0 0 0 0 0 0 0 0 0 0 0 0 0 0 0 0 0 0 0 0 0 0 0 0 0 0 0 0 0 0 0 0
4.09273 1.88817e-12 1.88206e-12 6.11179e-15 0.00323688 3.62643e-05 0 0 0 0 0 0 0 0 0 0 0 0 0 0 0 0 0 0 0 0 0 0 0 0 0 0 0 0 0 0 0 0 0 0 0 0 0 0 0 0 0 0
4.30281 1.71865e-12 1.71365e-12 5.00751e-15 0.00291362 3.29535e-05 0 0 0 0 0 0 0 0 0 0 0 0 0 0 0 0 0 0 0 0 0 0 0 0 0 0 0 0 0 0 0 0 0 0 1.4013e-45 0 4.2039e-45 0 1.12104e-44 0 2.8026e-44 0
4.52368 1.5656e-12 1.5615e-12 4.10284e-15 0.00262062 2.99416e-05 0 0 0 0 0 0 0 0 0 0 0 0 0 0 0 0 0 0 0 0 0 0 0 0 0 0 1.4013e-45 0 4.2039e-45 0 1.4013e-44 0 4.62428e-44 0 1.41531e-43 0 4.00771e-43 0 1.07339e-42 0 2.72412e-42 0
4.75588 1.4273e-12 1.42394e-12 3.36141e-15 0.00235507 2.71796e-05 0 0 0 0 0 0 0 0 0 0 0 0 0 0 0 0 0 0 0 0 1.4013e-45 0 4.2039e-45 0 2.38221e-44 0 1.03696e-43 0 3.95166e-43 0 1.35926e-42 0 4.24033e-42 0 1.24547e-41 0 3.34574e-41 0 8.52788e-41 0 2.06767e-40 0
5 1.30244e-12 1.29968e-12 2.75361e-15 0.0021142 2.45398e-05 0 0 0 0 0 0 0 0 0 0 0 0 0 0 0 0 1.4013e-45 0 1.26117e-44 0 8.82818e-44 0 4.86251e-43 0 2.2645e-42 0 9.03978e-42 0 3.24092e-41 0 1.05069e-40 0 3.09981e-40 0 8.63871e-40 0 2.21137e-39 0 5.38485e-39 0 1.25037e-38 0
5.25665 1.18977e-12 1.18752e-12 2.25576e-15 0.00189596 2.21678e-05 0 0 0 0 0 0 0 0 0 0 0 0 1.4013e-45 0 1.4013e-44 0 1.5134e-43 0 1.23595e-42 0 7.70294e-42 0 3.89323e-41 0 1.68035e-40 0 6.27073e-40 0 2.1122e-39 0 6.46545e-39 0 1.80933e-38 0 4.79623e-38 0 1.17268e-37 0 2.73416e-37 0 6.0929e-37 0
5.52648 1.08793e-12 1.08609e-12 1.84781e-15 0.00169845 2.00489e-05 0 0 0 0 0 0 0 0 0 0 2.8026e-45 0 8.68805e-44 0 1.27798e-42 0 1.25907e-41 0 9.29635e-41 0 5.30163e-40 0 2.4756e-39 0 9.94874e-39 0 3.48146e-38 0 1.10517e-37 0 3.2031e-37 0 8.52451e-37 0 2.15467e-36 0 5.04317e-36 0 1.12823e-35 0 2.41772e-35 0
5.81015 9.95993e-13 9.9448e-13 1.51366e-15 0.00151975 1.8115e-05 0 0 0 0 0 0 0 0 5.60519e-45 0 3.15292e-43 0 7.27694e-42 0 9.45736e-41 0 8.3309e-40 0 5.57883e-39 0 2.92228e-38 0 1.26566e-37 0 4.75237e-37 0 1.56438e-36 0 4.69372e-36 0 1.2915e-35 0 3.27672e-35 0 7.91568e-35 0 1.77738e-34 0 3.82295e-34 0 7.8931e-34 0
6.10839 9.13121e-13 9.1188e-13 1.24035e-15 0.00135836 1.63023e-05 0 0 0 0 0 0 4.2039e-45 0 5.70328e-43 0 2.459e-41 0 4.87133e-40 0 5.58558e-39 0 4.42439e-38 0 2.70012e-37 0 1.30451e-36 0 5.25972e-36 0 1.85141e-35 0 5.75006e-35 0 1.63512e-34 0 4.28218e-34 0 1.03817e-33 0 2.40223e-33 0 5.18507e-33 0 1.07432e-32 0 2.14097e-32 0
6.42193 8.34039e-13 8.33025e-13 1.01342e-15 0.00121508 1.48144e-05 0 0 0 0 0 0 3.46121e-43 0 4.23711e-41 0 1.52007e-39 0 2.6027e-38 0 2.64923e-37 0 1.8968e-36 0 1.05974e-35 0 4.74096e-35 0 1.78573e-34 0 5.91115e-34 0 1.73705e-33 0 4.69384e-33 0 1.17282e-32 0 2.72305e-32 0 6.04801e-32 0 1.2573e-31 0 2.51403e-31 0 4.84425e-31 0
6.75157 7.70578e-13 7.69747e-13 8.31081e-16 0.00107852 1.32279e-05 0 0 0 0 2.8026e-44 0 2.62127e-41 0 2.53729e-39 0 7.64279e-38 0 1.13917e-36 0 1.03534e-35 0 6.73356e-35 0 3.45893e-34 0 1.43827e-33 0 5.07774e-33 0 1.58542e-32 0 4.42006e-32 0 1.1378e-31 0 2.71863e-31 0 6.05779e-31 0 1.29405e-30 0 2.59574e-30 0 5.01765e-30 0 9.3637e-30 0
7.09813 7.09519e-13 7.08838e-13 6.80756e-16 0.000959461 1.18448e-05 0 0 0 0 2.35138e-42 0 1.57587e-39 0 1.22018e-37 0 3.11243e-36 0 4.06581e-35 0 3.31776e-34 0 1.96927e-33 0 9.33908e-33 0 3.62231e-32 0 1.20245e-31 0 3.5514e-31 0 9.41766e-31 0 2.3149e-30 0 5.30087e-30 0 1.13585e-29 0 2.33811e-29 0 4.53329e-29 0 8.48551e-29 0 1.53602e-28 0
7.46248 6.54964e-13 6.54406e-13 5.57543e-16 0.000851258 1.05694e-05 0 0 1.4013e-45 0 1.56899e-40 0 7.651e-38 0 4.79068e-36 0 1.04326e-34 0 1.20213e-33 0 8.85394e-33 0 4.81764e-32 0 2.11752e-31 0 7.68717e-31 0 2.40662e-30 0 6.74181e-30 0 1.70467e-29 0 4.01014e-29 0 8.81875e-29 0 1.82063e-28 0 3.61791e-28 0 6.79152e-28 0 1.23293e-27 0 2.16807e-27 0
7.84553 6.05338e-13 6.04881e-13 4.56637e-16 0.000754351 9.34187e-06 0 0 1.41531e-43 0 8.39959e-39 0 3.0277e-36 0 1.54907e-34 0 2.90229e-33 0 2.96804e-32 0 1.98296e-31 0 9.93328e-31 0 4.06155e-30 0 1.3845e-29 0 4.09954e-29 0 1.0921e-28 0 2.6391e-28 0 5.95437e-28 0 1.26001e-27 0 2.51083e-27 0 4.82494e-27 0 8.78309e-27 0 1.54873e-26 0 2.64937e-26 0
8.24824 5.59351e-13 5.58977e-13 3.73968e-16 0.000668575 8.19911e-06 0 0 1.05209e-41 0 3.64269e-37 0 9.85012e-35 0 4.15873e-33 0 6.75296e-32 0 6.16487e-31 0 3.75402e-30 0 1.73824e-29 0 6.6351e-29 0 2.13032e-28 0 5.98231e-28 0 1.51921e-27 0 3.51645e-27 0 7.62485e-27 0 1.55552e-26 0 2.99709e-26 0 5.57857e-26 0 9.86226e-26 0 1.69152e-25 0 2.81877e-25 0
8.67162 5.18618e-13 5.18312e-13 3.0627e-16 0.00059055 7.20916e-06 9.80909e-45 0 6.24336e-40 0 1.29762e-35 0 2.66947e-33 0 9.38814e-32 0 1.33048e-30 0 1.0903e-29 0 6.07875e-29 0 2.61173e-28 0 9.33822e-28 0 2.83222e-27 0 7.56237e-27 0 1.83504e-26 0 4.07696e-26 0 8.5124e-26 0 1.67717e-25 0 3.12965e-25 0 5.65126e-25 0 9.71667e-25 0 1.62322e-24 0 2.63835e-24 0
9.11674 4.81416e-13 4.81166e-13 2.50826e-16 0.000521017 6.32492e-06 7.63708e-43 0 2.99079e-38 0 3.82566e-34 0 6.06793e-32 0 1.79352e-30 0 2.23315e-29 0 1.6514e-28 0 8.46612e-28 0 3.38756e-27 0 1.13817e-26 0 3.26997e-26 0 8.32242e-26 0 1.93393e-25 0 4.13242e-25 0 8.32358e-25 0 1.58656e-24 0 2.87175e-24 0 5.03809e-24 0 8.43618e-24 0 1.37444e-23 0 2.18163e-23 0
9.5847 4.48111e-13 4.47906e-13 2.05411e-16 0.000458394 5.52644e-06 5.00894e-41 0 1.17063e-36 0 9.43676e-33 0 1.16877e-30 0 2.92812e-29 0 3.22351e-28 0 2.16192e-27 0 1.02332e-26 0 3.82661e-26 0 1.21182e-25 0 3.30671e-25 0 8.04069e-25 0 1.79311e-24 0 3.69206e-24 0 7.18666e-24 0 1.32738e-23 0 2.33402e-23 0 3.98386e-23 0 6.50509e-23 0 1.03487e-22 0 1.60599e-22 0
10.0767 4.18148e-13 4.1798e-13 1.68232e-16 0.000402326 4.78203e-06 2.6434e-39 0 3.78044e-35 0 1.96435e-31 0 1.92283e-29 0 4.11627e-28 0 4.03071e-27 0 2.46342e-26 0 1.08081e-25 0 3.7895e-25 0 1.13439e-24 0 2.94738e-24 0 6.86266e-24 0 1.47163e-23 0 2.92515e-23 0 5.51167e-23 0 9.87962e-23 0 1.68998e-22 0 2.81026e-22 0 4.48021e-22 0 6.96762e-22 0 1.05834e-21 0
