# 7.9433e-08 0 14 : grain size, compostion index, size index
# Heating and cooling timescale: 172165 2.52955
# Ratio of heating to cooling to determine stochastic cutoff: 100
# Equilibrium emission is recorded even for those grains in the stochastic regime.
# Emission spectrum was computed for: 
# Type: IRSF
# Scales: 0.25 0.5 1 1.5 2 2.5 3 3.5 4 4.5 5 5.5 6 6.5 7 7.5 8 8.5 9 9.5 10
# StochasticallyHeated: 1 1 1 1 1 1 1 1 1 1 1 1 1 1 1 1 1 1 1 1 1
# Temperature: -1
# Wavelength  CExt  CAbs  CSca  Albedo G EqEm1 StEm1 EqEm2 StEm2 EqEm3 StEm3 EqEm4 StEm4 EqEm5 StEm5 EqEm6 StEm6 EqEm7 StEm7 EqEm8 StEm8 EqEm9 StEm9 EqEm10 StEm10 EqEm11 StEm11 EqEm12 StEm12 EqEm13 StEm13 EqEm14 StEm14 EqEm15 StEm15 EqEm16 StEm16 EqEm17 StEm17 EqEm18 StEm18 EqEm19 StEm19 EqEm20 StEm20 EqEm21 StEm21
0.05 6.25548e-16 6.25499e-16 4.83475e-20 7.72883e-05 0.000106175 0 0 0 0 0 0 0 0 0 0 0 0 0 0 0 0 0 0 0 0 0 0 0 0 0 0 0 0 0 0 0 0 0 0 0 0 0 0 0 0 0 0
0.0525665 6.91415e-16 6.91361e-16 5.34383e-20 7.72883e-05 0.000117355 0 0 0 0 0 0 0 0 0 0 0 0 0 0 0 0 0 0 0 0 0 0 0 0 0 0 0 0 0 0 0 0 0 0 0 0 0 0 0 0 0 0
0.0552647 7.64217e-16 7.64158e-16 5.90651e-20 7.72883e-05 0.000129712 0 0 0 0 0 0 0 0 0 0 0 0 0 0 0 0 0 0 0 0 0 0 0 0 0 0 0 0 0 0 0 0 0 0 0 0 0 0 0 0 0 0
0.0581015 8.44686e-16 8.4462e-16 6.52843e-20 7.72883e-05 0.00014337 0 0 0 0 0 0 0 0 0 0 0 0 0 0 0 0 0 0 0 0 0 0 0 0 0 0 0 0 0 0 0 0 0 0 0 0 0 0 0 0 0 0
0.0610839 9.33627e-16 9.33555e-16 7.21584e-20 7.72883e-05 0.000158466 0 0 0 0 0 0 0 0 0 0 0 0 0 0 0 0 0 0 0 0 0 0 0 0 0 0 0 0 0 0 0 0 0 0 0 0 0 0 0 0 0 0
0.0642193 1.03193e-15 1.03185e-15 7.97564e-20 7.72883e-05 0.000175152 0 0 0 0 0 0 0 0 0 0 0 0 0 0 0 0 0 0 0 0 0 0 0 0 0 0 0 0 0 0 0 0 0 0 0 0 0 0 0 0 0 0
0.0675157 1.14059e-15 1.1405e-15 8.81544e-20 7.72883e-05 0.000193595 0 0 0 0 0 0 0 0 0 0 0 0 0 0 0 0 0 0 0 0 0 0 0 0 0 0 0 0 0 0 0 0 0 0 0 0 0 0 0 0 0 0
0.0709813 1.26069e-15 1.26059e-15 9.74366e-20 7.72883e-05 0.000213979 0 0 0 0 0 0 0 0 0 0 0 0 0 0 0 0 0 0 0 0 0 0 0 0 0 0 0 0 0 0 0 0 0 0 0 0 0 0 0 0 0 0
0.0746248 1.39343e-15 1.39333e-15 1.07696e-19 7.72883e-05 0.00023651 0 0 0 0 0 0 0 0 0 0 0 0 0 0 0 0 0 0 0 0 0 0 0 0 0 0 0 0 0 0 0 0 0 0 0 0 0 0 0 0 0 0
0.0784553 1.54016e-15 1.54004e-15 1.19036e-19 7.72883e-05 0.000261414 0 0 0 0 0 0 0 0 0 0 0 0 0 0 0 0 0 0 0 0 0 0 0 0 0 0 0 0 0 0 0 0 0 0 0 0 0 0 0 0 0 0
0.0824824 1.70233e-15 1.70219e-15 1.3157e-19 7.72883e-05 0.000288939 0 0 0 0 0 0 0 0 0 0 0 0 0 0 0 0 0 0 0 0 0 0 0 0 0 0 0 0 0 0 0 0 0 0 0 0 0 0 0 0 0 0
0.0867162 1.88157e-15 1.88143e-15 1.45424e-19 7.72883e-05 0.000319363 0 0 0 0 0 0 0 0 0 0 0 0 0 0 0 0 0 0 0 0 0 0 0 0 0 0 0 0 0 0 0 0 0 0 0 0 0 0 0 0 0 0
0.0911674 2.0797e-15 2.07953e-15 1.60736e-19 7.72883e-05 0.000352991 0 0 0 0 0 0 0 0 0 0 0 0 0 0 0 0 0 0 0 0 0 0 0 0 0 0 0 0 0 0 0 0 0 0 0 0 0 0 0 0 0 0
0.095847 2.29868e-15 2.2985e-15 1.77661e-19 7.72883e-05 0.000390159 0 0 0 0 0 0 0 0 0 0 0 0 0 0 0 0 0 0 0 0 0 0 0 0 0 0 0 0 0 0 0 0 0 0 0 0 0 0 0 0 0 0
0.100767 2.45516e-15 2.45498e-15 1.81374e-19 7.38744e-05 0.000433533 0 0 0 0 0 0 0 0 0 0 0 0 0 0 0 0 0 0 0 0 0 0 0 0 0 0 0 0 0 0 0 0 0 0 0 0 0 0 0 0 0 0
0.105939 2.1487e-15 2.14858e-15 1.21662e-19 5.66211e-05 0.000467737 0 0 0 0 0 0 0 0 0 0 0 0 0 0 0 0 0 0 0 0 0 0 0 0 0 0 0 0 0 0 0 0 0 0 0 0 0 0 0 0 0 0
0.111377 1.85363e-15 1.85353e-15 9.50476e-20 5.12766e-05 0.000531193 0 0 0 0 0 0 0 0 0 0 0 0 0 0 0 0 0 0 0 0 0 0 0 0 0 0 0 0 0 0 0 0 0 0 0 0 0 0 0 0 0 0
0.117094 1.57992e-15 1.57986e-15 6.40168e-20 4.0519e-05 0.000490724 0 0 0 0 0 0 0 0 0 0 0 0 0 0 0 0 0 0 0 0 0 0 0 0 0 0 0 0 0 0 0 0 0 0 0 0 0 0 0 0 0 0
0.123105 1.3388e-15 1.33876e-15 4.0363e-20 3.01485e-05 0.000421071 0 0 0 0 0 0 0 0 0 0 0 0 0 0 0 0 0 0 0 0 0 0 0 0 0 0 0 0 0 0 0 0 0 0 0 0 0 0 0 0 0 0
0.129424 1.12815e-15 1.12812e-15 2.59603e-20 2.30115e-05 0.000354348 0 0 0 0 0 0 0 0 0 0 0 0 0 0 0 0 0 0 0 0 0 0 0 0 0 0 0 0 0 0 0 0 0 0 0 0 0 0 0 0 0 0
0.136067 9.80708e-16 9.80691e-16 1.69363e-20 1.72695e-05 0.000299782 0 0 0 0 0 0 0 0 0 0 0 0 0 0 0 0 0 0 0 0 0 0 0 0 0 0 0 0 0 0 0 0 0 0 0 0 0 0 0 0 0 0
0.143051 8.91732e-16 8.91721e-16 1.10939e-20 1.24408e-05 0.000255613 0 0 0 0 0 0 0 0 0 0 0 0 0 0 0 0 0 0 0 0 0 0 0 0 0 0 0 0 0 0 0 0 0 0 0 0 0 0 0 0 0 0
0.150394 8.43775e-16 8.43768e-16 7.30178e-21 8.65371e-06 0.000218209 0 0 0 0 0 0 0 0 0 0 0 0 0 0 0 0 0 0 0 0 0 0 0 0 0 0 0 0 0 0 0 0 0 0 0 0 0 0 0 0 0 0
0.158114 8.35256e-16 8.35251e-16 4.95954e-21 5.93775e-06 0.000186917 0 0 0 0 0 0 0 0 0 0 0 0 0 0 0 0 0 0 0 0 0 0 0 0 0 0 0 0 0 0 0 0 0 0 0 0 0 0 0 0 0 0
0.16623 8.68269e-16 8.68265e-16 3.75843e-21 4.32864e-06 0.000160657 0 0 0 0 0 0 0 0 0 0 0 0 0 0 0 0 0 0 0 0 0 0 0 0 0 0 0 0 0 0 0 0 0 0 0 0 0 0 0 0 0 0
0.174762 9.50767e-16 9.50764e-16 3.43263e-21 3.61038e-06 0.000138119 0 0 0 0 0 0 0 0 0 0 0 0 0 0 0 0 0 0 0 0 0 0 0 0 0 0 0 0 0 0 0 0 0 0 0 0 0 0 0 0 0 0
0.183733 1.0975e-15 1.09749e-15 3.90678e-21 3.55972e-06 0.000117635 0 0 0 0 0 0 0 0 0 0 0 0 0 0 0 0 0 0 0 0 0 0 0 0 0 0 0 0 0 0 0 0 0 0 0 0 0 0 0 0 0 0
0.193164 1.35559e-15 1.35558e-15 5.63575e-21 4.15742e-06 9.78941e-05 0 0 0 0 0 0 0 0 0 0 0 0 0 0 0 0 0 0 0 0 0 0 0 0 0 0 0 0 0 0 0 0 0 0 0 0 0 0 0 0 0 0
0.203079 1.77044e-15 1.77044e-15 8.9453e-21 5.05257e-06 7.85025e-05 0 0 0 0 0 0 0 0 0 0 0 0 0 0 0 0 0 0 0 0 0 0 0 0 0 0 0 0 0 0 0 0 0 0 0 0 0 0 0 0 0 0
0.213503 2.17951e-15 2.1795e-15 1.29044e-20 5.92077e-06 6.03742e-05 0 0 0 0 0 0 0 0 0 0 0 0 0 0 0 0 0 0 0 0 0 0 0 0 0 0 0 0 0 0 0 0 0 0 0 0 0 0 0 0 0 0
0.224463 2.09124e-15 2.09123e-15 1.45882e-20 6.97585e-06 4.46982e-05 0 0 0 1.4013e-45 0 8.40779e-45 0 0 0 0 0 0 0 0 0 0 0 0 0 0 0 0 0 0 0 0 0 0 0 0 0 0 0 0 0 0 0 0 0 0 0 0
0.235984 1.61952e-15 1.6195e-15 1.28557e-20 7.93797e-06 3.19054e-05 0 8.40779e-45 0 3.50325e-44 0 1.42932e-43 0 0 0 0 0 0 0 0 0 0 0 0 0 0 0 0 0 0 0 0 0 0 0 0 0 0 0 1.4013e-45 0 1.4013e-45 0 2.8026e-45 0 2.8026e-45 0 4.2039e-45
0.248097 1.22482e-15 1.22481e-15 9.83974e-21 8.03365e-06 2.44372e-05 0 1.34525e-43 0 5.35296e-43 0 2.14259e-42 0 1.4013e-45 0 1.4013e-45 0 2.8026e-45 0 2.8026e-45 0 4.2039e-45 0 4.2039e-45 0 5.60519e-45 0 5.60519e-45 0 8.40779e-45 0 9.80909e-45 0 1.26117e-44 0 1.82169e-44 0 2.52234e-44 0 3.36312e-44 0 4.90454e-44 0 6.72623e-44 0 9.24857e-44 0 1.26117e-43
0.260832 9.82387e-16 9.8238e-16 7.10618e-21 7.23358e-06 2.54593e-05 0 1.85952e-42 0 7.41147e-42 0 2.96066e-41 0 7.42688e-44 0 9.94922e-44 0 1.24716e-43 0 1.5134e-43 0 1.77965e-43 0 2.07392e-43 0 2.42425e-43 0 2.83062e-43 0 3.36312e-43 0 4.11982e-43 0 5.08671e-43 0 6.45999e-43 0 8.44983e-43 0 1.0804e-42 0 1.47697e-42 0 1.9436e-42 0 2.56998e-42 0 3.42477e-42
0.274221 8.36579e-16 8.36574e-16 5.04167e-21 6.02653e-06 3.40291e-05 0 2.40883e-41 0 9.53261e-41 0 3.79327e-40 0 3.09827e-42 0 4.13663e-42 0 5.18621e-42 0 6.2554e-42 0 7.36382e-42 0 8.53531e-42 0 9.83852e-42 0 1.13057e-41 0 1.30937e-41 0 1.54045e-41 0 1.82015e-41 0 2.19471e-41 0 2.70577e-41 0 3.29627e-41 0 4.23921e-41 0 5.32409e-41 0 6.74137e-41 0 8.62569e-41
0.288297 7.44807e-16 7.44803e-16 3.58777e-21 4.81704e-06 4.55899e-05 0 2.94365e-40 0 1.14046e-39 0 4.48861e-39 0 1.1082e-40 0 1.47973e-40 0 1.85414e-40 0 2.23366e-40 0 2.62331e-40 0 3.02849e-40 0 3.46397e-40 0 3.93647e-40 0 4.47891e-40 0 5.13221e-40 0 5.88501e-40 0 6.82959e-40 0 8.04366e-40 0 9.40711e-40 0 1.14481e-39 0 1.37438e-39 0 1.66508e-39 0 2.04036e-39
0.303095 6.81645e-16 6.81642e-16 2.596e-21 3.80844e-06 5.11317e-05 0 3.49467e-39 0 1.28462e-38 0 4.91274e-38 0 3.38398e-39 0 4.51771e-39 0 5.65858e-39 0 6.81135e-39 0 7.98635e-39 0 9.19388e-39 0 1.04628e-38 0 1.18036e-38 0 1.32776e-38 0 1.49557e-38 0 1.68112e-38 0 1.90047e-38 0 2.16628e-38 0 2.45664e-38 0 2.86081e-38 0 3.30495e-38 0 3.84755e-38 0 4.52438e-38
0.318653 6.0517e-16 6.05168e-16 1.92271e-21 3.17713e-06 5.33534e-05 0 4.08388e-38 0 1.35231e-37 0 4.84739e-37 0 8.39917e-38 0 1.12116e-37 0 1.40385e-37 0 1.68882e-37 0 1.97782e-37 0 2.27244e-37 0 2.57735e-37 0 2.89377e-37 0 3.23119e-37 0 3.59973e-37 0 3.99456e-37 0 4.43877e-37 0 4.94951e-37 0 5.49381e-37 0 6.19707e-37 0 6.95252e-37 0 7.84012e-37 0 8.90533e-37
0.335009 5.32648e-16 5.32647e-16 1.46194e-21 2.74467e-06 5.24731e-05 0 5.09254e-37 0 1.4521e-36 0 4.63901e-36 0 1.74673e-36 0 2.33134e-36 0 2.91843e-36 0 3.50927e-36 0 4.10628e-36 0 4.71157e-36 0 5.33154e-36 0 5.9672e-36 0 6.63115e-36 0 7.33556e-36 0 8.07332e-36 0 8.87276e-36 0 9.75371e-36 0 1.0674e-35 0 1.17844e-35 0 1.29532e-35 0 1.42743e-35 0 1.57972e-35
0.352205 4.65886e-16 4.65885e-16 1.14053e-21 2.44809e-06 4.97913e-05 0 6.71659e-36 0 1.65667e-35 0 4.56708e-35 0 3.07606e-35 0 4.10516e-35 0 5.13792e-35 0 6.17594e-35 0 7.22211e-35 0 8.27876e-35 0 9.35345e-35 0 1.04466e-34 0 1.15725e-34 0 1.27439e-34 0 1.39519e-34 0 1.52263e-34 0 1.65871e-34 0 1.79878e-34 0 1.95852e-34 0 2.12394e-34 0 2.30457e-34 0 2.50507e-34
0.370284 4.04833e-16 4.04832e-16 9.10035e-22 2.24793e-06 4.65512e-05 0 8.75262e-35 0 1.95375e-34 0 4.72054e-34 0 4.62186e-34 0 6.16756e-34 0 7.71793e-34 0 9.27468e-34 0 1.08407e-33 0 1.24183e-33 0 1.40152e-33 0 1.56307e-33 0 1.72796e-33 0 1.89725e-33 0 2.07006e-33 0 2.24911e-33 0 2.43612e-33 0 2.62665e-33 0 2.83493e-33 0 3.04802e-33 0 3.27438e-33 0 3.51784e-33
0.389291 3.49275e-16 3.49274e-16 7.38637e-22 2.11477e-06 4.34046e-05 0 1.05783e-33 0 2.23451e-33 0 4.94451e-33 0 5.96554e-33 0 7.96003e-33 0 9.95965e-33 0 1.1966e-32 0 1.39817e-32 0 1.60084e-32 0 1.80531e-32 0 2.01145e-32 0 2.22053e-32 0 2.43336e-32 0 2.64918e-32 0 2.8701e-32 0 3.09747e-32 0 3.32758e-32 0 3.57171e-32 0 3.81945e-32 0 4.07738e-32 0 4.34822e-32
0.409273 2.99129e-16 2.99129e-16 6.05786e-22 2.02516e-06 4.03428e-05 0 1.14592e-32 0 2.35487e-32 0 4.96187e-32 0 6.65983e-32 0 8.88587e-32 0 1.11169e-31 0 1.33541e-31 0 1.55995e-31 0 1.78542e-31 0 2.01238e-31 0 2.24063e-31 0 2.47119e-31 0 2.70456e-31 0 2.94018e-31 0 3.17948e-31 0 3.4234e-31 0 3.6692e-31 0 3.92478e-31 0 4.18278e-31 0 4.44769e-31 0 4.72124e-31
0.430281 2.54196e-16 2.54195e-16 4.99137e-22 1.96359e-06 3.74357e-05 0 1.09792e-31 0 2.22631e-31 0 4.57449e-31 0 6.47132e-31 0 8.63385e-31 0 1.08006e-30 0 1.29724e-30 0 1.51506e-30 0 1.73357e-30 0 1.95317e-30 0 2.17367e-30 0 2.39578e-30 0 2.61974e-30 0 2.84523e-30 0 3.07307e-30 0 3.30385e-30 0 3.53579e-30 0 3.7738e-30 0 4.01324e-30 0 4.25689e-30 0 4.50568e-30
0.452368 2.14227e-16 2.14226e-16 4.11588e-22 1.92127e-06 3.4438e-05 0 9.27681e-31 0 1.86887e-30 0 3.79177e-30 0 5.50539e-30 0 7.34478e-30 0 9.1873e-30 0 1.10335e-29 0 1.28841e-29 0 1.47394e-29 0 1.66017e-29 0 1.84696e-29 0 2.03475e-29 0 2.22364e-29 0 2.41346e-29 0 2.60463e-29 0 2.79747e-29 0 2.99095e-29 0 3.18779e-29 0 3.38542e-29 0 3.58534e-29 0 3.78799e-29
0.475588 1.78982e-16 1.78981e-16 3.39032e-22 1.89423e-06 3.15654e-05 0 6.92506e-30 0 1.39054e-29 0 2.80318e-29 0 4.124e-29 0 5.50161e-29 0 6.88131e-29 0 8.2634e-29 0 9.64819e-29 0 1.10358e-28 0 1.24275e-28 0 1.38223e-28 0 1.52227e-28 0 1.6629e-28 0 1.80404e-28 0 1.94588e-28 0 2.08857e-28 0 2.23159e-28 0 2.37628e-28 0 2.52136e-28 0 2.66758e-28 0 2.81511e-28
0.5 1.48121e-16 1.48121e-16 2.78889e-22 1.88284e-06 2.88043e-05 0 4.58176e-29 0 9.18455e-29 0 1.84531e-28 0 2.73359e-28 0 3.6466e-28 0 4.56084e-28 0 5.47647e-28 0 6.39359e-28 0 7.31221e-28 0 8.23303e-28 0 9.15538e-28 0 1.00806e-27 0 1.10087e-27 0 1.19393e-27 0 1.28731e-27 0 1.3811e-27 0 1.47503e-27 0 1.56972e-27 0 1.6646e-27 0 1.75998e-27 0 1.85593e-27
0.525665 1.2128e-16 1.2128e-16 2.29207e-22 1.8899e-06 2.6195e-05 0 2.69612e-28 0 5.39971e-28 0 1.08292e-27 0 1.61027e-27 0 2.14801e-27 0 2.68642e-27 0 3.22554e-27 0 3.76541e-27 0 4.306e-27 0 4.84766e-27 0 5.39001e-27 0 5.9337e-27 0 6.47861e-27 0 7.02473e-27 0 7.57219e-27 0 8.12136e-27 0 8.67116e-27 0 9.22406e-27 0 9.77774e-27 0 1.03335e-26 0 1.08916e-26
0.552648 9.79504e-17 9.79502e-17 1.88341e-22 1.92282e-06 2.38213e-05 0 1.41359e-27 0 2.82968e-27 0 5.66931e-27 0 8.4482e-27 0 1.12691e-26 0 1.40931e-26 0 1.69205e-26 0 1.97513e-26 0 2.25852e-26 0 2.54238e-26 0 2.82653e-26 0 3.11124e-26 0 3.39644e-26 0 3.68214e-26 0 3.96837e-26 0 4.25526e-26 0 4.54239e-26 0 4.83069e-26 0 5.1193e-26 0 5.4087e-26 0 5.69893e-26
0.581015 7.72273e-17 7.72272e-17 1.54867e-22 2.00534e-06 2.16161e-05 0 6.56683e-27 0 1.31415e-26 0 2.6314e-26 0 3.92627e-26 0 5.23712e-26 0 6.54931e-26 0 7.86288e-26 0 9.17782e-26 0 1.0494e-25 0 1.18121e-25 0 1.31312e-25 0 1.44524e-25 0 1.57755e-25 0 1.71005e-25 0 1.84272e-25 0 1.97564e-25 0 2.10864e-25 0 2.24204e-25 0 2.37555e-25 0 2.50934e-25 0 2.64341e-25
0.610839 5.73768e-17 5.73767e-17 1.27501e-22 2.22216e-06 1.96144e-05 0 2.62113e-26 0 5.24447e-26 0 1.04977e-25 0 1.56763e-25 0 2.09096e-25 0 2.61477e-25 0 3.13909e-25 0 3.66389e-25 0 4.18913e-25 0 4.715e-25 0 5.2412e-25 0 5.76814e-25 0 6.29564e-25 0 6.82379e-25 0 7.3525e-25 0 7.88196e-25 0 8.41169e-25 0 8.9426e-25 0 9.47391e-25 0 1.00061e-24 0 1.0539e-24
0.642193 3.98979e-17 3.98978e-17 1.05143e-22 2.63532e-06 1.77993e-05 0 8.96776e-26 0 1.79412e-25 0 3.59048e-25 0 5.36464e-25 0 7.15537e-25 0 8.94763e-25 0 1.07415e-24 0 1.25367e-24 0 1.43334e-24 0 1.61319e-24 0 1.79313e-24 0 1.97329e-24 0 2.15361e-24 0 2.33412e-24 0 2.51478e-24 0 2.69565e-24 0 2.87659e-24 0 3.05785e-24 0 3.23922e-24 0 3.42082e-24 0 3.60262e-24
0.675157 2.99202e-17 2.99201e-17 8.68808e-23 2.90375e-06 1.61636e-05 0 3.04325e-25 0 6.08801e-25 0 1.2182e-24 0 1.82086e-24 0 2.42862e-24 0 3.03685e-24 0 3.64557e-24 0 4.25474e-24 0 4.86431e-24 0 5.47445e-24 0 6.08486e-24 0 6.69591e-24 0 7.30739e-24 0 7.91945e-24 0 8.53193e-24 0 9.14497e-24 0 9.75825e-24 0 1.03724e-23 0 1.09868e-23 0 1.16019e-23 0 1.22175e-23
0.709813 2.28309e-17 2.28308e-17 7.19327e-23 3.15067e-06 1.46931e-05 0 9.70364e-25 0 1.94112e-24 0 3.88378e-24 0 5.80688e-24 0 7.74492e-24 0 9.68438e-24 0 1.16252e-23 0 1.35674e-23 0 1.55108e-23 0 1.74557e-23 0 1.94014e-23 0 2.13489e-23 0 2.32975e-23 0 2.52478e-23 0 2.71992e-23 0 2.91522e-23 0 3.11057e-23 0 3.30615e-23 0 3.50182e-23 0 3.69766e-23 0 3.89364e-23
0.746248 1.55195e-17 1.55194e-17 5.96717e-23 3.84496e-06 1.33792e-05 0 2.55497e-24 0 5.11082e-24 0 1.02251e-23 0 1.52917e-23 0 2.03949e-23 0 2.55016e-23 0 3.06118e-23 0 3.57251e-23 0 4.08411e-23 0 4.5961e-23 0 5.10825e-23 0 5.62083e-23 0 6.13368e-23 0 6.64692e-23 0 7.1604e-23 0 7.67424e-23 0 8.18822e-23 0 8.70266e-23 0 9.21735e-23 0 9.73242e-23 0 1.02478e-22
0.784553 9.88499e-18 9.88494e-18 4.95849e-23 5.01619e-06 1.21863e-05 0 5.8645e-24 0 1.17307e-23 0 2.34683e-23 0 3.5104e-23 0 4.68183e-23 0 5.85401e-23 0 7.02691e-23 0 8.20049e-23 0 9.37463e-23 0 1.05496e-22 0 1.17249e-22 0 1.2901e-22 0 1.40778e-22 0 1.52553e-22 0 1.64333e-22 0 1.7612e-22 0 1.8791e-22 0 1.9971e-22 0 2.11514e-22 0 2.23326e-22 0 2.35144e-22
0.824824 6.43335e-18 6.43331e-18 4.12679e-23 6.41468e-06 1.11174e-05 0 1.28406e-23 0 2.56845e-23 0 5.13822e-23 0 7.68709e-23 0 1.02521e-22 0 1.28187e-22 0 1.53868e-22 0 1.79562e-22 0 2.05267e-22 0 2.30989e-22 0 2.56718e-22 0 2.82464e-22 0 3.08221e-22 0 3.33994e-22 0 3.59776e-22 0 3.85572e-22 0 4.11374e-22 0 4.37193e-22 0 4.63022e-22 0 4.88866e-22 0 5.14721e-22
0.867162 5.03691e-18 5.03688e-18 3.43838e-23 6.82637e-06 1.0154e-05 0 3.16802e-23 0 6.33679e-23 0 1.26765e-22 0 1.89676e-22 0 2.52964e-22 0 3.16288e-22 0 3.79645e-22 0 4.43034e-22 0 5.06448e-22 0 5.699e-22 0 6.33367e-22 0 6.96873e-22 0 7.60404e-22 0 8.2397e-22 0 8.87557e-22 0 9.51175e-22 0 1.01481e-21 0 1.07848e-21 0 1.14217e-21 0 1.20589e-21 0 1.26964e-21
0.911674 4.51926e-18 4.51923e-18 2.86726e-23 6.34454e-06 9.28258e-06 0 8.41607e-23 0 1.68339e-22 0 3.36749e-22 0 5.0394e-22 0 6.72077e-22 0 8.40304e-22 0 1.00861e-21 0 1.177e-21 0 1.34545e-21 0 1.514e-21 0 1.68258e-21 0 1.85125e-21 0 2.01999e-21 0 2.18881e-21 0 2.35769e-21 0 2.52663e-21 0 2.69562e-21 0 2.86469e-21 0 3.03381e-21 0 3.20302e-21 0 3.37228e-21
0.95847 4.72102e-18 4.721e-18 2.39232e-23 5.06737e-06 8.50178e-06 0 2.45321e-22 0 4.90691e-22 0 9.81571e-22 0 1.46909e-21 0 1.95922e-21 0 2.44959e-21 0 2.94019e-21 0 3.43101e-21 0 3.922e-21 0 4.41324e-21 0 4.90457e-21 0 5.39617e-21 0 5.88793e-21 0 6.37992e-21 0 6.87205e-21 0 7.36437e-21 0 7.85679e-21 0 8.34944e-21 0 8.84225e-21 0 9.33527e-21 0 9.82843e-21
1.00767 9.25205e-18 9.25203e-18 1.99652e-23 2.15792e-06 7.79296e-06 0 1.26785e-21 0 2.53594e-21 0 5.07279e-21 0 7.59315e-21 0 1.01263e-20 0 1.26607e-20 0 1.51962e-20 0 1.77327e-20 0 2.027e-20 0 2.28086e-20 0 2.53476e-20 0 2.78879e-20 0 3.04289e-20 0 3.29711e-20 0 3.55139e-20 0 3.80577e-20 0 4.06019e-20 0 4.31472e-20 0 4.56933e-20 0 4.82404e-20 0 5.07881e-20
1.05939 2.21682e-17 2.21682e-17 1.66616e-23 7.51601e-07 7.1501e-06 0 7.59174e-21 0 1.51848e-20 0 3.03746e-20 0 4.54708e-20 0 6.06397e-20 0 7.58155e-20 0 9.09975e-20 0 1.06185e-19 0 1.21378e-19 0 1.36577e-19 0 1.51779e-19 0 1.66988e-19 0 1.82201e-19 0 1.97421e-19 0 2.12644e-19 0 2.27872e-19 0 2.43103e-19 0 2.5834e-19 0 2.73581e-19 0 2.88828e-19 0 3.04079e-19
1.11377 6.37805e-18 6.37804e-18 1.38954e-23 2.17862e-06 6.56493e-06 0 5.18618e-21 0 1.03732e-20 0 2.07496e-20 0 3.10652e-20 0 4.14281e-20 0 5.17954e-20 0 6.21667e-20 0 7.25418e-20 0 8.29199e-20 0 9.33023e-20 0 1.03686e-19 0 1.14075e-19 0 1.24466e-19 0 1.34862e-19 0 1.45259e-19 0 1.5566e-19 0 1.66063e-19 0 1.76469e-19 0 1.86879e-19 0 1.97291e-19 0 2.07707e-19
1.17094 4.51116e-18 4.51115e-18 1.15884e-23 2.56882e-06 6.01873e-06 0 8.29534e-21 0 1.65919e-20 0 3.31887e-20 0 4.96931e-20 0 6.62693e-20 0 8.28522e-20 0 9.94411e-20 0 1.16036e-19 0 1.32635e-19 0 1.49241e-19 0 1.65849e-19 0 1.82464e-19 0 1.99083e-19 0 2.15708e-19 0 2.32337e-19 0 2.48971e-19 0 2.65607e-19 0 2.82248e-19 0 2.98894e-19 0 3.15546e-19 0 3.322e-19
1.23105 6.17243e-18 6.17242e-18 9.65421e-24 1.56409e-06 5.51807e-06 0 2.45046e-20 0 4.90126e-20 0 9.80388e-20 0 1.46805e-19 0 1.95774e-19 0 2.44761e-19 0 2.93765e-19 0 3.42785e-19 0 3.91818e-19 0 4.40868e-19 0 4.89926e-19 0 5.39003e-19 0 5.88091e-19 0 6.37196e-19 0 6.86311e-19 0 7.35439e-19 0 7.84575e-19 0 8.33726e-19 0 8.82889e-19 0 9.32066e-19 0 9.81253e-19
1.29424 5.5421e-18 5.54209e-18 8.03801e-24 1.45036e-06 5.05813e-06 0 4.54506e-20 0 9.09074e-20 0 1.81838e-19 0 2.72312e-19 0 3.63141e-19 0 4.54004e-19 0 5.44895e-19 0 6.35815e-19 0 7.26758e-19 0 8.17731e-19 0 9.08718e-19 0 9.99737e-19 0 1.09078e-18 0 1.18185e-18 0 1.27293e-18 0 1.36404e-18 0 1.45516e-18 0 1.54631e-18 0 1.63748e-18 0 1.72868e-18 0 1.81989e-18
1.36067 2.87498e-18 2.87498e-18 6.68656e-24 2.32578e-06 4.63918e-06 0 4.67021e-20 0 9.34102e-20 0 1.86844e-19 0 2.79829e-19 0 3.73164e-19 0 4.6653e-19 0 5.59924e-19 0 6.53346e-19 0 7.46791e-19 0 8.40265e-19 0 9.33752e-19 0 1.02727e-18 0 1.12081e-18 0 1.21438e-18 0 1.30796e-18 0 1.40157e-18 0 1.49519e-18 0 1.58883e-18 0 1.6825e-18 0 1.77619e-18 0 1.86989e-18
1.43051 1.74169e-18 1.74169e-18 5.55563e-24 3.18979e-06 4.25729e-06 0 5.38468e-20 0 1.077e-19 0 2.15425e-19 0 3.2266e-19 0 4.30276e-19 0 5.37928e-19 0 6.45611e-19 0 7.53324e-19 0 8.61061e-19 0 9.68831e-19 0 1.07661e-18 0 1.18443e-18 0 1.29227e-18 0 1.40015e-18 0 1.50803e-18 0 1.61595e-18 0 1.72388e-18 0 1.83183e-18 0 1.93981e-18 0 2.04782e-18 0 2.15584e-18
1.50394 1.23162e-18 1.23161e-18 4.61201e-24 3.74468e-06 3.90381e-06 0 6.97677e-20 0 1.39543e-19 0 2.79118e-19 0 4.18087e-19 0 5.57528e-19 0 6.97011e-19 0 8.36533e-19 0 9.76093e-19 0 1.11568e-18 0 1.25531e-18 0 1.39496e-18 0 1.53465e-18 0 1.67436e-18 0 1.81412e-18 0 1.95389e-18 0 2.0937e-18 0 2.23352e-18 0 2.37338e-18 0 2.51327e-18 0 2.65319e-18 0 2.79313e-18
1.58114 9.45264e-19 9.4526e-19 3.82542e-24 4.04694e-06 3.57499e-06 0 9.46325e-20 0 1.89275e-19 0 3.78591e-19 0 5.67125e-19 0 7.56268e-19 0 9.45466e-19 0 1.13471e-18 0 1.32401e-18 0 1.51334e-18 0 1.70273e-18 0 1.89214e-18 0 2.0816e-18 0 2.2711e-18 0 2.46065e-18 0 2.65022e-18 0 2.83984e-18 0 3.02948e-18 0 3.21916e-18 0 3.40887e-18 0 3.59863e-18 0 3.78842e-18
1.6623 7.54541e-19 7.54538e-19 3.16973e-24 4.20087e-06 3.27005e-06 0 1.28997e-19 0 2.58007e-19 0 5.16065e-19 0 7.73111e-19 0 1.03095e-18 0 1.28885e-18 0 1.54683e-18 0 1.80486e-18 0 2.06294e-18 0 2.3211e-18 0 2.57928e-18 0 2.83753e-18 0 3.09582e-18 0 3.35418e-18 0 3.61258e-18 0 3.87103e-18 0 4.1295e-18 0 4.38804e-18 0 4.64662e-18 0 4.90525e-18 0 5.16392e-18
