# 1.25e-05 2 7 : grain size, compostion index, size index
# Heating and cooling timescale: 0.0769291 1.70131e+06
# Ratio of heating to cooling to determine stochastic cutoff: 100
# Equilibrium emission is recorded even for those grains in the stochastic regime.
# Emission spectrum was computed for: 
# Type: ISRF
# Scales: 0.25 0.5 1 1.5 2 2.5 3 3.5 4 4.5 5 5.5 6 6.5 7 7.5 8 8.5 9 9.5 10
# StochasticallyHeated: 0 0 0 0 0 0 0 0 0 0 0 0 0 0 0 0 0 0 0 0 0
# Temperature: -1
# Wavelength  CExt  CAbs  CSca  Albedo G EqEm1 StEm1 EqEm2 StEm2 EqEm3 StEm3 EqEm4 StEm4 EqEm5 StEm5 EqEm6 StEm6 EqEm7 StEm7 EqEm8 StEm8 EqEm9 StEm9 EqEm10 StEm10 EqEm11 StEm11 EqEm12 StEm12 EqEm13 StEm13 EqEm14 StEm14 EqEm15 StEm15 EqEm16 StEm16 EqEm17 StEm17 EqEm18 StEm18 EqEm19 StEm19 EqEm20 StEm20 EqEm21 StEm21
0.05 1.13212e-09 5.1451e-10 6.17611e-10 0.545535 0.91128 0 0 0 0 0 0 0 0 0 0 0 0 0 0 0 0 0 0 0 0 0 0 0 0 0 0 0 0 0 0 0 0 0 0 0 0 0 0 0 0 0 0
0.0525665 1.13602e-09 5.17349e-10 6.18667e-10 0.544593 0.908569 0 0 0 0 0 0 0 0 0 0 0 0 0 0 0 0 0 0 0 0 0 0 0 0 0 0 0 0 0 0 0 0 0 0 0 0 0 0 0 0 0 0
0.0552647 1.14009e-09 5.20316e-10 6.19771e-10 0.543617 0.905722 0 0 0 0 0 0 0 0 0 0 0 0 0 0 0 0 0 0 0 0 0 0 0 0 0 0 0 0 0 0 0 0 0 0 0 0 0 0 0 0 0 0
0.0581015 1.14435e-09 5.23427e-10 6.20921e-10 0.542598 0.902727 0 0 0 0 0 0 0 0 0 0 0 0 0 0 0 0 0 0 0 0 0 0 0 0 0 0 0 0 0 0 0 0 0 0 0 0 0 0 0 0 0 0
0.0610839 1.14887e-09 5.26741e-10 6.22128e-10 0.541513 0.899585 0 0 0 0 0 0 0 0 0 0 0 0 0 0 0 0 0 0 0 0 0 0 0 0 0 0 0 0 0 0 0 0 0 0 0 0 0 0 0 0 0 0
0.0642193 1.15364e-09 5.30208e-10 6.23435e-10 0.540405 0.896276 0 0 0 0 0 0 0 0 0 0 0 0 0 0 0 0 0 0 0 0 0 0 0 0 0 0 0 0 0 0 0 0 0 0 0 0 0 0 0 0 0 0
0.0675157 1.15863e-09 5.33837e-10 6.24792e-10 0.539251 0.892789 0 0 0 0 0 0 0 0 0 0 0 0 0 0 0 0 0 0 0 0 0 0 0 0 0 0 0 0 0 0 0 0 0 0 0 0 0 0 0 0 0 0
0.0709813 1.16386e-09 5.37666e-10 6.26199e-10 0.538034 0.889134 0 0 0 0 0 0 0 0 0 0 0 0 0 0 0 0 0 0 0 0 0 0 0 0 0 0 0 0 0 0 0 0 0 0 0 0 0 0 0 0 0 0
0.0746248 1.16933e-09 5.41663e-10 6.27667e-10 0.536775 0.88529 0 0 0 0 0 0 0 0 0 0 0 0 0 0 0 0 0 0 0 0 0 0 0 0 0 0 0 0 0 0 0 0 0 0 0 0 0 0 0 0 0 0
0.0784553 1.17514e-09 5.45902e-10 6.29241e-10 0.535459 0.88125 0 0 0 0 0 0 0 0 0 0 0 0 0 0 0 0 0 0 0 0 0 0 0 0 0 0 0 0 0 0 0 0 0 0 0 0 0 0 0 0 0 0
0.0824824 1.18125e-09 5.50345e-10 6.309e-10 0.534098 0.876997 0 0 0 0 0 0 0 0 0 0 0 0 0 0 0 0 0 0 0 0 0 0 0 0 0 0 0 0 0 0 0 0 0 0 0 0 0 0 0 0 0 0
0.0867162 1.18765e-09 5.55015e-10 6.32632e-10 0.532677 0.87253 0 0 0 0 0 0 0 0 0 0 0 0 0 0 0 0 0 0 0 0 0 0 0 0 0 0 0 0 0 0 0 0 0 0 0 0 0 0 0 0 0 0
0.0911674 1.19436e-09 5.59918e-10 6.34442e-10 0.531198 0.867833 0 0 0 0 0 0 0 0 0 0 0 0 0 0 0 0 0 0 0 0 0 0 0 0 0 0 0 0 0 0 0 0 0 0 0 0 0 0 0 0 0 0
0.095847 1.20139e-09 5.65056e-10 6.36332e-10 0.529664 0.862893 0 0 0 0 0 0 0 0 0 0 0 0 0 0 0 0 0 0 0 0 0 0 0 0 0 0 0 0 0 0 0 0 0 0 0 0 0 0 0 0 0 0
0.100767 1.20884e-09 5.70499e-10 6.38341e-10 0.528061 0.857699 0 0 0 0 0 0 0 0 0 0 0 0 0 0 0 0 0 0 0 0 0 0 0 0 0 0 0 0 0 0 0 0 0 0 0 0 0 0 0 0 0 0
0.105939 1.21668e-09 5.76206e-10 6.40476e-10 0.526412 0.852243 0 0 0 0 0 0 0 0 0 0 0 0 0 0 0 0 0 0 0 0 0 0 0 0 0 0 0 0 0 0 0 0 0 0 0 0 0 0 0 0 0 0
0.111377 1.22492e-09 5.82226e-10 6.42692e-10 0.524682 0.846507 0 0 0 0 0 0 0 0 0 0 0 0 0 0 0 0 0 0 0 0 0 0 0 0 0 0 0 0 0 0 0 0 0 0 0 0 0 0 0 0 0 0
0.117094 1.23351e-09 5.88508e-10 6.45004e-10 0.522901 0.840473 0 0 0 0 0 0 0 0 0 0 0 0 0 0 0 0 0 0 0 0 0 0 0 0 0 0 0 0 0 0 0 0 0 0 0 0 0 0 0 0 0 0
0.123105 1.24259e-09 5.9513e-10 6.4746e-10 0.521057 0.834126 0 0 0 0 0 0 0 0 0 0 0 0 0 0 0 0 0 0 0 0 0 0 0 0 0 0 0 0 0 0 0 0 0 0 0 0 0 0 0 0 0 0
0.129424 1.25216e-09 6.02129e-10 6.5003e-10 0.519127 0.827458 0 0 0 0 0 0 0 0 0 0 0 0 0 0 0 0 0 0 0 0 0 0 0 0 0 0 0 0 0 0 0 0 0 0 0 0 0 0 0 0 0 0
0.136067 1.26217e-09 6.09425e-10 6.52749e-10 0.517163 0.820446 0 0 0 0 0 0 0 0 0 0 0 0 0 0 0 0 0 0 0 0 0 0 0 0 0 0 0 0 0 0 0 0 0 0 0 0 0 0 0 0 0 0
0.143051 1.27276e-09 6.17144e-10 6.55615e-10 0.515113 0.813071 0 0 0 0 0 0 0 0 0 0 0 0 0 0 0 0 0 0 0 0 0 0 0 0 0 0 0 0 0 0 0 0 0 0 0 0 0 0 0 0 0 0
0.150394 1.28387e-09 6.25262e-10 6.58606e-10 0.512986 0.805326 0 0 0 0 0 0 0 0 0 0 0 0 0 0 0 0 0 0 0 0 0 0 0 0 0 0 0 0 0 0 0 0 0 0 0 0 0 0 0 0 0 0
0.158114 1.29553e-09 6.33756e-10 6.61773e-10 0.510813 0.797176 0 0 0 0 0 0 0 0 0 0 0 0 0 0 0 0 0 0 0 0 0 0 0 0 0 0 0 0 0 0 0 0 0 0 0 0 0 0 0 0 0 0
0.16623 1.3078e-09 6.42717e-10 6.65081e-10 0.50855 0.788615 0 0 0 0 0 0 0 0 0 0 0 0 0 0 0 0 0 0 0 0 0 0 0 0 0 0 0 0 0 0 0 0 0 0 0 0 0 0 0 0 0 0
0.174762 1.32071e-09 6.52134e-10 6.68573e-10 0.506224 0.779607 0 0 0 0 0 0 0 0 0 0 0 0 0 0 0 0 0 0 0 0 0 0 0 0 0 0 0 0 0 0 0 0 0 0 0 0 0 0 0 0 0 0
0.183733 1.33425e-09 6.62022e-10 6.72223e-10 0.503822 0.770139 0 0 0 0 0 0 0 0 0 0 0 0 0 0 0 0 0 0 0 0 0 0 0 0 0 0 0 0 0 0 0 0 0 0 0 0 0 0 0 0 0 0
0.193164 1.34849e-09 6.72416e-10 6.76073e-10 0.501356 0.760186 0 0 0 0 0 0 0 0 0 0 0 0 0 0 0 0 0 0 0 0 0 0 0 0 0 0 0 0 0 0 0 0 0 0 0 0 0 0 0 0 0 0
0.203079 1.36869e-09 6.81275e-10 6.87419e-10 0.502245 0.751401 0 0 0 0 0 0 0 0 0 0 0 0 0 0 0 0 0 0 0 0 0 0 0 0 0 0 0 0 0 0 0 0 0 0 0 0 0 0 0 0 0 0
0.213503 1.41371e-09 6.81108e-10 7.32599e-10 0.518211 0.749787 0 0 0 0 0 0 0 0 0 0 0 0 0 0 0 0 0 0 0 0 0 0 0 0 0 0 0 0 0 0 0 0 0 0 0 0 0 0 0 0 0 0
0.224463 1.46165e-09 6.80665e-10 7.80984e-10 0.534317 0.748307 0 0 0 0 0 0 0 0 0 0 0 0 0 0 0 0 0 0 0 0 0 0 0 0 0 0 0 0 0 0 0 0 0 0 0 0 0 0 0 0 0 0
0.235984 1.51204e-09 6.80213e-10 8.31827e-10 0.550135 0.746751 0 0 0 0 0 0 0 0 0 0 0 0 0 0 0 0 0 0 0 0 0 0 0 0 0 0 0 0 0 0 0 0 0 0 0 0 0 0 0 0 0 0
0.248097 1.56502e-09 6.79711e-10 8.85304e-10 0.565684 0.745114 0 0 0 0 0 0 0 0 0 0 0 0 0 0 0 0 0 0 0 0 0 0 0 0 0 0 0 0 0 0 0 0 0 0 0 0 0 0 0 0 0 0
0.260832 1.62073e-09 6.7921e-10 9.41525e-10 0.580925 0.743391 0 0 0 0 0 0 0 0 0 0 0 0 0 0 0 0 0 0 0 0 0 0 0 0 0 0 0 0 0 0 0 0 0 0 0 0 0 0 0 0 0 0
0.274221 1.67935e-09 6.78701e-10 1.00065e-09 0.595855 0.741575 0 0 0 0 0 0 0 0 0 0 0 0 0 0 0 0 0 0 0 0 0 0 0 0 0 0 0 0 0 0 0 0 0 0 0 0 0 0 0 0 0 0
0.288297 1.74093e-09 6.78146e-10 1.06279e-09 0.61047 0.739674 0 0 0 0 0 0 0 0 0 0 0 0 0 0 0 0 0 0 0 0 0 0 0 0 0 0 0 0 0 0 0 0 0 0 0 0 0 0 0 0 0 0
0.303095 1.80074e-09 6.76441e-10 1.1243e-09 0.624353 0.736933 0 0 0 0 0 0 0 0 0 0 0 0 0 0 0 0 0 0 0 0 0 0 0 0 0 0 0 0 0 0 0 0 0 0 0 0 0 0 0 0 0 0
0.318653 1.80276e-09 6.6098e-10 1.14178e-09 0.63335 0.724931 0 0 0 0 0 0 0 0 0 0 0 0 0 0 0 0 0 0 0 0 0 0 0 0 0 0 0 0 0 0 0 0 0 0 0 0 0 0 0 0 0 0
0.335009 1.80042e-09 6.43712e-10 1.15671e-09 0.642466 0.711648 0 0 0 0 0 0 0 0 0 0 0 0 0 0 0 0 0 0 0 0 0 0 0 0 0 0 0 0 0 0 0 0 0 0 0 0 0 0 0 0 0 0
0.352205 1.79793e-09 6.25543e-10 1.17239e-09 0.652077 0.697682 0 0 0 0 0 0 0 0 0 0 0 0 0 0 0 0 0 0 0 0 0 0 0 0 0 0 0 0 0 0 0 0 0 0 0 0 0 0 0 0 0 0
0.370284 1.79537e-09 6.06477e-10 1.18889e-09 0.662199 0.683001 0 0 0 0 0 0 0 0 0 0 0 0 0 0 0 0 0 0 0 0 0 0 0 0 0 0 0 0 0 0 0 0 0 0 0 0 0 0 0 0 0 0
0.389291 1.79263e-09 5.86399e-10 1.20623e-09 0.672883 0.667566 0 0 0 0 0 0 0 0 0 0 0 0 0 0 0 0 0 0 0 0 0 0 0 0 0 0 0 0 0 0 0 0 0 0 0 0 0 0 0 0 0 0
0.409273 1.77166e-09 5.64248e-10 1.20741e-09 0.681514 0.652313 0 0 0 0 0 0 0 0 0 0 0 0 0 0 0 0 0 0 0 0 0 0 0 0 0 0 0 0 0 0 0 0 0 0 0 0 0 0 0 0 0 0
0.430281 1.69052e-09 5.37547e-10 1.15297e-09 0.682023 0.639446 0 0 0 0 0 0 0 0 0 0 0 0 0 0 0 0 0 0 0 0 0 0 0 0 0 0 0 0 0 0 0 0 0 0 0 0 0 0 0 0 0 0
0.452368 1.60518e-09 5.09424e-10 1.09576e-09 0.682638 0.62592 0 0 0 0 0 0 0 0 0 0 0 0 0 0 0 0 0 0 0 0 0 0 0 0 0 0 0 0 0 0 0 0 0 0 0 0 0 0 0 0 0 0
0.475588 1.51548e-09 4.799e-10 1.03558e-09 0.683335 0.611698 0 0 0 0 0 0 0 0 0 0 0 0 0 0 0 0 0 0 0 0 0 0 0 0 0 0 0 0 0 0 0 0 0 0 0 0 0 0 0 0 0 0
0.5 1.42113e-09 4.4884e-10 9.72291e-10 0.684167 0.596726 0 0 0 0 0 0 0 0 0 0 0 0 0 0 0 0 0 0 0 0 0 0 0 0 0 0 0 0 0 0 0 0 0 0 0 0 0 0 0 0 0 0
0.525665 1.29954e-09 4.13874e-10 8.85663e-10 0.681522 0.572634 0 0 0 0 0 0 0 0 0 0 0 0 0 0 0 0 0 0 0 0 0 0 0 0 0 0 0 0 0 0 0 0 0 0 0 0 0 0 0 0 0 0
0.552648 1.16461e-09 3.76381e-10 7.88231e-10 0.676819 0.544647 0 0 0 0 0 0 0 0 0 0 0 0 0 0 0 0 0 0 0 0 0 0 0 0 0 0 0 0 0 0 0 0 0 0 0 0 0 0 0 0 0 0
0.581015 1.02276e-09 3.36961e-10 6.85802e-10 0.670538 0.515228 0 0 0 0 0 0 0 0 0 0 0 0 0 0 0 0 0 0 0 0 0 0 0 0 0 0 0 0 0 0 0 0 0 0 0 0 0 0 0 0 0 0
0.610839 8.80413e-10 2.97123e-10 5.8329e-10 0.662519 0.483368 0 0 0 0 0 0 0 0 0 0 0 0 0 0 0 0 0 0 0 0 0 0 0 0 0 0 0 0 0 0 0 0 0 0 0 0 0 0 0 0 0 0
0.642193 7.8449e-10 2.67978e-10 5.16511e-10 0.658404 0.442537 0 0 0 0 0 0 0 0 0 0 0 0 0 0 0 0 0 0 0 0 0 0 0 0 0 0 0 0 0 0 0 0 0 0 0 0 0 0 0 0 0 0
0.675157 6.83646e-10 2.37333e-10 4.46313e-10 0.652842 0.399601 0 0 0 0 0 0 0 0 0 0 0 0 0 0 0 0 0 0 0 0 0 0 0 0 0 0 0 0 0 0 0 0 0 0 0 0 0 0 0 0 0 0
0.709813 5.8191e-10 2.06469e-10 3.75441e-10 0.645187 0.35583 0 0 0 0 0 0 0 0 0 0 0 0 0 0 0 0 0 0 0 0 0 0 0 0 0 0 0 0 0 0 0 0 0 0 0 0 0 0 0 0 0 0
0.746248 5.13349e-10 1.86141e-10 3.27207e-10 0.637398 0.322025 0 0 0 0 0 0 0 0 0 0 0 0 0 0 0 0 0 0 0 0 0 0 0 0 0 0 0 0 0 0 0 0 0 0 0 0 0 0 0 0 0 0
0.784553 4.44468e-10 1.65779e-10 2.78689e-10 0.627017 0.287507 0 0 0 0 0 0 0 0 0 0 0 0 0 0 0 0 0 0 0 0 0 0 0 0 0 0 0 0 0 0 0 0 0 0 0 0 0 0 0 0 0 0
0.824824 3.81274e-10 1.47073e-10 2.34201e-10 0.61426 0.255974 0 0 0 0 0 0 0 0 0 0 0 0 0 0 0 0 0 0 0 0 0 0 0 0 0 0 0 0 0 0 0 0 0 0 0 0 0 0 0 0 0 0
0.867162 3.32001e-10 1.32432e-10 1.99569e-10 0.601109 0.231695 0 0 0 0 0 0 0 0 0 0 0 0 0 0 0 0 0 0 0 0 0 0 0 0 0 0 0 0 0 0 0 0 0 0 0 0 0 0 0 0 0 0
0.911674 2.8073e-10 1.17182e-10 1.63548e-10 0.58258 0.20641 0 0 0 0 0 0 0 0 0 0 0 0 0 0 0 0 0 0 0 0 0 0 0 0 0 0 0 0 0 0 0 0 0 0 0 0 0 0 0 0 0 0
0.95847 2.44421e-10 1.05805e-10 1.38616e-10 0.56712 0.188088 0 0 0 0 0 0 0 0 0 0 0 0 0 0 0 0 0 0 0 0 0 0 0 0 0 0 0 0 0 0 0 0 0 0 0 0 0 0 0 0 0 0
1.00767 2.06952e-10 9.40334e-11 1.12919e-10 0.545628 0.169147 0 0 0 0 0 0 0 0 0 0 0 0 0 0 0 0 0 0 0 0 0 0 0 0 0 0 0 0 0 0 0 0 0 0 0 0 0 0 0 0 0 0
1.05939 1.79294e-10 8.48561e-11 9.44376e-11 0.52672 0.154112 0 0 0 0 0 0 0 0 0 0 0 0 0 0 0 0 0 0 0 0 0 0 0 0 0 0 0 0 0 0 0 0 0 0 0 0 0 0 0 0 0 0
1.11377 1.5225e-10 7.5763e-11 7.64869e-11 0.502378 0.139153 0 0 0 0 0 0 0 0 0 0 0 0 0 0 0 0 0 0 0 0 0 0 0 0 0 0 0 0 0 0 0 0 0 0 0 0 0 0 0 0 0 0
1.17094 1.32132e-10 6.85091e-11 6.36224e-11 0.481508 0.126966 0 0 0 0 0 0 0 0 0 0 0 0 0 0 0 0 0 0 0 0 0 0 0 0 0 0 0 0 0 0 0 0 0 0 0 0 0 0 0 0 0 0
1.23105 1.13108e-10 6.14997e-11 5.16082e-11 0.456274 0.115079 0 0 0 0 0 0 0 0 0 0 0 0 0 0 0 0 0 0 0 0 0 0 0 0 0 0 0 0 0 0 0 0 0 0 0 0 0 0 0 0 0 0
1.29424 9.80067e-11 5.55593e-11 4.24474e-11 0.433107 0.104749 0 0 0 0 0 0 0 0 0 0 0 0 0 0 0 0 0 0 0 0 0 0 0 0 0 0 0 0 0 0 0 0 0 0 0 0 0 0 0 0 0 0
1.36067 8.49768e-11 5.01746e-11 3.48022e-11 0.409549 0.0953073 0 0 0 0 0 0 0 0 0 0 0 0 0 0 0 0 0 0 0 0 0 0 0 0 0 0 0 0 0 0 0 0 0 0 0 0 0 0 0 0 0 0
1.43051 7.34196e-11 4.51632e-11 2.82564e-11 0.384862 0.0864876 0 0 0 0 0 0 0 0 0 0 0 0 0 0 0 0 0 0 0 0 0 0 0 0 0 0 0 0 0 0 0 0 0 0 0 0 0 0 0 0 0 0
1.50394 6.38499e-11 4.06843e-11 2.31656e-11 0.362814 0.0786834 0 0 0 0 0 0 0 0 0 0 0 0 0 0 0 0 0 0 0 0 0 0 0 0 0 0 0 0 0 0 0 0 0 0 0 0 0 0 0 0 0 0
1.58114 5.54879e-11 3.64734e-11 1.90145e-11 0.342678 0.0716121 0 0 0 0 0 0 0 0 0 0 0 0 0 0 0 0 0 0 0 0 0 0 0 0 0 0 0 0 0 0 0 0 0 0 0 0 0 0 0 0 0 0
1.6623 4.80106e-11 3.24899e-11 1.55207e-11 0.323277 0.065075 0 0 0 0 0 0 0 0 0 0 0 0 0 0 0 0 0 0 0 0 0 0 0 0 0 0 0 0 0 0 0 0 0 0 0 0 0 0 0 0 0 0
1.74763 4.14569e-11 2.88216e-11 1.26352e-11 0.30478 0.0591034 0 0 0 0 0 0 0 0 0 0 0 0 0 0 0 0 0 0 0 0 0 0 0 0 0 0 0 0 0 0 0 0 0 0 0 0 0 0 0 0 0 0
1.83733 3.58851e-11 2.55977e-11 1.02875e-11 0.286678 0.0537072 0 0 0 0 0 0 0 0 0 0 0 0 0 0 0 0 0 0 0 0 0 0 0 0 0 0 0 0 0 0 0 0 0 0 0 0 0 0 0 0 0 0
1.93164 3.12196e-11 2.28569e-11 8.36273e-12 0.267868 0.048742 0 0 0 0 0 0 0 0 0 0 0 0 0 0 0 0 0 0 0 0 0 0 0 0 0 0 0 0 0 0 0 0 0 0 0 0 0 0 0 0 0 0
2.03079 2.74126e-11 2.06062e-11 6.80641e-12 0.248295 0.0442403 0 0 0 0 0 0 0 0 0 0 0 0 0 0 0 0 0 0 0 0 0 0 0 0 0 0 0 0 0 0 0 0 0 0 0 0 0 0 0 0 0 0
2.13503 2.40935e-11 1.85448e-11 5.54874e-12 0.2303 0.0401619 0 0 0 0 0 0 0 0 0 0 0 0 0 0 0 0 0 0 0 0 0 0 0 0 0 0 0 0 0 0 0 0 0 0 0 0 0 0 0 0 0 0
2.24463 2.16266e-11 1.71061e-11 4.5205e-12 0.209026 0.0364507 0 0 0 0 0 0 0 0 0 0 0 0 0 0 0 0 0 0 0 0 0 0 0 0 0 0 0 0 0 0 0 0 0 0 0 0 0 0 0 0 0 0
2.35984 1.96497e-11 1.59591e-11 3.69063e-12 0.187821 0.0330849 0 0 0 0 0 0 0 0 0 0 0 0 0 0 0 0 0 0 0 0 0 0 0 0 0 0 0 0 0 0 0 0 0 0 0 0 0 0 0 0 0 0
2.48097 1.78088e-11 1.4794e-11 3.0148e-12 0.169287 0.030023 0 0 0 0 0 0 0 0 0 0 0 0 0 0 0 0 0 0 0 0 0 0 0 0 0 0 0 0 0 0 0 0 0 0 0 0 0 0 0 0 0 0
2.60832 1.61683e-11 1.37093e-11 2.459e-12 0.152088 0.0272277 0 0 0 0 0 0 0 0 0 0 0 0 0 0 0 0 0 0 0 0 0 0 0 0 0 0 0 0 0 0 0 0 0 0 0 0 0 0 0 0 0 0
2.74221 1.47341e-11 1.27267e-11 2.00742e-12 0.136244 0.0246955 0 0 0 0 0 0 0 0 0 0 0 0 0 0 0 0 0 0 0 0 0 0 0 0 0 0 0 0 0 0 0 0 0 0 0 0 0 0 0 0 0 0
2.88297 1.34247e-11 1.17856e-11 1.639e-12 0.122089 0.0223966 0 0 0 0 0 0 0 0 0 0 0 0 0 0 0 0 0 0 0 0 0 0 0 0 0 0 0 0 0 0 0 0 0 0 0 0 0 0 0 0 0 0
3.03095 1.22405e-11 1.09049e-11 1.33556e-12 0.10911 0.0202973 0 0 0 0 0 0 0 0 0 0 0 0 0 0 0 0 0 0 0 0 0 0 0 0 0 0 0 0 0 0 0 0 0 0 0 0 0 0 0 0 0 0
3.18653 1.11933e-11 1.01021e-11 1.09127e-12 0.0974924 0.0184097 0 0 0 0 0 0 0 0 0 0 0 0 0 0 0 0 0 0 0 0 0 0 0 0 0 0 0 0 0 0 0 0 0 0 0 0 0 0 0 0 0 0
3.35009 1.02233e-11 9.33426e-12 8.89031e-13 0.0869613 0.0167192 0 0 0 0 0 0 0 0 0 0 0 0 0 0 0 0 0 0 0 0 0 0 0 0 0 0 0 0 0 0 0 0 0 0 0 0 0 0 0 0 0 0
3.52205 9.33376e-12 8.60758e-12 7.26177e-13 0.0778012 0.0151643 0 0 0 0 0 0 0 0 0 0 0 0 0 0 0 0 0 0 0 0 0 0 0 0 0 0 0 0 0 0 0 0 0 0 0 0 0 0 0 0 0 0
3.70284 8.51612e-12 7.9243e-12 5.91814e-13 0.0694934 0.0137453 0 0 0 0 0 0 0 0 0 0 0 0 0 0 0 0 0 0 0 0 0 0 0 0 0 0 0 0 0 0 0 0 0 0 0 0 0 0 0 0 0 0
3.89291 7.79915e-12 7.31734e-12 4.8181e-13 0.0617772 0.012457 0 0 0 0 0 0 0 0 0 0 0 0 0 0 0 0 0 0 0 0 0 0 0 0 0 0 0 0 0 0 0 0 0 0 0 0 0 0 0 0 0 0
4.09273 7.16021e-12 6.76829e-12 3.91924e-13 0.0547363 0.0112873 0 0 0 0 0 0 0 0 0 0 0 0 0 0 0 0 0 0 0 0 0 0 0 0 0 0 0 0 0 0 0 0 0 0 0 0 0 0 0 0 0 0
4.30281 6.5929e-12 6.27433e-12 3.18565e-13 0.0483194 0.0102278 0 0 0 0 0 0 0 0 0 0 0 0 0 0 0 0 0 0 0 0 0 0 0 0 0 0 0 0 0 0 0 0 0 0 0 0 0 0 0 0 0 0
4.52368 6.09614e-12 5.8375e-12 2.58635e-13 0.042426 0.00926726 0 0 0 0 0 0 0 0 0 0 0 0 0 0 0 0 0 0 0 0 0 0 0 0 0 0 0 0 0 0 0 0 0 0 0 0 0 0 0 0 0 0
4.75588 5.66492e-12 5.45544e-12 2.09484e-13 0.0369791 0.0083939 0 0 0 0 0 0 0 0 0 0 0 0 0 0 0 0 0 0 0 0 0 0 0 0 0 0 0 0 0 0 0 0 0 0 0 0 0 0 0 0 0 0
5 5.2989e-12 5.12975e-12 1.69145e-13 0.0319207 0.00760167 0 0 0 0 0 0 0 0 0 0 0 0 0 0 0 0 0 0 0 0 0 0 0 0 0 0 0 0 0 0 0 0 0 0 0 0 0 0 0 0 0 0
5.25665 5.09568e-12 4.96015e-12 1.35525e-13 0.026596 0.00687749 0 0 0 0 0 0 0 0 0 0 0 0 0 0 0 0 0 0 0 0 0 0 0 0 0 0 0 0 0 0 0 0 0 0 0 0 0 0 0 0 0 0
5.52648 4.95866e-12 4.84948e-12 1.09182e-13 0.0220184 0.00622861 0 0 0 0 0 0 0 0 0 0 0 0 0 0 0 0 0 0 0 0 0 0 0 0 0 0 0 0 0 0 0 0 0 0 0 0 0 0 0 0 0 0
5.81015 4.97144e-12 4.88395e-12 8.74979e-14 0.0176001 0.00563772 0 0 0 0 0 0 0 0 0 0 0 0 0 0 0 0 0 0 0 0 0 0 0 0 0 0 0 0 0 0 0 0 0 0 0 0 0 0 0 0 0 0
6.10839 5.43682e-12 5.36662e-12 7.01936e-14 0.0129108 0.00510449 0 0 0 0 0 0 0 0 0 0 0 0 0 0 0 0 0 0 0 0 0 0 0 0 0 0 0 0 0 0 0 0 0 0 1.4013e-45 0 2.8026e-45 0 7.00649e-45 0 1.82169e-44 0
6.42193 5.70154e-12 5.6453e-12 5.62397e-14 0.00986395 0.0046226 0 0 0 0 0 0 0 0 0 0 0 0 0 0 0 0 0 0 0 0 0 0 0 0 0 0 1.4013e-45 0 5.60519e-45 0 1.68156e-44 0 5.04467e-44 0 1.4013e-43 0 3.53127e-43 0 8.54792e-43 0 1.9478e-42 0
6.75157 6.23605e-12 6.19098e-12 4.50678e-14 0.00722699 0.00418718 0 0 0 0 0 0 0 0 0 0 0 0 0 0 0 0 0 0 0 0 2.8026e-45 0 1.12104e-44 0 5.04467e-44 0 1.87774e-43 0 6.34788e-43 0 1.93099e-42 0 5.45946e-42 0 1.44039e-41 0 3.47718e-41 0 8.07344e-41 0 1.76615e-40 0
7.09813 6.51236e-12 6.47633e-12 3.60334e-14 0.00553307 0.00379343 0 0 0 0 0 0 0 0 0 0 0 0 0 0 1.4013e-45 0 7.00649e-45 0 4.90454e-44 0 2.77457e-43 0 1.30181e-42 0 5.13716e-42 0 1.8123e-41 0 5.75822e-41 0 1.65873e-40 0 4.45711e-40 0 1.12136e-39 0 2.59316e-39 0 5.77819e-39 0 1.21664e-38 0
7.46248 7.02406e-12 6.99595e-12 2.81149e-14 0.00400265 0.00342869 0 0 0 0 0 0 0 0 0 0 0 0 7.00649e-45 0 9.24857e-44 0 7.88931e-43 0 5.14136e-42 0 2.67746e-41 0 1.16531e-40 0 4.29993e-40 0 1.42635e-39 0 4.2834e-39 0 1.17176e-38 0 3.00024e-38 0 7.21578e-38 0 1.60174e-37 0 3.43215e-37 0 6.96866e-37 0
7.84553 8.57672e-12 8.5548e-12 2.19276e-14 0.00255664 0.00309812 0 0 0 0 0 0 0 0 1.4013e-45 0 4.90454e-44 0 9.33265e-43 0 1.05266e-41 0 8.12921e-41 0 4.83071e-40 0 2.32082e-39 0 9.40086e-39 0 3.25463e-38 0 1.01822e-37 0 2.89793e-37 0 7.54744e-37 0 1.84579e-36 0 4.25305e-36 0 9.08033e-36 0 1.87463e-35 0 3.67689e-35 0
8.24824 1.11216e-11 1.11046e-11 1.70102e-14 0.00152947 0.00279631 0 0 0 0 0 0 1.4013e-45 0 1.84971e-43 0 6.13068e-42 0 1.00938e-40 0 1.01127e-39 0 7.06799e-39 0 3.8501e-38 0 1.71326e-37 0 6.48168e-37 0 2.11198e-36 0 6.2495e-36 0 1.6901e-35 0 4.20076e-35 0 9.83438e-35 0 2.17554e-34 0 4.47595e-34 0 8.91924e-34 0 1.69281e-33 0
8.67162 1.50586e-11 1.50448e-11 1.3799e-14 0.000916353 0.0025283 0 0 0 0 0 0 2.52234e-43 0 2.25287e-41 0 6.31516e-40 0 9.06846e-39 0 8.11852e-38 0 5.16034e-37 0 2.58769e-36 0 1.07055e-35 0 3.7954e-35 0 1.16738e-34 0 3.27616e-34 0 8.4399e-34 0 2.00654e-33 0 4.5064e-33 0 9.58988e-33 0 1.90473e-32 0 3.66993e-32 0 6.75075e-32 0
9.11674 1.99302e-11 1.99182e-11 1.20016e-14 0.00060218 0.00229136 0 0 0 0 5.46506e-44 0 2.97159e-41 0 2.13367e-39 0 5.08265e-38 0 6.4083e-37 0 5.15476e-36 0 2.99361e-35 0 1.38752e-34 0 5.35581e-34 0 1.78501e-33 0 5.19723e-33 0 1.38689e-32 0 3.41153e-32 0 7.77492e-32 0 1.67851e-31 0 3.44265e-31 0 6.61247e-31 0 1.2339e-30 0 2.20319e-30 0
9.5847 2.37793e-11 2.37679e-11 1.14067e-14 0.000479691 0.0020922 0 0 0 0 6.22317e-42 0 2.50629e-39 0 1.46063e-37 0 2.9804e-36 0 3.32038e-35 0 2.41238e-34 0 1.28567e-33 0 5.52912e-33 0 1.99803e-32 0 6.27901e-32 0 1.73525e-31 0 4.41389e-31 0 1.03906e-30 0 2.27469e-30 0 4.72966e-30 0 9.36632e-30 0 1.74261e-29 0 3.1542e-29 0 5.47479e-29 0
10.0767 2.48059e-11 2.47948e-11 1.11242e-14 0.000448451 0.0019301 0 0 1.26117e-44 0 4.93505e-40 0 1.48285e-37 0 7.08609e-36 0 1.24794e-34 0 1.23593e-33 0 8.15081e-33 0 4.00319e-32 0 1.60325e-31 0 5.44134e-31 0 1.61702e-30 0 4.25237e-30 0 1.03346e-29 0 2.33325e-29 0 4.91617e-29 0 9.86312e-29 0 1.88914e-28 0 3.40981e-28 0 5.99569e-28 0 1.01304e-27 0
10.5939 2.30044e-11 2.29941e-11 1.02829e-14 0.000447 0.00179127 0 0 1.15887e-42 0 2.78157e-38 0 6.32585e-36 0 2.50287e-34 0 3.83178e-33 0 3.39298e-32 0 2.04076e-31 0 9.27363e-31 0 3.47075e-30 0 1.10973e-29 0 3.12703e-29 0 7.84416e-29 0 1.82549e-28 0 3.96077e-28 0 8.04716e-28 0 1.56051e-27 0 2.89558e-27 0 5.07785e-27 0 8.68602e-27 0 1.43049e-26 0
11.1377 2.01942e-11 2.01851e-11 9.10385e-15 0.000450816 0.00166418 1.4013e-45 0 8.17868e-41 0 1.19964e-36 0 2.09319e-34 0 6.92055e-33 0 9.27361e-32 0 7.38218e-31 0 4.06771e-30 0 1.71676e-29 0 6.02417e-29 0 1.81989e-28 0 4.87522e-28 0 1.16925e-27 0 2.61114e-27 0 5.45513e-27 0 1.07063e-26 0 2.0101e-26 0 3.61893e-26 0 6.17467e-26 0 1.0289e-25 0 1.65371e-25 0
11.7094 1.68002e-11 1.67923e-11 7.89993e-15 0.000470228 0.00155013 1.82169e-43 0 4.36156e-39 0 4.0049e-35 0 5.43124e-33 0 1.51374e-31 0 1.78702e-30 0 1.28552e-29 0 6.51713e-29 0 2.56379e-28 0 8.46161e-28 0 2.42191e-27 0 6.18319e-27 0 1.42094e-26 0 3.05115e-26 0 6.14917e-26 0 1.16776e-25 0 2.12606e-25 0 3.71937e-25 0 6.18264e-25 0 1.00486e-24 0 1.57808e-24 0
12.3105 1.17647e-11 1.17582e-11 6.50744e-15 0.000553131 0.00144272 1.08012e-41 0 1.57844e-37 0 9.28306e-34 0 9.90582e-32 0 2.34684e-30 0 2.45595e-29 0 1.60446e-28 0 7.51428e-28 0 2.76485e-27 0 8.60841e-27 0 2.34061e-26 0 5.70834e-26 0 1.2596e-25 0 2.60564e-25 0 5.07467e-25 0 9.33992e-25 0 1.65143e-24 0 2.81123e-24 0 4.55854e-24 0 7.23533e-24 0 1.11151e-23 0
12.9424 7.21698e-12 7.21213e-12 4.85084e-15 0.000672143 0.00131503 4.45595e-40 0 4.07706e-36 0 1.56953e-32 0 1.33335e-30 0 2.70659e-29 0 2.52563e-28 0 1.50551e-27 0 6.53886e-27 0 2.25768e-26 0 6.65015e-26 0 1.72198e-25 0 4.02074e-25 0 8.53581e-25 0 1.70418e-24 0 3.21273e-24 0 5.7395e-24 0 9.86978e-24 0 1.63705e-23 0 2.59264e-23 0 4.02327e-23 0 6.05242e-23 0
