# 0.00029854 0 157 : grain size, compostion index, size index
# Heating and cooling timescale: 3.08718e-05 1.12601e+10
# Ratio of heating to cooling to determine stochastic cutoff: 100
# Equilibrium emission is recorded even for those grains in the stochastic regime.
# Emission spectrum was computed for: 
# Type: IRSF
# Scales: 0.25 0.5 1 1.5 2 2.5 3 3.5 4 4.5 5 5.5 6 6.5 7 7.5 8 8.5 9 9.5 10
# StochasticallyHeated: 0 0 0 0 0 0 0 0 0 0 0 0 0 0 0 0 0 0 0 0 0
# Temperature: -1
# Wavelength  CExt  CAbs  CSca  Albedo G EqEm1 StEm1 EqEm2 StEm2 EqEm3 StEm3 EqEm4 StEm4 EqEm5 StEm5 EqEm6 StEm6 EqEm7 StEm7 EqEm8 StEm8 EqEm9 StEm9 EqEm10 StEm10 EqEm11 StEm11 EqEm12 StEm12 EqEm13 StEm13 EqEm14 StEm14 EqEm15 StEm15 EqEm16 StEm16 EqEm17 StEm17 EqEm18 StEm18 EqEm19 StEm19 EqEm20 StEm20 EqEm21 StEm21
0.05 1.4471e-07 5.27825e-08 9.19275e-08 0.635253 0.00576547 0 0 0 0 0 0 0 0 0 0 0 0 0 0 0 0 0 0 0 0 0 0 0 0 0 0 0 0 0 0 0 0 0 0 0 0 0 0 0 0 0 0
0.0525665 1.59947e-07 5.83402e-08 1.01607e-07 0.635253 0.00637255 0 0 0 0 0 0 0 0 0 0 0 0 0 0 0 0 0 0 0 0 0 0 0 0 0 0 0 0 0 0 0 0 0 0 0 0 0 0 0 0 0 0
0.0552647 1.76789e-07 6.44832e-08 1.12306e-07 0.635253 0.00704355 0 0 0 0 0 0 0 0 0 0 0 0 0 0 0 0 0 0 0 0 0 0 0 0 0 0 0 0 0 0 0 0 0 0 0 0 0 0 0 0 0 0
0.0581015 1.95404e-07 7.12729e-08 1.24131e-07 0.635253 0.0077852 0 0 0 0 0 0 0 0 0 0 0 0 0 0 0 0 0 0 0 0 0 0 0 0 0 0 0 0 0 0 0 0 0 0 0 0 0 0 0 0 0 0
0.0610839 2.15979e-07 7.87776e-08 1.37201e-07 0.635253 0.00860494 0 0 0 0 0 0 0 0 0 0 0 0 0 0 0 0 0 0 0 0 0 0 0 0 0 0 0 0 0 0 0 0 0 0 0 0 0 0 0 0 0 0
0.0642193 2.38721e-07 8.70725e-08 1.51648e-07 0.635253 0.009511 0 0 0 0 0 0 0 0 0 0 0 0 0 0 0 0 0 0 0 0 0 0 0 0 0 0 0 0 0 0 0 0 0 0 0 0 0 0 0 0 0 0
0.0675157 2.63857e-07 9.62408e-08 1.67616e-07 0.635253 0.0105125 0 0 0 0 0 0 0 0 0 0 0 0 0 0 0 0 0 0 0 0 0 0 0 0 0 0 0 0 0 0 0 0 0 0 0 0 0 0 0 0 0 0
0.0709813 2.91639e-07 1.06375e-07 1.85265e-07 0.635253 0.0116194 0 0 0 0 0 0 0 0 0 0 0 0 0 0 0 0 0 0 0 0 0 0 0 0 0 0 0 0 0 0 0 0 0 0 0 0 0 0 0 0 0 0
0.0746248 3.22348e-07 1.17575e-07 2.04772e-07 0.635253 0.0128428 0 0 0 0 0 0 0 0 0 0 0 0 0 0 0 0 0 0 0 0 0 0 0 0 0 0 0 0 0 0 0 0 0 0 0 0 0 0 0 0 0 0
0.0784553 3.56289e-07 1.29955e-07 2.26334e-07 0.635253 0.0141951 0 0 0 0 0 0 0 0 0 0 0 0 0 0 0 0 0 0 0 0 0 0 0 0 0 0 0 0 0 0 0 0 0 0 0 0 0 0 0 0 0 0
0.0824824 3.93805e-07 1.43639e-07 2.50166e-07 0.635253 0.0156898 0 0 0 0 0 0 0 0 0 0 0 0 0 0 0 0 0 0 0 0 0 0 0 0 0 0 0 0 0 0 0 0 0 0 0 0 0 0 0 0 0 0
0.0867162 4.35271e-07 1.58764e-07 2.76507e-07 0.635253 0.0173419 0 0 0 0 0 0 0 0 0 0 0 0 0 0 0 0 0 0 0 0 0 0 0 0 0 0 0 0 0 0 0 0 0 0 0 0 0 0 0 0 0 0
0.0911674 4.81103e-07 1.75481e-07 3.05622e-07 0.635253 0.0191679 0 0 0 0 0 0 0 0 0 0 0 0 0 0 0 0 0 0 0 0 0 0 0 0 0 0 0 0 0 0 0 0 0 0 0 0 0 0 0 0 0 0
0.095847 5.3176e-07 1.93958e-07 3.37803e-07 0.635253 0.0211862 0 0 0 0 0 0 0 0 0 0 0 0 0 0 0 0 0 0 0 0 0 0 0 0 0 0 0 0 0 0 0 0 0 0 0 0 0 0 0 0 0 0
0.100767 5.78828e-07 2.12809e-07 3.66019e-07 0.632346 0.0235692 0 0 0 0 0 0 0 0 0 0 0 0 0 0 0 0 0 0 0 0 0 0 0 0 0 0 0 0 0 0 0 0 0 0 0 0 0 0 0 0 0 0
0.105939 5.78865e-07 2.22238e-07 3.56627e-07 0.61608 0.0256046 0 0 0 0 0 0 0 0 0 0 0 0 0 0 0 0 0 0 0 0 0 0 0 0 0 0 0 0 0 0 0 0 0 0 0 0 0 0 0 0 0 0
0.111377 5.79312e-07 2.24347e-07 3.54966e-07 0.612736 0.0289403 0 0 0 0 0 0 0 0 0 0 0 0 0 0 0 0 0 0 0 0 0 0 0 0 0 0 0 0 0 0 0 0 0 0 0 0 0 0 0 0 0 0
0.117094 5.79314e-07 2.32244e-07 3.4707e-07 0.599106 0.0274507 0 0 0 0 0 0 0 0 0 0 0 0 0 0 0 0 0 0 0 0 0 0 0 0 0 0 0 0 0 0 0 0 0 0 0 0 0 0 0 0 0 0
0.123105 5.79551e-07 2.4131e-07 3.38242e-07 0.583627 0.0236555 0 0 0 0 0 0 0 0 0 0 0 0 0 0 0 0 0 0 0 0 0 0 0 0 0 0 0 0 0 0 0 0 0 0 0 0 0 0 0 0 0 0
0.129424 5.80001e-07 2.48178e-07 3.31823e-07 0.572108 0.0199126 0 0 0 0 0 0 0 0 0 0 0 0 0 0 0 0 0 0 0 0 0 0 0 0 0 0 0 0 0 0 0 0 0 0 0 0 0 0 0 0 0 0
0.136067 5.80498e-07 2.53584e-07 3.26914e-07 0.563161 0.0168557 0 0 0 0 0 0 0 0 0 0 0 0 0 0 0 0 0 0 0 0 0 0 0 0 0 0 0 0 0 0 0 0 0 0 0 0 0 0 0 0 0 0
0.143051 5.80966e-07 2.58071e-07 3.22895e-07 0.55579 0.0143876 0 0 0 0 0 0 0 0 0 0 0 0 0 0 0 0 0 0 0 0 0 0 0 0 0 0 0 0 0 0 0 0 0 0 0 0 0 0 0 0 0 0
0.150394 5.81307e-07 2.61732e-07 3.19575e-07 0.549752 0.0122986 0 0 0 0 0 0 0 0 0 0 0 0 0 0 0 0 0 0 0 0 0 0 0 0 0 0 0 0 0 0 0 0 0 0 0 0 0 0 0 0 0 0
0.158114 5.81402e-07 2.641e-07 3.17302e-07 0.545753 0.01055 0 0 0 0 0 0 0 0 0 0 0 0 0 0 0 0 0 0 0 0 0 0 0 0 0 0 0 0 0 0 0 0 0 0 0 0 0 0 0 0 0 0
0.16623 5.81237e-07 2.63977e-07 3.1726e-07 0.545836 0.00908216 0 0 0 0 0 0 0 0 0 0 0 0 0 0 0 0 0 0 0 0 0 0 0 0 0 0 0 0 0 0 0 0 0 0 0 0 0 0 0 0 0 0
0.174762 5.81197e-07 2.60204e-07 3.20993e-07 0.552296 0.00782097 0 0 0 0 0 0 0 0 0 0 0 0 0 0 0 0 0 0 0 0 0 0 0 0 0 0 0 0 0 0 0 0 0 0 0 0 0 0 0 0 0 0
0.183733 5.81797e-07 2.51542e-07 3.30255e-07 0.567647 0.00667218 0 0 0 0 0 0 0 0 0 0 0 0 0 0 0 0 0 0 0 0 0 0 0 0 0 0 0 0 0 0 0 0 0 0 0 0 0 0 0 0 0 0
0.193164 5.8356e-07 2.36707e-07 3.46853e-07 0.594374 0.00556038 0 0 0 0 0 0 0 0 0 0 0 0 0 0 0 0 0 0 0 0 0 0 0 0 0 0 0 0 0 0 0 0 0 0 0 0 0 0 0 0 0 0
0.203079 5.86272e-07 2.1838e-07 3.67892e-07 0.627511 0.00446034 0 0 0 0 0 0 0 0 0 0 0 0 0 0 0 0 0 0 0 0 0 0 0 0 0 0 0 0 0 0 0 0 0 0 0 0 0 0 0 0 0 0
0.213503 5.89594e-07 2.01682e-07 3.87913e-07 0.657932 0.00342932 0 0 0 0 0 0 0 0 0 0 0 0 0 0 0 0 0 0 0 0 0 0 0 0 0 0 0 0 0 0 0 0 0 0 0 0 0 0 0 0 0 0
0.224463 5.93214e-07 1.90158e-07 4.03056e-07 0.679444 0.00254317 0 0 0 0 0 0 0 0 0 0 0 0 0 0 0 0 0 0 0 0 0 0 0 0 0 0 0 0 0 0 0 0 0 0 0 0 0 0 0 0 0 0
0.235984 5.96871e-07 1.84453e-07 4.12418e-07 0.690967 0.00182186 0 0 0 0 0 0 0 0 0 0 0 0 0 0 0 0 0 0 0 0 0 0 0 0 0 0 0 0 0 0 0 0 0 0 0 0 0 0 0 0 0 0
0.248097 6.00053e-07 1.83615e-07 4.16437e-07 0.694001 0.00138916 0 0 0 0 0 0 0 0 0 0 0 0 0 0 0 0 0 0 0 0 0 0 0 0 0 0 0 0 0 0 0 0 0 0 0 0 0 0 0 0 0 0
0.260832 6.01825e-07 1.86842e-07 4.14983e-07 0.68954 0.00141961 0 0 0 0 0 0 0 0 0 0 0 0 0 0 0 0 0 0 0 0 0 0 0 0 0 0 0 0 0 0 0 0 0 0 0 0 0 0 0 0 0 0
0.274221 6.01657e-07 1.93574e-07 4.08083e-07 0.678265 0.00187131 0 0 0 0 0 0 0 0 0 0 0 0 0 0 0 0 0 0 0 0 0 0 0 0 0 0 0 0 0 0 0 0 0 0 0 0 0 0 0 0 0 0
0.288297 6.00459e-07 2.02557e-07 3.97902e-07 0.662664 0.00251556 0 0 0 0 0 0 0 0 0 0 0 0 0 0 0 0 0 0 0 0 0 0 0 0 0 0 0 0 0 0 0 0 0 0 0 0 0 0 0 0 0 0
0.303095 5.99698e-07 2.11596e-07 3.88103e-07 0.647163 0.0028362 0 0 0 0 0 0 0 0 0 0 0 0 0 0 0 0 0 0 0 0 0 0 0 0 0 0 0 0 0 0 0 0 0 0 0 0 0 0 0 0 0 0
0.318653 5.99751e-07 2.19132e-07 3.80619e-07 0.634628 0.00297223 0 0 0 0 0 0 0 0 0 0 0 0 0 0 0 0 0 0 0 0 0 0 0 0 0 0 0 0 0 0 0 0 0 0 0 0 0 0 0 0 0 0
0.335009 6.00436e-07 2.24758e-07 3.75678e-07 0.625675 0.00293231 0 0 0 0 0 0 0 0 0 0 0 0 0 0 0 0 0 0 0 0 0 0 0 0 0 0 0 0 0 0 0 0 0 0 0 0 0 0 0 0 0 0
0.352205 6.01498e-07 2.28651e-07 3.72847e-07 0.619864 0.00278811 0 0 0 0 0 0 0 0 0 0 0 0 0 0 0 0 0 0 0 0 0 0 0 0 0 0 0 0 0 0 0 0 0 0 0 0 0 0 0 0 0 0
0.370284 6.02784e-07 2.31158e-07 3.71626e-07 0.616516 0.00261033 0 0 0 0 0 0 0 0 0 0 0 0 0 0 0 0 0 0 0 0 0 0 0 0 0 0 0 0 0 0 0 0 0 0 0 0 0 0 0 0 0 0
0.389291 6.04225e-07 2.32662e-07 3.71563e-07 0.614942 0.00243645 0 0 0 0 0 0 0 0 0 0 0 0 0 0 0 0 0 0 0 0 0 0 0 0 0 0 0 0 0 0 0 0 0 0 0 0 0 0 0 0 0 0
0.409273 6.05752e-07 2.33563e-07 3.72189e-07 0.614425 0.00226652 0 0 0 0 0 0 0 0 0 0 0 0 0 0 0 0 0 0 0 0 0 0 0 0 0 0 0 0 0 0 0 0 0 0 0 0 0 0 0 0 0 0
0.430281 6.07292e-07 2.34173e-07 3.73119e-07 0.614398 0.00210471 0 0 0 0 0 0 0 0 0 0 0 0 0 0 0 0 0 0 0 0 0 0 0 0 0 0 0 0 0 0 0 0 0 0 0 0 0 0 0 0 0 0
0.452368 6.08862e-07 2.34718e-07 3.74144e-07 0.614497 0.00193723 0 0 0 0 0 0 0 0 0 0 0 0 0 0 0 0 0 0 0 0 0 0 0 0 0 0 0 0 0 0 0 0 0 0 0 0 0 0 0 0 0 0
0.475588 6.10429e-07 2.35319e-07 3.7511e-07 0.614503 0.00177642 0 0 0 0 0 0 0 0 0 0 0 0 0 0 0 0 0 0 0 0 0 0 0 0 0 0 0 0 0 0 0 0 0 0 0 0 0 0 0 0 0 0
0.5 6.12035e-07 2.36018e-07 3.76018e-07 0.614372 0.00162159 0 0 0 0 0 0 0 0 0 0 0 0 0 0 0 0 0 0 0 0 0 0 0 0 0 0 0 0 0 0 0 0 0 0 0 0 0 0 0 0 0 0
0.525665 6.1367e-07 2.368e-07 3.7687e-07 0.614124 0.0014751 0 0 0 0 0 0 0 0 0 0 0 0 0 0 0 0 0 0 0 0 0 0 0 0 0 0 0 0 0 0 0 0 0 0 0 0 0 0 0 0 0 0
0.552648 6.1538e-07 2.37628e-07 3.77752e-07 0.613852 0.00134175 0 0 0 0 0 0 0 0 0 0 0 0 0 0 0 0 0 0 0 0 0 0 0 0 0 0 0 0 0 0 0 0 0 0 0 0 0 0 0 0 0 0
0.581015 6.17151e-07 2.3846e-07 3.7869e-07 0.613611 0.00121775 0 0 0 0 0 0 0 0 0 0 0 0 0 0 0 0 0 0 0 0 0 0 0 0 0 0 0 0 0 0 0 0 0 0 0 0 0 0 0 0 0 0
0.610839 6.19013e-07 2.39259e-07 3.79753e-07 0.613482 0.00110516 0 0 0 0 0 0 0 0 0 0 0 0 0 0 0 0 0 0 0 0 0 0 0 0 0 0 0 0 0 0 0 0 0 0 0 0 0 0 0 0 0 0
0.642193 6.20977e-07 2.39993e-07 3.80984e-07 0.613523 0.00100302 0 0 0 0 0 0 0 0 0 0 0 0 0 0 0 0 0 0 0 0 0 0 0 0 0 0 0 0 0 0 0 0 0 0 0 0 0 0 0 0 0 0
0.675157 6.23015e-07 2.40642e-07 3.82373e-07 0.613746 0.000910957 0 0 0 0 0 0 0 0 0 0 0 0 0 0 0 0 0 0 0 0 0 0 0 0 0 0 0 0 0 0 0 0 0 0 0 0 0 0 0 0 0 0
0.709813 6.25144e-07 2.41182e-07 3.83962e-07 0.614198 0.00082817 0 0 0 0 0 0 0 0 0 0 0 0 0 0 0 0 0 0 0 0 0 0 0 0 0 0 0 0 0 0 0 0 0 0 0 0 0 0 0 0 0 0
0.746248 6.27359e-07 2.41621e-07 3.85739e-07 0.614861 0.000754183 0 0 0 0 0 0 0 0 0 0 0 0 0 0 0 0 0 0 0 0 0 0 0 0 0 0 0 0 0 0 0 0 0 0 0 0 0 0 0 0 0 0
0.784553 6.29653e-07 2.41952e-07 3.877e-07 0.615737 0.000686995 0 0 0 0 0 0 0 0 0 0 0 0 0 0 0 0 0 0 0 0 0 0 0 0 0 0 0 0 0 0 0 0 0 0 0 0 0 0 0 0 0 0
0.824824 6.32014e-07 2.42187e-07 3.89827e-07 0.616801 0.000626788 0 0 0 0 0 0 0 0 0 0 0 0 0 0 0 0 0 0 0 0 0 0 0 0 0 0 0 0 0 0 0 0 0 0 0 0 0 0 0 0 0 0
0.867162 6.34434e-07 2.42332e-07 3.92102e-07 0.618034 0.000572518 0 0 0 0 0 0 0 0 0 0 0 0 0 0 0 0 0 0 0 0 0 0 0 0 0 0 0 0 0 0 0 0 0 0 0 0 0 0 0 0 0 0
0.911674 6.36923e-07 2.424e-07 3.94523e-07 0.61942 0.000523427 0 0 0 0 0 0 0 0 0 0 0 0 0 0 0 0 0 0 0 0 0 0 0 0 0 0 0 0 0 0 0 0 0 0 0 0 0 0 0 0 0 0
0.95847 6.39413e-07 2.4239e-07 3.97023e-07 0.620918 0.00047944 0 0 0 0 0 0 0 0 0 0 0 0 0 0 0 0 0 0 0 0 0 0 0 0 0 0 0 0 0 0 0 0 0 0 0 0 0 0 0 0 0 0
1.00767 6.41947e-07 2.4233e-07 3.99617e-07 0.622508 0.0004395 0 0 0 0 0 0 0 0 0 0 0 0 0 0 0 0 0 0 0 0 0 0 0 0 0 0 0 0 0 0 0 0 0 0 0 0 0 0 0 0 0 0
1.05939 6.44516e-07 2.42221e-07 4.02295e-07 0.624181 0.000403275 0 0 0 0 0 0 0 0 0 0 0 0 0 0 0 0 0 0 0 0 0 0 0 0 0 0 0 0 0 0 0 0 0 0 0 0 0 0 0 0 0 0
1.11377 6.47066e-07 2.42073e-07 4.04993e-07 0.625892 0.000370298 0 0 0 0 0 0 0 0 0 0 0 0 0 0 0 0 0 0 0 0 0 0 0 0 0 0 0 0 0 0 0 0 0 0 0 0 0 0 0 0 0 0
1.17094 6.49611e-07 2.41895e-07 4.07716e-07 0.627631 0.000339515 0 0 0 0 0 0 0 0 0 0 0 0 0 0 0 0 0 0 0 0 0 0 0 0 0 0 0 0 0 0 0 0 0 0 0 0 0 0 0 0 0 0
1.23105 6.5215e-07 2.41707e-07 4.10443e-07 0.629369 0.000311294 0 0 0 0 0 0 0 0 0 0 0 0 0 0 0 0 0 0 0 0 0 0 0 0 0 0 0 0 0 0 0 0 0 0 0 0 0 0 0 0 0 0
1.29424 6.5465e-07 2.41501e-07 4.1315e-07 0.6311 0.000285362 0 0 0 0 0 0 0 0 0 0 0 0 0 0 0 0 0 0 0 0 0 0 0 0 0 0 0 0 0 0 0 0 0 0 0 0 0 0 0 0 0 0
1.36067 6.5714e-07 2.41301e-07 4.15839e-07 0.632802 0.000261742 0 0 0 0 0 0 0 0 0 0 0 0 0 0 0 0 0 0 0 0 0 0 0 0 0 0 0 0 0 0 0 0 0 0 0 0 0 0 0 0 0 0
1.43051 6.59606e-07 2.411e-07 4.18507e-07 0.634479 0.000240209 0 0 0 0 0 0 0 0 0 0 0 0 0 0 0 0 0 0 0 0 0 0 0 0 0 0 0 0 0 0 0 0 0 0 0 0 0 0 0 0 0 0
1.50394 6.6202e-07 2.40904e-07 4.21116e-07 0.636108 0.000220279 0 0 0 0 0 0 0 0 0 0 0 0 0 0 0 0 0 0 0 0 0 0 0 0 0 0 0 0 0 0 0 0 0 0 0 0 0 0 0 0 0 0
1.58114 6.64421e-07 2.40743e-07 4.23679e-07 0.637666 0.000201732 0 0 0 0 0 0 0 0 0 0 0 0 0 0 0 0 0 0 0 0 0 0 0 0 0 0 0 0 0 0 0 0 0 0 0 0 0 0 0 0 0 0
1.6623 6.66764e-07 2.4059e-07 4.26173e-07 0.639167 0.000184534 0 0 0 0 0 0 0 0 0 0 0 0 0 0 0 0 0 0 0 0 0 0 0 0 0 0 0 0 0 0 0 0 0 0 0 0 0 0 0 0 0 0
1.74763 6.69086e-07 2.40482e-07 4.28604e-07 0.640582 0.000169005 0 0 0 0 0 0 0 0 0 0 0 0 0 0 0 0 0 0 0 0 0 0 0 0 0 0 0 0 0 0 0 0 0 0 0 0 0 0 0 0 0 0
1.83733 6.71401e-07 2.40414e-07 4.30986e-07 0.641921 0.000154804 0 0 0 0 0 0 0 0 0 0 0 0 0 0 0 0 0 0 0 0 0 0 0 0 0 0 0 0 0 0 0 0 0 0 0 0 0 0 0 0 0 0
1.93164 6.73671e-07 2.4039e-07 4.33281e-07 0.643164 0.000141793 0 0 0 0 0 0 0 0 0 0 0 0 0 0 0 0 0 0 0 0 0 0 0 0 0 0 0 0 0 0 0 0 0 0 0 0 0 0 0 0 0 0
2.03079 6.75955e-07 2.4044e-07 4.35515e-07 0.644296 0.000129725 0 0 0 0 0 0 0 0 0 0 0 0 0 0 0 0 0 0 0 0 0 0 0 0 0 0 0 0 0 0 0 0 0 0 0 0 0 0 0 0 0 0
2.13503 6.78206e-07 2.40529e-07 4.37677e-07 0.645345 0.000118657 0 0 0 0 0 0 0 0 0 0 0 0 0 0 0 0 0 0 0 0 0 0 0 0 0 0 0 0 0 0 0 0 0 0 0 0 0 0 0 0 0 0
2.24463 6.80482e-07 2.40716e-07 4.39766e-07 0.646256 0.000108569 0 0 0 0 0 0 0 0 0 0 0 0 0 0 0 0 0 0 0 0 0 0 0 0 0 0 0 0 0 0 0 0 0 0 0 0 0 0 0 0 0 0
2.35984 6.82732e-07 2.40958e-07 4.41773e-07 0.647067 9.92926e-05 0 0 0 0 0 0 0 0 0 0 0 0 0 0 0 0 0 0 0 0 0 0 0 0 0 0 0 0 0 0 0 0 0 0 0 0 0 0 0 0 0 0
2.48097 6.85039e-07 2.41311e-07 4.43728e-07 0.647741 9.07218e-05 0 0 0 0 0 0 0 0 0 0 0 0 0 0 0 0 0 0 0 0 0 0 0 0 0 0 0 0 0 0 0 0 0 0 0 0 0 0 0 0 0 0
2.60832 6.87323e-07 2.41747e-07 4.45576e-07 0.648277 8.27967e-05 0 0 0 0 0 0 0 0 0 0 0 0 0 0 0 0 0 0 0 0 0 0 0 0 0 0 0 0 0 0 0 0 0 0 0 0 0 0 0 0 0 0
2.74221 6.89662e-07 2.42258e-07 4.47404e-07 0.648729 7.55862e-05 0 0 0 0 0 0 0 0 0 0 0 0 0 0 0 0 0 0 0 0 0 0 0 0 0 0 0 0 0 0 0 0 0 0 0 0 0 0 0 0 0 0
2.88297 6.921e-07 2.42961e-07 4.49139e-07 0.648951 6.90729e-05 0 0 0 0 0 0 0 0 0 0 0 0 0 0 0 0 0 0 0 0 0 0 0 0 0 0 0 0 0 0 0 0 0 0 0 0 0 0 0 0 0 0
3.03095 6.9445e-07 2.43674e-07 4.50776e-07 0.649113 6.31538e-05 0 0 0 0 0 0 0 0 0 0 0 0 0 0 0 0 0 0 0 0 0 0 0 0 0 0 0 0 0 0 0 0 0 0 0 0 0 0 0 0 0 0
3.18653 6.96984e-07 2.44531e-07 4.52453e-07 0.649158 5.76567e-05 0 0 0 0 0 0 0 0 0 0 0 0 0 0 0 0 0 0 0 0 0 0 0 0 0 0 0 0 0 0 0 0 0 0 0 0 0 0 0 0 0 0
3.35009 6.99645e-07 2.45637e-07 4.54008e-07 0.648912 5.2603e-05 0 0 0 0 0 0 0 0 0 0 0 0 0 0 0 0 0 0 0 0 0 0 0 0 0 0 0 0 0 0 0 0 0 0 0 0 0 0 0 0 0 0
3.52205 7.02108e-07 2.46713e-07 4.55395e-07 0.648611 4.80102e-05 0 0 0 0 0 0 0 0 0 0 0 0 0 0 0 0 0 0 0 0 0 0 0 0 0 0 0 0 0 0 0 0 0 0 0 0 0 0 0 0 0 0
3.70284 7.0478e-07 2.47873e-07 4.56907e-07 0.648297 4.38066e-05 0 0 0 0 0 0 0 0 0 0 0 0 0 0 0 0 0 0 0 0 0 0 0 0 0 0 0 0 0 0 0 0 0 0 0 0 0 0 0 0 0 0
3.89291 7.07845e-07 2.49435e-07 4.5841e-07 0.647613 3.9926e-05 0 0 0 0 0 0 0 0 0 0 0 0 0 0 0 0 0 0 0 0 0 0 0 0 0 0 0 0 0 0 0 0 0 0 0 0 0 0 0 0 0 0
4.09273 7.10675e-07 2.51099e-07 4.59576e-07 0.646675 3.62643e-05 0 0 0 0 0 0 0 0 0 0 0 0 0 0 0 0 0 0 0 0 0 0 0 0 0 0 0 0 0 0 0 0 0 0 0 0 0 0 0 0 0 0
4.30281 7.13272e-07 2.52586e-07 4.60686e-07 0.645877 3.29535e-05 0 0 0 0 0 0 0 0 0 0 0 0 0 0 0 0 0 0 0 0 0 0 0 0 0 0 0 0 0 0 0 0 0 0 0 0 0 0 0 0 0 0
4.52368 7.16371e-07 2.54258e-07 4.62113e-07 0.645075 2.99416e-05 0 0 0 0 0 0 0 0 0 0 0 0 0 0 0 0 0 0 0 0 0 0 0 0 0 0 0 0 0 0 0 0 0 0 0 0 0 0 0 0 0 0
4.75588 7.20112e-07 2.56519e-07 4.63593e-07 0.643779 2.71796e-05 0 0 0 0 0 0 0 0 0 0 0 0 0 0 0 0 0 0 0 0 0 0 0 0 0 0 0 0 0 0 0 0 0 0 0 0 0 0 0 0 0 0
5 7.23569e-07 2.59009e-07 4.6456e-07 0.64204 2.45398e-05 0 0 0 0 0 0 0 0 0 0 0 0 0 0 0 0 0 0 0 0 0 0 0 0 0 0 0 0 0 0 0 0 0 0 0 0 0 0 0 0 0 0
5.25665 7.26265e-07 2.61164e-07 4.65101e-07 0.640401 2.21678e-05 0 0 0 0 0 0 0 0 0 0 0 0 0 0 0 0 0 0 0 0 0 0 0 0 0 0 0 0 0 0 0 0 0 0 0 0 0 0 0 0 0 0
5.52648 7.29023e-07 2.63086e-07 4.65937e-07 0.639125 2.00489e-05 0 0 0 0 0 0 0 0 0 0 0 0 0 0 0 0 0 0 0 0 0 0 0 0 0 0 0 0 0 0 0 0 0 0 0 0 0 0 0 0 0 0
5.81015 7.3288e-07 2.65411e-07 4.67469e-07 0.637852 1.8115e-05 0 0 0 0 0 0 0 0 0 0 0 0 0 0 0 0 0 0 0 0 0 0 0 0 0 0 0 0 0 0 0 0 0 0 0 0 0 0 0 0 0 0
6.10839 7.37732e-07 2.6844e-07 4.69292e-07 0.636128 1.63023e-05 0 0 0 0 0 0 0 0 0 0 0 0 0 0 0 0 0 0 0 0 0 0 0 0 0 0 0 0 0 0 0 0 0 0 0 0 0 0 0 0 0 0
6.42193 7.42596e-07 2.73093e-07 4.69503e-07 0.632245 1.48144e-05 0 0 0 0 0 0 0 0 0 0 0 0 0 0 0 0 0 0 0 0 0 0 0 0 0 0 0 0 0 0 0 0 0 0 0 0 0 0 0 0 0 0
6.75157 7.45893e-07 2.76128e-07 4.69765e-07 0.629802 1.32279e-05 0 0 0 0 0 0 0 0 0 0 0 0 0 0 0 0 0 0 0 0 0 0 0 0 0 0 0 0 0 0 0 0 0 0 0 0 0 0 0 0 0 0
7.09813 7.4789e-07 2.78813e-07 4.69077e-07 0.627201 1.18448e-05 0 0 0 0 0 0 0 0 0 0 0 0 0 0 0 0 0 0 0 0 0 0 0 0 0 0 0 0 0 0 0 0 0 0 0 0 0 0 0 0 0 0
7.46248 7.49938e-07 2.81054e-07 4.68884e-07 0.625231 1.05694e-05 0 0 0 0 0 0 0 0 0 0 0 0 0 0 0 0 0 0 0 0 0 0 0 0 0 0 0 0 0 0 0 0 0 0 0 0 0 0 0 0 0 0
7.84553 7.53758e-07 2.83642e-07 4.70116e-07 0.623696 9.34187e-06 0 0 0 0 0 0 0 0 0 0 0 0 0 0 0 0 0 0 0 0 0 0 0 0 0 0 0 0 0 0 0 0 0 0 0 0 0 0 0 0 0 0
8.24824 7.60113e-07 2.87357e-07 4.72756e-07 0.621954 8.19911e-06 0 0 0 0 0 0 0 0 0 0 0 0 0 0 0 0 0 0 0 0 0 0 0 0 0 0 0 0 0 0 0 0 0 0 0 0 0 0 0 0 0 0
8.67162 7.67982e-07 2.92352e-07 4.7563e-07 0.619325 7.20916e-06 0 0 0 0 0 0 0 0 0 0 0 0 0 0 0 0 0 0 0 0 0 0 0 0 0 0 0 0 0 0 0 0 0 0 0 0 0 0 0 0 1.4013e-45 0
9.11674 7.74937e-07 2.98056e-07 4.76881e-07 0.61538 6.32492e-06 0 0 0 0 0 0 0 0 0 0 0 0 0 0 0 0 0 0 0 0 0 0 0 0 0 0 0 0 0 0 1.4013e-45 0 4.2039e-45 0 1.12104e-44 0 3.22299e-44 0 8.54792e-44 0 2.10195e-43 0
9.5847 7.79033e-07 3.03687e-07 4.75345e-07 0.610174 5.52644e-06 0 0 0 0 0 0 0 0 0 0 0 0 0 0 0 0 0 0 0 0 0 0 1.4013e-45 0 4.2039e-45 0 1.68156e-44 0 6.30584e-44 0 2.17201e-43 0 6.61413e-43 0 1.93099e-42 0 5.18901e-42 0 1.31512e-41 0 3.08986e-41 0
10.0767 7.79818e-07 3.08687e-07 4.71131e-07 0.604155 4.78203e-06 0 0 0 0 0 0 0 0 0 0 0 0 0 0 0 0 0 0 4.2039e-45 0 2.52234e-44 0 1.44334e-43 0 6.67018e-43 0 2.70871e-42 0 9.75164e-42 0 3.13414e-41 0 9.05085e-41 0 2.50696e-40 0 6.41879e-40 0 1.55439e-39 0 3.50288e-39 0
10.5939 7.78263e-07 3.12844e-07 4.65419e-07 0.598023 4.06995e-06 0 0 0 0 0 0 0 0 0 0 0 0 0 0 7.00649e-45 0 8.12753e-44 0 6.55808e-43 0 4.08058e-42 0 2.09214e-41 0 8.98246e-41 0 3.40891e-40 0 1.15291e-39 0 3.49991e-39 0 9.59724e-39 0 2.52932e-38 0 6.18548e-38 0 1.43458e-37 0 3.10716e-37 0
11.1377 7.75863e-07 3.16473e-07 4.5939e-07 0.592102 3.40803e-06 0 0 0 0 0 0 0 0 0 0 2.8026e-45 0 8.12753e-44 0 1.22754e-42 0 1.20049e-41 0 8.73345e-41 0 4.96644e-40 0 2.35116e-39 0 9.40135e-39 0 3.34295e-38 0 1.0653e-37 0 3.06329e-37 0 7.99629e-37 0 2.01001e-36 0 4.7055e-36 0 1.04742e-35 0 2.18459e-35 0
11.7094 7.70509e-07 3.1185e-07 4.58659e-07 0.595268 2.82232e-06 0 0 0 0 0 0 0 0 9.80909e-45 0 4.93257e-43 0 1.15467e-41 0 1.52482e-40 0 1.33465e-39 0 8.81278e-39 0 4.60382e-38 0 2.02017e-37 0 7.54933e-37 0 2.52319e-36 0 7.59832e-36 0 2.07509e-35 0 5.16882e-35 0 1.2421e-34 0 2.78951e-34 0 5.97139e-34 0 1.20154e-33 0
12.3105 7.73188e-07 3.17206e-07 4.55982e-07 0.589743 2.20615e-06 0 0 0 0 0 0 9.80909e-45 0 1.51761e-42 0 6.53832e-41 0 1.31055e-39 0 1.5258e-38 0 1.20129e-37 0 7.23388e-37 0 3.48595e-36 0 1.42309e-35 0 4.98655e-35 0 1.57129e-34 0 4.48382e-34 0 1.16591e-33 0 2.77758e-33 0 6.39501e-33 0 1.38057e-32 0 2.84752e-32 0 5.53737e-32 0
12.9424 7.81266e-07 3.20341e-07 4.60925e-07 0.589972 1.60871e-06 0 0 0 0 1.4013e-45 0 1.47837e-42 0 1.86694e-40 0 6.69321e-39 0 1.15892e-37 0 1.19688e-36 0 8.52011e-36 0 4.70001e-35 0 2.09751e-34 0 7.99446e-34 0 2.63492e-33 0 7.85031e-33 0 2.12836e-32 0 5.282e-32 0 1.20613e-31 0 2.66616e-31 0 5.54351e-31 0 1.10368e-30 0 2.07768e-30 0
13.6067 7.96747e-07 3.24896e-07 4.7185e-07 0.592221 1.1081e-06 0 0 0 0 1.87774e-43 0 1.80732e-40 0 1.80223e-38 0 5.42521e-37 0 8.17278e-36 0 7.53113e-35 0 4.87123e-34 0 2.47219e-33 0 1.02558e-32 0 3.66171e-32 0 1.13861e-31 0 3.21621e-31 0 8.30528e-31 0 1.97167e-30 0 4.32436e-30 0 9.19589e-30 0 1.84489e-29 0 3.55164e-29 0 6.48261e-29 0
14.3051 8.16201e-07 3.30748e-07 4.85453e-07 0.594771 6.74396e-07 0 0 0 0 2.51883e-41 0 1.73387e-38 0 1.38103e-36 0 3.52061e-35 0 4.64578e-34 0 3.84113e-33 0 2.26804e-32 0 1.06329e-31 0 4.11503e-31 0 1.38071e-30 0 4.06196e-30 0 1.09066e-29 0 2.68895e-29 0 6.11968e-29 0 1.29171e-28 0 2.64751e-28 0 5.13396e-28 0 9.57241e-28 0 1.69661e-27 0
15.0394 8.33543e-07 3.37861e-07 4.95681e-07 0.594668 2.84373e-07 0 0 2.24208e-44 0 2.63951e-39 0 1.32065e-36 0 8.49474e-35 0 1.84884e-33 0 2.15097e-32 0 1.60415e-31 0 8.68528e-31 0 3.77593e-30 0 1.36789e-29 0 4.32623e-29 0 1.20743e-28 0 3.08939e-28 0 7.28841e-28 0 1.59346e-27 0 3.24293e-27 0 6.41791e-27 0 1.20494e-26 0 2.17934e-26 0 3.75622e-26 0
15.8114 8.42688e-07 3.45939e-07 4.96749e-07 0.589481 -8.11128e-08 0 0 3.35611e-42 0 2.18461e-37 0 8.06954e-35 0 4.23565e-33 0 7.93149e-32 0 8.18573e-31 0 5.53429e-30 0 2.75923e-29 0 1.11652e-28 0 3.79838e-28 0 1.13565e-27 0 3.01463e-27 0 7.36753e-27 0 1.6668e-26 0 3.50757e-26 0 6.895e-26 0 1.31983e-25 0 2.40288e-25 0 4.22207e-25 0 7.08612e-25 0
