# 3e-05 1 16 : grain size, compostion index, size index
# Heating and cooling timescale: 0.00459031 61035.6
# Ratio of heating to cooling to determine stochastic cutoff: 100
# Equilibrium emission is recorded even for those grains in the stochastic regime.
# Emission spectrum was computed for: 
# Type: ISRF
# Scales: 0.25 0.5 1 1.5 2 2.5 3 3.5 4 4.5 5 5.5 6 6.5 7 7.5 8 8.5 9 9.5 10
# StochasticallyHeated: 0 0 0 0 0 0 0 0 0 0 0 0 0 0 0 0 0 0 0 0 0
# Temperature: -1
# Wavelength  CExt  CAbs  CSca  Albedo G EqEm1 StEm1 EqEm2 StEm2 EqEm3 StEm3 EqEm4 StEm4 EqEm5 StEm5 EqEm6 StEm6 EqEm7 StEm7 EqEm8 StEm8 EqEm9 StEm9 EqEm10 StEm10 EqEm11 StEm11 EqEm12 StEm12 EqEm13 StEm13 EqEm14 StEm14 EqEm15 StEm15 EqEm16 StEm16 EqEm17 StEm17 EqEm18 StEm18 EqEm19 StEm19 EqEm20 StEm20 EqEm21 StEm21
0.05 6.05405e-09 2.46176e-09 3.59229e-09 0.59337 0.901323 0 0 0 0 0 0 0 0 0 0 0 0 0 0 0 0 0 0 0 0 0 0 0 0 0 0 0 0 0 0 0 0 0 0 0 0 0 0 0 0 0 0
0.0525665 6.0612e-09 2.47528e-09 3.58593e-09 0.59162 0.901599 0 0 0 0 0 0 0 0 0 0 0 0 0 0 0 0 0 0 0 0 0 0 0 0 0 0 0 0 0 0 0 0 0 0 0 0 0 0 0 0 0 0
0.0552647 6.06879e-09 2.48951e-09 3.57928e-09 0.589785 0.901894 0 0 0 0 0 0 0 0 0 0 0 0 0 0 0 0 0 0 0 0 0 0 0 0 0 0 0 0 0 0 0 0 0 0 0 0 0 0 0 0 0 0
0.0581015 6.07659e-09 2.50447e-09 3.57212e-09 0.587849 0.902201 0 0 0 0 0 0 0 0 0 0 0 0 0 0 0 0 0 0 0 0 0 0 0 0 0 0 0 0 0 0 0 0 0 0 0 0 0 0 0 0 0 0
0.0610839 6.08505e-09 2.52019e-09 3.56486e-09 0.58584 0.902519 0 0 0 0 0 0 0 0 0 0 0 0 0 0 0 0 0 0 0 0 0 0 0 0 0 0 0 0 0 0 0 0 0 0 0 0 0 0 0 0 0 0
0.0642193 6.09377e-09 2.53672e-09 3.55705e-09 0.583719 0.902866 0 0 0 0 0 0 0 0 0 0 0 0 0 0 0 0 0 0 0 0 0 0 0 0 0 0 0 0 0 0 0 0 0 0 0 0 0 0 0 0 0 0
0.0675157 6.10302e-09 2.55407e-09 3.54895e-09 0.581507 0.903216 0 0 0 0 0 0 0 0 0 0 0 0 0 0 0 0 0 0 0 0 0 0 0 0 0 0 0 0 0 0 0 0 0 0 0 0 0 0 0 0 0 0
0.0709813 6.11286e-09 2.57236e-09 3.54051e-09 0.57919 0.903596 0 0 0 0 0 0 0 0 0 0 0 0 0 0 0 0 0 0 0 0 0 0 0 0 0 0 0 0 0 0 0 0 0 0 0 0 0 0 0 0 0 0
0.0746248 6.12301e-09 2.59155e-09 3.53146e-09 0.576752 0.903988 0 0 0 0 0 0 0 0 0 0 0 0 0 0 0 0 0 0 0 0 0 0 0 0 0 0 0 0 0 0 0 0 0 0 0 0 0 0 0 0 0 0
0.0784553 6.13384e-09 2.61175e-09 3.52209e-09 0.574207 0.904408 0 0 0 0 0 0 0 0 0 0 0 0 0 0 0 0 0 0 0 0 0 0 0 0 0 0 0 0 0 0 0 0 0 0 0 0 0 0 0 0 0 0
0.0824824 6.14521e-09 2.63298e-09 3.51223e-09 0.57154 0.904843 0 0 0 0 0 0 0 0 0 0 0 0 0 0 0 0 0 0 0 0 0 0 0 0 0 0 0 0 0 0 0 0 0 0 0 0 0 0 0 0 0 0
0.0867162 6.15697e-09 2.65529e-09 3.50167e-09 0.568733 0.905303 0 0 0 0 0 0 0 0 0 0 0 0 0 0 0 0 0 0 0 0 0 0 0 0 0 0 0 0 0 0 0 0 0 0 0 0 0 0 0 0 0 0
0.0911674 6.16942e-09 2.67876e-09 3.49066e-09 0.5658 0.90578 0 0 0 0 0 0 0 0 0 0 0 0 0 0 0 0 0 0 0 0 0 0 0 0 0 0 0 0 0 0 0 0 0 0 0 0 0 0 0 0 0 0
0.095847 6.1826e-09 2.70341e-09 3.47919e-09 0.562738 0.906288 0 0 0 0 0 0 0 0 0 0 0 0 0 0 0 0 0 0 0 0 0 0 0 0 0 0 0 0 0 0 0 0 0 0 0 0 0 0 0 0 0 0
0.100767 6.19638e-09 2.72935e-09 3.46703e-09 0.559526 0.906827 0 0 0 0 0 0 0 0 0 0 0 0 0 0 0 0 0 0 0 0 0 0 0 0 0 0 0 0 0 0 0 0 0 0 0 0 0 0 0 0 0 0
0.105939 6.21098e-09 2.75661e-09 3.45437e-09 0.556171 0.907388 0 0 0 0 0 0 0 0 0 0 0 0 0 0 0 0 0 0 0 0 0 0 0 0 0 0 0 0 0 0 0 0 0 0 0 0 0 0 0 0 0 0
0.111377 6.22631e-09 2.78527e-09 3.44104e-09 0.552661 0.907972 0 0 0 0 0 0 0 0 0 0 0 0 0 0 0 0 0 0 0 0 0 0 0 0 0 0 0 0 0 0 0 0 0 0 0 0 0 0 0 0 0 0
0.117094 6.2423e-09 2.81541e-09 3.42689e-09 0.548979 0.908595 0 0 0 0 0 0 0 0 0 0 0 0 0 0 0 0 0 0 0 0 0 0 0 0 0 0 0 0 0 0 0 0 0 0 0 0 0 0 0 0 0 0
0.123105 6.25936e-09 2.8472e-09 3.41216e-09 0.545129 0.909239 0 0 0 0 0 0 0 0 0 0 0 0 0 0 0 0 0 0 0 0 0 0 0 0 0 0 0 0 0 0 0 0 0 0 0 0 0 0 0 0 0 0
0.129424 6.27676e-09 2.88027e-09 3.39649e-09 0.541121 0.909927 0 0 0 0 0 0 0 0 0 0 0 0 0 0 0 0 0 0 0 0 0 0 0 0 0 0 0 0 0 0 0 0 0 0 0 0 0 0 0 0 0 0
0.136067 6.29536e-09 2.91536e-09 3.38e-09 0.536903 0.910654 0 0 0 0 0 0 0 0 0 0 0 0 0 0 0 0 0 0 0 0 0 0 0 0 0 0 0 0 0 0 0 0 0 0 0 0 0 0 0 0 0 0
0.143051 6.31511e-09 2.95224e-09 3.36287e-09 0.532511 0.911406 0 0 0 0 0 0 0 0 0 0 0 0 0 0 0 0 0 0 0 0 0 0 0 0 0 0 0 0 0 0 0 0 0 0 0 0 0 0 0 0 0 0
0.150394 6.33576e-09 2.99091e-09 3.34485e-09 0.527932 0.912204 0 0 0 0 0 0 0 0 0 0 0 0 0 0 0 0 0 0 0 0 0 0 0 0 0 0 0 0 0 0 0 0 0 0 0 0 0 0 0 0 0 0
0.158114 6.35747e-09 3.03163e-09 3.32584e-09 0.523139 0.91304 0 0 0 0 0 0 0 0 0 0 0 0 0 0 0 0 0 0 0 0 0 0 0 0 0 0 0 0 0 0 0 0 0 0 0 0 0 0 0 0 0 0
0.16623 6.38017e-09 3.07443e-09 3.30573e-09 0.518126 0.91392 0 0 0 0 0 0 0 0 0 0 0 0 0 0 0 0 0 0 0 0 0 0 0 0 0 0 0 0 0 0 0 0 0 0 0 0 0 0 0 0 0 0
0.174762 6.40856e-09 3.11571e-09 3.29285e-09 0.513821 0.913861 0 0 0 0 0 0 0 0 0 0 0 0 0 0 0 0 0 0 0 0 0 0 0 0 0 0 0 0 0 0 0 0 0 0 0 0 0 0 0 0 0 0
0.183733 6.47417e-09 3.12869e-09 3.34547e-09 0.516742 0.905719 0 0 0 0 0 0 0 0 0 0 0 0 0 0 0 0 0 0 0 0 0 0 0 0 0 0 0 0 0 0 0 0 0 0 0 0 0 0 0 0 0 0
0.193164 6.54563e-09 3.13998e-09 3.40564e-09 0.520293 0.896581 0 0 0 0 0 0 0 0 0 0 0 0 0 0 0 0 0 0 0 0 0 0 0 0 0 0 0 0 0 0 0 0 0 0 0 0 0 0 0 0 0 0
0.203079 6.62084e-09 3.15205e-09 3.4688e-09 0.52392 0.88698 0 0 0 0 0 0 0 0 0 0 0 0 0 0 0 0 0 0 0 0 0 0 0 0 0 0 0 0 0 0 0 0 0 0 0 0 0 0 0 0 0 0
0.213503 6.69981e-09 3.16472e-09 3.5351e-09 0.527641 0.876884 0 0 0 0 0 0 0 0 0 0 0 0 0 0 0 0 0 0 0 0 0 0 0 0 0 0 0 0 0 0 0 0 0 0 0 0 0 0 0 0 0 0
0.224463 6.78298e-09 3.17799e-09 3.60498e-09 0.531475 0.866263 0 0 0 0 0 0 0 0 0 0 0 0 0 0 0 0 0 0 0 0 0 0 0 0 0 0 0 0 0 0 0 0 0 0 0 0 0 0 0 0 0 0
0.235984 6.8703e-09 3.19189e-09 3.6784e-09 0.535407 0.855108 0 0 0 0 0 0 0 0 0 0 0 0 0 0 0 0 0 0 0 0 0 0 0 0 0 0 0 0 0 0 0 0 0 0 0 0 0 0 0 0 0 0
0.248097 6.96215e-09 3.20672e-09 3.75543e-09 0.539406 0.843391 0 0 0 0 0 0 0 0 0 0 0 0 0 0 0 0 0 0 0 0 0 0 0 0 0 0 0 0 0 0 0 0 0 0 0 0 0 0 0 0 0 0
0.260832 6.99742e-09 3.24388e-09 3.75353e-09 0.536417 0.836184 0 0 0 0 0 0 0 0 0 0 0 0 0 0 0 0 0 0 0 0 0 0 0 0 0 0 0 0 0 0 0 0 0 0 0 0 0 0 0 0 0 0
0.274221 7.03133e-09 3.28448e-09 3.74685e-09 0.532879 0.82891 0 0 0 0 0 0 0 0 0 0 0 0 0 0 0 0 0 0 0 0 0 0 0 0 0 0 0 0 0 0 0 0 0 0 0 0 0 0 0 0 0 0
0.288297 7.06683e-09 3.32694e-09 3.7399e-09 0.529218 0.821264 0 0 0 0 0 0 0 0 0 0 0 0 0 0 0 0 0 0 0 0 0 0 0 0 0 0 0 0 0 0 0 0 0 0 0 0 0 0 0 0 0 0
0.303095 7.10426e-09 3.37168e-09 3.73258e-09 0.525401 0.813222 0 0 0 0 0 0 0 0 0 0 0 0 0 0 0 0 0 0 0 0 0 0 0 0 0 0 0 0 0 0 0 0 0 0 0 0 0 0 0 0 0 0
0.318653 7.14336e-09 3.4186e-09 3.72476e-09 0.52143 0.804762 0 0 0 0 0 0 0 0 0 0 0 0 0 0 0 0 0 0 0 0 0 0 0 0 0 0 0 0 0 0 0 0 0 0 0 0 0 0 0 0 0 0
0.335009 7.20734e-09 3.43967e-09 3.76767e-09 0.522755 0.79555 0 0 0 0 0 0 0 0 0 0 0 0 0 0 0 0 0 0 0 0 0 0 0 0 0 0 0 0 0 0 0 0 0 0 0 0 0 0 0 0 0 0
0.352205 7.28361e-09 3.4508e-09 3.83281e-09 0.526224 0.785735 0 0 0 0 0 0 0 0 0 0 0 0 0 0 0 0 0 0 0 0 0 0 0 0 0 0 0 0 0 0 0 0 0 0 0 0 0 0 0 0 0 0
0.370284 7.36375e-09 3.46254e-09 3.9012e-09 0.529785 0.775415 0 0 0 0 0 0 0 0 0 0 0 0 0 0 0 0 0 0 0 0 0 0 0 0 0 0 0 0 0 0 0 0 0 0 0 0 0 0 0 0 0 0
0.389291 7.44816e-09 3.47499e-09 3.97317e-09 0.533444 0.764568 0 0 0 0 0 0 0 0 0 0 0 0 0 0 0 0 0 0 0 0 0 0 0 0 0 0 0 0 0 0 0 0 0 0 0 0 0 0 0 0 0 0
0.409273 7.57648e-09 3.44561e-09 4.13087e-09 0.545223 0.757058 0 0 0 0 0 0 0 0 0 0 0 0 0 0 0 0 0 0 0 0 0 0 0 0 0 0 0 0 0 0 0 0 0 0 0 0 0 0 0 0 0 0
0.430281 7.74e-09 3.38385e-09 4.35615e-09 0.56281 0.751985 0 0 0 0 0 0 0 0 0 0 0 0 0 0 0 0 0 0 0 0 0 0 0 0 0 0 0 0 0 0 0 0 0 0 0 0 0 0 0 0 0 0
0.452368 7.91219e-09 3.31917e-09 4.59302e-09 0.580499 0.746643 0 0 0 0 0 0 0 0 0 0 0 0 0 0 0 0 0 0 0 0 0 0 0 0 0 0 0 0 0 0 0 0 0 0 0 0 0 0 0 0 0 0
0.475588 8.12949e-09 3.25633e-09 4.87316e-09 0.599443 0.742457 0 0 0 0 0 0 0 0 0 0 0 0 0 0 0 0 0 0 0 0 0 0 0 0 0 0 0 0 0 0 0 0 0 0 0 0 0 0 0 0 0 0
0.5 8.54452e-09 3.21872e-09 5.3258e-09 0.6233 0.745264 0 0 0 0 0 0 0 0 0 0 0 0 0 0 0 0 0 0 0 0 0 0 0 0 0 0 0 0 0 0 0 0 0 0 0 0 0 0 0 0 0 0
0.525665 8.9823e-09 3.17929e-09 5.803e-09 0.646049 0.748279 0 0 0 0 0 0 0 0 0 0 0 0 0 0 0 0 0 0 0 0 0 0 0 0 0 0 0 0 0 0 0 0 0 0 0 0 0 0 0 0 0 0
0.552648 9.44213e-09 3.14925e-09 6.29289e-09 0.666469 0.750742 0 0 0 0 0 0 0 0 0 0 0 0 0 0 0 0 0 0 0 0 0 0 0 0 0 0 0 0 0 0 0 0 0 0 0 0 0 0 0 0 0 0
0.581015 9.92385e-09 3.15533e-09 6.76852e-09 0.682046 0.750959 0 0 0 0 0 0 0 0 0 0 0 0 0 0 0 0 0 0 0 0 0 0 0 0 0 0 0 0 0 0 0 0 0 0 0 0 0 0 0 0 0 0
0.610839 1.04305e-08 3.16178e-09 7.26876e-09 0.696873 0.751195 0 0 0 0 0 0 0 0 0 0 0 0 0 0 0 0 0 0 0 0 0 0 0 0 0 0 0 0 0 0 0 0 0 0 0 0 0 0 0 0 0 0
0.642193 1.08486e-08 3.17406e-09 7.67453e-09 0.707422 0.749646 0 0 0 0 0 0 0 0 0 0 0 0 0 0 0 0 0 0 0 0 0 0 0 0 0 0 0 0 0 0 0 0 0 0 0 0 0 0 0 0 0 0
0.675157 1.12338e-08 3.18941e-09 8.0444e-09 0.716088 0.747175 0 0 0 0 0 0 0 0 0 0 0 0 0 0 0 0 0 0 0 0 0 0 0 0 0 0 0 0 0 0 0 0 0 0 0 0 0 0 0 0 0 0
0.709813 1.14932e-08 3.19187e-09 8.30132e-09 0.722282 0.74202 0 0 0 0 0 0 0 0 0 0 0 0 0 0 0 0 0 0 0 0 0 0 0 0 0 0 0 0 0 0 0 0 0 0 0 0 0 0 0 0 0 0
0.746248 1.15632e-08 3.1752e-09 8.38798e-09 0.725404 0.73304 0 0 0 0 0 0 0 0 0 0 0 0 0 0 0 0 0 0 0 0 0 0 0 0 0 0 0 0 0 0 0 0 0 0 0 0 0 0 0 0 0 0
0.784553 1.15594e-08 3.14293e-09 8.41644e-09 0.728106 0.721012 0 0 0 0 0 0 0 0 0 0 0 0 0 0 0 0 0 0 0 0 0 0 0 0 0 0 0 0 0 0 0 0 0 0 0 0 0 0 0 0 0 0
0.824824 1.14329e-08 3.08585e-09 8.34708e-09 0.730091 0.70427 0 0 0 0 0 0 0 0 0 0 0 0 0 0 0 0 0 0 0 0 0 0 0 0 0 0 0 0 0 0 0 0 0 0 0 0 0 0 0 0 0 0
0.867162 1.12111e-08 3.02306e-09 8.18807e-09 0.730352 0.687821 0 0 0 0 0 0 0 0 0 0 0 0 0 0 0 0 0 0 0 0 0 0 0 0 0 0 0 0 0 0 0 0 0 0 0 0 0 0 0 0 0 0
0.911674 1.09037e-08 2.95484e-09 7.94882e-09 0.729005 0.671492 0 0 0 0 0 0 0 0 0 0 0 0 0 0 0 0 0 0 0 0 0 0 0 0 0 0 0 0 0 0 0 0 0 0 0 0 0 0 0 0 0 0
0.95847 1.04969e-08 2.90069e-09 7.59618e-09 0.723662 0.661216 0 0 0 0 0 0 0 0 0 0 0 0 0 0 0 0 0 0 0 0 0 0 0 0 0 0 0 0 0 0 0 0 0 0 0 0 0 0 0 0 0 0
1.00767 1.00309e-08 2.83674e-09 7.19415e-09 0.717199 0.651341 0 0 0 0 0 0 0 0 0 0 0 0 0 0 0 0 0 0 0 0 0 0 0 0 0 0 0 0 0 0 0 0 0 0 0 0 0 0 0 0 0 0
1.05939 9.48354e-09 2.7471e-09 6.73645e-09 0.71033 0.640494 0 0 0 0 0 0 0 0 0 0 0 0 0 0 0 0 0 0 0 0 0 0 0 0 0 0 0 0 0 0 0 0 0 0 0 0 0 0 0 0 0 0
1.11377 8.86493e-09 2.6303e-09 6.23463e-09 0.703292 0.626478 0 0 0 0 0 0 0 0 0 0 0 0 0 0 0 0 0 0 0 0 0 0 0 0 0 0 0 0 0 0 0 0 0 0 0 0 0 0 0 0 0 0
1.17094 8.19731e-09 2.49988e-09 5.69742e-09 0.695036 0.610776 0 0 0 0 0 0 0 0 0 0 0 0 0 0 0 0 0 0 0 0 0 0 0 0 0 0 0 0 0 0 0 0 0 0 0 0 0 0 0 0 0 0
1.23105 7.48787e-09 2.35785e-09 5.13002e-09 0.68511 0.593642 0 0 0 0 0 0 0 0 0 0 0 0 0 0 0 0 0 0 0 0 0 0 0 0 0 0 0 0 0 0 0 0 0 0 0 0 0 0 0 0 0 0
1.29424 6.7501e-09 2.20253e-09 4.54757e-09 0.673704 0.574727 0 0 0 0 0 0 0 0 0 0 0 0 0 0 0 0 0 0 0 0 0 0 0 0 0 0 0 0 0 0 0 0 0 0 0 0 0 0 0 0 0 0
1.36067 6.01134e-09 2.03195e-09 3.9794e-09 0.661981 0.552053 0 0 0 0 0 0 0 0 0 0 0 0 0 0 0 0 0 0 0 0 0 0 0 0 0 0 0 0 0 0 0 0 0 0 0 0 0 0 0 0 0 0
1.43051 5.30188e-09 1.85242e-09 3.44946e-09 0.650611 0.524551 0 0 0 0 0 0 0 0 0 0 0 0 0 0 0 0 0 0 0 0 0 0 0 0 0 0 0 0 0 0 0 0 0 0 0 0 0 0 0 0 0 0
1.50394 4.64776e-09 1.67381e-09 2.97395e-09 0.639867 0.492244 0 0 0 0 0 0 0 0 0 0 0 0 0 0 0 0 0 0 0 0 0 0 0 0 0 0 0 0 0 0 0 0 0 0 0 0 0 0 0 0 0 0
1.58114 4.06406e-09 1.50581e-09 2.55824e-09 0.62948 0.45623 0 0 0 0 0 0 0 0 0 0 0 0 0 0 0 0 0 0 0 0 0 0 0 0 0 0 0 0 0 0 0 0 0 0 0 0 0 0 0 0 0 0
1.6623 3.55183e-09 1.35422e-09 2.19761e-09 0.618726 0.418674 0 0 0 0 0 0 0 0 0 0 0 0 0 0 0 0 0 0 0 0 0 0 0 0 0 0 0 0 0 0 0 0 0 0 0 0 0 0 0 0 0 0
1.74763 3.10484e-09 1.22061e-09 1.88423e-09 0.606868 0.381557 0 0 0 0 0 0 0 0 0 0 0 0 0 0 0 0 0 0 0 0 0 0 0 0 0 0 0 0 0 0 0 0 0 0 0 0 0 0 0 0 0 0
1.83733 2.71433e-09 1.10383e-09 1.61051e-09 0.593335 0.346305 0 0 0 0 0 0 0 0 0 0 0 0 0 0 0 0 0 0 0 0 0 0 0 0 0 0 0 0 0 0 0 0 0 0 0 0 0 0 0 0 0 0
1.93164 2.37217e-09 1.00157e-09 1.3706e-09 0.577782 0.313517 0 0 0 0 0 0 0 0 0 0 0 0 0 0 0 0 0 0 0 0 0 0 0 0 0 0 0 0 0 0 0 0 0 0 0 0 0 0 0 0 0 0
2.03079 2.07073e-09 9.11134e-10 1.1596e-09 0.559995 0.283459 0 0 0 0 0 0 0 0 0 0 0 0 0 0 0 0 0 0 0 0 0 0 0 0 0 0 0 0 0 0 0 0 0 0 0 0 0 0 0 0 0 0
2.13503 1.81161e-09 8.32294e-10 9.79321e-10 0.540579 0.256711 0 0 0 0 0 0 0 0 0 0 0 0 0 0 0 0 0 0 0 0 0 0 0 0 0 0 0 0 0 0 0 0 0 0 0 0 0 0 0 0 0 0
2.24463 1.58387e-09 7.61509e-10 8.2236e-10 0.51921 0.232591 0 0 0 0 0 0 0 0 0 0 0 0 0 0 0 0 0 0 0 0 0 0 0 0 0 0 0 0 0 0 0 0 0 0 0 0 0 0 0 0 0 0
2.35984 1.38598e-09 6.98087e-10 6.87898e-10 0.496324 0.210896 0 0 0 0 0 0 0 0 0 0 0 0 0 0 0 0 0 0 0 0 0 0 0 0 0 0 0 0 0 0 0 0 0 0 0 0 0 0 0 0 0 0
2.48097 1.2144e-09 6.4097e-10 5.7343e-10 0.472192 0.191381 0 0 0 0 0 0 0 0 0 0 0 0 0 0 0 0 0 0 0 0 0 0 0 0 0 0 0 0 0 0 0 0 0 0 0 0 0 0 0 0 0 0
2.60832 1.06604e-09 5.89399e-10 4.76638e-10 0.447112 0.173832 0 0 0 0 0 0 0 0 0 0 0 0 0 0 0 0 0 0 0 0 0 0 0 0 0 0 0 0 0 0 0 0 0 0 0 0 0 0 0 0 0 0
2.74221 9.37825e-10 5.42698e-10 3.95128e-10 0.421323 0.157996 0 0 0 0 0 0 0 0 0 0 0 0 0 0 0 0 0 0 0 0 0 0 0 0 0 0 0 0 0 0 0 0 0 0 0 0 0 0 0 0 0 0
2.88297 8.27246e-10 5.00468e-10 3.26778e-10 0.395019 0.143718 0 0 0 0 0 0 0 0 0 0 0 0 0 0 0 0 0 0 0 0 0 0 0 0 0 0 0 0 0 0 0 0 0 0 0 0 0 0 0 0 0 0
3.03095 7.31754e-10 4.62336e-10 2.69417e-10 0.36818 0.130776 0 0 0 0 0 0 0 0 0 0 0 0 0 0 0 0 0 0 0 0 0 0 0 0 0 0 0 0 0 0 0 0 0 0 0 0 0 0 0 0 0 0
3.18653 6.50764e-10 4.29607e-10 2.21157e-10 0.339842 0.119035 0 0 0 0 0 0 0 0 0 0 0 0 0 0 0 0 0 0 0 0 0 0 0 0 0 0 0 0 0 0 0 0 0 0 0 0 0 0 0 0 0 0
3.35009 6.14429e-10 4.33639e-10 1.8079e-10 0.294241 0.10851 0 0 0 0 0 0 0 0 0 0 0 0 0 0 0 0 0 0 0 0 0 0 0 0 0 0 0 0 0 0 0 0 0 0 0 0 0 0 0 0 0 0
3.52205 5.52357e-10 3.95083e-10 1.57274e-10 0.284733 0.0984123 0 0 0 0 0 0 0 0 0 0 0 0 0 0 0 0 0 0 0 0 0 0 0 0 0 0 0 0 0 0 0 0 0 0 0 0 0 0 0 0 0 0
3.70284 4.64506e-10 3.37656e-10 1.2685e-10 0.273085 0.0896402 0 0 0 0 0 0 0 0 0 0 0 0 0 0 0 0 0 0 0 0 0 0 0 0 0 0 0 0 0 0 0 0 0 0 0 0 0 0 0 0 0 0
3.89291 4.16975e-10 3.12983e-10 1.03992e-10 0.249396 0.0816079 0 0 0 0 0 0 0 0 0 0 0 0 0 0 0 0 0 0 0 0 0 0 0 0 0 0 0 0 0 0 0 0 0 0 0 0 0 0 0 0 0 0
4.09273 3.76182e-10 2.90714e-10 8.5468e-11 0.227198 0.0742838 0 0 0 0 0 0 0 0 0 0 0 0 0 0 0 0 0 0 0 0 0 0 0 0 0 0 0 0 0 0 0 0 0 0 0 0 0 0 0 0 0 0
4.30281 3.406e-10 2.70342e-10 7.02582e-11 0.206278 0.0676632 0 0 0 0 0 0 0 0 0 0 0 0 0 0 0 0 0 0 0 0 0 0 0 0 0 0 0 0 0 0 0 0 0 0 0 0 0 0 0 0 0 0
4.52368 3.09445e-10 2.51662e-10 5.77827e-11 0.18673 0.0615723 0 0 0 0 0 0 0 0 0 0 0 0 0 0 0 0 0 0 0 0 0 0 0 0 0 0 0 0 0 0 0 0 0 0 0 0 0 0 0 0 0 0
4.75588 2.81993e-10 2.3449e-10 4.75026e-11 0.168453 0.056015 0 0 0 0 0 0 0 0 0 0 0 0 0 0 0 0 0 0 0 0 0 0 0 0 0 0 0 0 0 0 0 0 0 0 0 0 0 0 0 0 0 0
5 2.5778e-10 2.18718e-10 3.90616e-11 0.151531 0.050955 0 0 0 0 0 0 0 0 0 0 0 0 0 0 0 0 0 0 0 0 0 0 0 0 0 0 0 0 0 0 0 0 0 0 1.4013e-45 0 2.8026e-45 0 8.40779e-45 0 2.52234e-44 0
5.25665 2.36318e-10 2.04212e-10 3.21063e-11 0.135861 0.0463371 0 0 0 0 0 0 0 0 0 0 0 0 0 0 0 0 0 0 0 0 0 0 0 0 0 0 0 0 2.8026e-45 0 9.80909e-45 0 3.78351e-44 0 1.26117e-43 0 3.93765e-43 0 1.12244e-42 0 3.00999e-42 0
5.52648 2.17315e-10 1.90929e-10 2.63859e-11 0.121418 0.0421298 0 0 0 0 0 0 0 0 0 0 0 0 0 0 0 0 0 0 0 0 0 0 2.8026e-45 0 1.54143e-44 0 7.42688e-44 0 3.25101e-43 0 1.24575e-42 0 4.41409e-42 0 1.39373e-41 0 4.11239e-41 0 1.1156e-40 0 2.85045e-40 0
5.81015 2.00668e-10 1.79005e-10 2.16638e-11 0.107958 0.0382837 0 0 0 0 0 0 0 0 0 0 0 0 0 0 0 0 0 0 5.60519e-45 0 4.90454e-44 0 3.27904e-43 0 1.80067e-42 0 8.34613e-42 0 3.38876e-41 0 1.21609e-40 0 4.05149e-40 0 1.20921e-39 0 3.38448e-39 0 8.74466e-39 0 2.1343e-38 0
6.10839 1.89289e-10 1.71525e-10 1.77637e-11 0.0938441 0.034749 0 0 0 0 0 0 0 0 0 0 0 0 0 0 5.60519e-45 0 7.42688e-44 0 7.553e-43 0 5.6122e-42 0 3.44453e-41 0 1.73715e-40 0 7.47335e-40 0 2.83361e-39 0 9.55353e-39 0 3.00121e-38 0 8.49174e-38 0 2.26029e-37 0 5.57553e-37 0 1.30281e-36 0
6.42193 1.74721e-10 1.59973e-10 1.47488e-11 0.0844131 0.0317493 0 0 0 0 0 0 0 0 0 0 1.4013e-45 0 2.94273e-44 0 6.17973e-43 0 8.03925e-42 0 7.29404e-41 0 4.91542e-40 0 2.7613e-39 0 1.28682e-38 0 5.15535e-38 0 1.83157e-37 0 5.81937e-37 0 1.72877e-36 0 4.64925e-36 0 1.17975e-35 0 2.78464e-35 0 6.24261e-35 0
6.75157 1.62345e-10 1.50284e-10 1.20608e-11 0.0742909 0.0288142 0 0 0 0 0 0 0 0 1.4013e-45 0 9.80909e-44 0 3.35751e-42 0 5.98256e-41 0 6.861e-40 0 5.58999e-39 0 3.43203e-38 0 1.77218e-37 0 7.66089e-37 0 2.86807e-36 0 9.57798e-36 0 2.87617e-35 0 8.10192e-35 0 2.07615e-34 0 5.0341e-34 0 1.13943e-33 0 2.45566e-33 0
7.09813 1.53713e-10 1.43754e-10 9.95906e-12 0.06479 0.0261609 0 0 0 0 0 0 0 0 1.47136e-43 0 1.04579e-41 0 2.99921e-40 0 4.64238e-39 0 4.72619e-38 0 3.47581e-37 0 1.95306e-36 0 9.30815e-36 0 3.74622e-35 0 1.31496e-34 0 4.14027e-34 0 1.1783e-33 0 3.15549e-33 0 7.72297e-33 0 1.79336e-32 0 3.90044e-32 0 8.09676e-32 0
7.46248 1.44718e-10 1.35979e-10 8.73831e-12 0.0603818 0.0242874 0 0 0 0 0 0 6.02558e-44 0 1.4935e-41 0 8.61333e-40 0 2.0969e-38 0 2.83938e-37 0 2.58102e-36 0 1.72197e-35 0 8.89376e-35 0 3.92756e-34 0 1.47682e-33 0 4.87554e-33 0 1.4515e-32 0 3.92524e-32 0 1.00183e-31 0 2.3471e-31 0 5.23058e-31 0 1.09527e-30 0 2.19397e-30 0
7.84553 1.35087e-10 1.27608e-10 7.47891e-12 0.0553638 0.0223426 0 0 0 0 2.8026e-45 0 6.21476e-42 0 1.1815e-39 0 5.59035e-38 0 1.16454e-36 0 1.38851e-35 0 1.13322e-34 0 6.89143e-34 0 3.28513e-33 0 1.34927e-32 0 4.75575e-32 0 1.48111e-31 0 4.18073e-31 0 1.07697e-30 0 2.62581e-30 0 5.90133e-30 0 1.26467e-29 0 2.55433e-29 0 4.94603e-29 0
8.24824 1.24964e-10 1.18809e-10 6.15462e-12 0.0492513 0.0202984 0 0 0 0 2.76056e-43 0 5.01368e-40 0 7.37758e-38 0 2.89161e-36 0 5.19362e-35 0 5.4867e-34 0 4.04167e-33 0 2.25049e-32 0 9.94045e-32 0 3.81061e-31 0 1.263e-30 0 3.72122e-30 0 9.98492e-30 0 2.45603e-29 0 5.73316e-29 0 1.23854e-28 0 2.55726e-28 0 4.99078e-28 0 9.35702e-28 0
8.67162 1.14321e-10 1.09558e-10 4.76261e-12 0.04166 0.0181486 0 0 0 0 2.53018e-41 0 3.18283e-38 0 3.67056e-36 0 1.20274e-34 0 1.87612e-33 0 1.76649e-32 0 1.18037e-31 0 6.04403e-31 0 2.48289e-30 0 8.91361e-30 0 2.78646e-29 0 7.78794e-29 0 1.99138e-28 0 4.68769e-28 0 1.04989e-27 0 2.18437e-27 0 4.3533e-27 0 8.22308e-27 0 1.49512e-26 0
9.11674 1.06797e-10 1.02808e-10 3.98871e-12 0.0373487 0.0166284 0 0 4.2039e-45 0 1.86079e-39 0 1.65202e-36 0 1.51099e-34 0 4.17552e-33 0 5.69572e-32 0 4.80677e-31 0 2.92742e-30 0 1.38408e-29 0 5.3068e-29 0 1.78989e-28 0 5.29247e-28 0 1.40681e-27 0 3.43604e-27 0 7.75729e-27 0 1.67031e-26 0 3.3531e-26 0 6.46124e-26 0 1.18316e-25 0 2.08934e-25 0
9.5847 1.00245e-10 9.68145e-11 3.43035e-12 0.0342197 0.0153037 0 0 4.87652e-43 0 1.09644e-37 0 6.98804e-35 0 5.1268e-33 0 1.2048e-31 0 1.4466e-30 0 1.10009e-29 0 6.13408e-29 0 2.68834e-28 0 9.65293e-28 0 3.06813e-27 0 8.60435e-27 0 2.18054e-26 0 5.09863e-26 0 1.10621e-25 0 2.29437e-25 0 4.45179e-25 0 8.30799e-25 0 1.47706e-24 0 2.53691e-24 0
10.0767 9.33582e-11 9.05147e-11 2.84346e-12 0.0304576 0.0139111 0 0 4.20418e-41 0 5.17754e-36 0 2.40753e-33 0 1.43213e-31 0 2.88477e-30 0 3.06789e-29 0 2.11301e-28 0 1.08339e-27 0 4.41763e-27 0 1.49025e-26 0 4.47664e-26 0 1.1938e-25 0 2.89108e-25 0 6.48542e-25 0 1.35488e-24 0 2.71179e-24 0 5.09415e-24 0 9.22155e-24 0 1.59406e-23 0 2.6665e-23 0
10.5939 8.61158e-11 8.38894e-11 2.22643e-12 0.0258539 0.0124474 8.40779e-45 0 2.84503e-39 0 1.97696e-34 0 6.81099e-32 0 3.31885e-30 0 5.77356e-29 0 5.4707e-28 0 3.42915e-27 0 1.62335e-26 0 6.18035e-26 0 1.96471e-25 0 5.59333e-25 0 1.42184e-24 0 3.29781e-24 0 7.11168e-24 0 1.43322e-23 0 2.77303e-23 0 5.05129e-23 0 8.88282e-23 0 1.49502e-22 0 2.43879e-22 0
11.1377 8.01892e-11 7.84076e-11 1.78162e-12 0.0222178 0.0112552 8.43582e-43 0 1.55551e-37 0 6.27166e-33 0 1.62449e-30 0 6.54773e-29 0 9.90793e-28 0 8.41204e-27 0 4.82087e-26 0 2.11535e-25 0 7.54461e-25 0 2.26673e-24 0 6.13178e-24 0 1.48931e-23 0 3.31528e-23 0 6.88608e-23 0 1.34107e-22 0 2.51247e-22 0 4.44459e-22 0 7.60346e-22 0 1.24758e-21 0 1.9871e-21 0
11.7094 7.58734e-11 7.4328e-11 1.54544e-12 0.0203686 0.0103954 6.85109e-41 0 6.98581e-36 0 1.67829e-31 0 3.31416e-29 0 1.11523e-27 0 1.47792e-26 0 1.13036e-25 0 5.94868e-25 0 2.4284e-24 0 8.13975e-24 0 2.31765e-23 0 5.97219e-23 0 1.38904e-22 0 2.9736e-22 0 5.95984e-22 0 1.12352e-21 0 2.04135e-21 0 3.512e-21 0 5.8526e-21 0 9.37357e-21 0 1.45944e-20 0
