# 2.3714e-05 0 113 : grain size, compostion index, size index
# Heating and cooling timescale: 0.00363973 498653
# Ratio of heating to cooling to determine stochastic cutoff: 100
# Equilibrium emission is recorded even for those grains in the stochastic regime.
# Emission spectrum was computed for: 
# Type: IRSF
# Scales: 0.25 0.5 1 1.5 2 2.5 3 3.5 4 4.5 5 5.5 6 6.5 7 7.5 8 8.5 9 9.5 10
# StochasticallyHeated: 0 0 0 0 0 0 0 0 0 0 0 0 0 0 0 0 0 0 0 0 0
# Temperature: -1
# Wavelength  CExt  CAbs  CSca  Albedo G EqEm1 StEm1 EqEm2 StEm2 EqEm3 StEm3 EqEm4 StEm4 EqEm5 StEm5 EqEm6 StEm6 EqEm7 StEm7 EqEm8 StEm8 EqEm9 StEm9 EqEm10 StEm10 EqEm11 StEm11 EqEm12 StEm12 EqEm13 StEm13 EqEm14 StEm14 EqEm15 StEm15 EqEm16 StEm16 EqEm17 StEm17 EqEm18 StEm18 EqEm19 StEm19 EqEm20 StEm20 EqEm21 StEm21
0.05 1.03788e-09 4.20975e-10 6.169e-10 0.594388 0.00576547 0 0 0 0 0 0 0 0 0 0 0 0 0 0 0 0 0 0 0 0 0 0 0 0 0 0 0 0 0 0 0 0 0 0 0 0 0 0 0 0 0 0
0.0525665 1.14716e-09 4.65301e-10 6.81857e-10 0.594388 0.00637255 0 0 0 0 0 0 0 0 0 0 0 0 0 0 0 0 0 0 0 0 0 0 0 0 0 0 0 0 0 0 0 0 0 0 0 0 0 0 0 0 0 0
0.0552647 1.26795e-09 5.14295e-10 7.53653e-10 0.594388 0.00704355 0 0 0 0 0 0 0 0 0 0 0 0 0 0 0 0 0 0 0 0 0 0 0 0 0 0 0 0 0 0 0 0 0 0 0 0 0 0 0 0 0 0
0.0581015 1.40146e-09 5.68448e-10 8.33009e-10 0.594388 0.0077852 0 0 0 0 0 0 0 0 0 0 0 0 0 0 0 0 0 0 0 0 0 0 0 0 0 0 0 0 0 0 0 0 0 0 0 0 0 0 0 0 0 0
0.0610839 1.54902e-09 6.28303e-10 9.20721e-10 0.594388 0.00860494 0 0 0 0 0 0 0 0 0 0 0 0 0 0 0 0 0 0 0 0 0 0 0 0 0 0 0 0 0 0 0 0 0 0 0 0 0 0 0 0 0 0
0.0642193 1.71213e-09 6.9446e-10 1.01767e-09 0.594388 0.009511 0 0 0 0 0 0 0 0 0 0 0 0 0 0 0 0 0 0 0 0 0 0 0 0 0 0 0 0 0 0 0 0 0 0 0 0 0 0 0 0 0 0
0.0675157 1.89241e-09 7.67584e-10 1.12482e-09 0.594388 0.0105125 0 0 0 0 0 0 0 0 0 0 0 0 0 0 0 0 0 0 0 0 0 0 0 0 0 0 0 0 0 0 0 0 0 0 0 0 0 0 0 0 0 0
0.0709813 2.09167e-09 8.48406e-10 1.24326e-09 0.594388 0.0116194 0 0 0 0 0 0 0 0 0 0 0 0 0 0 0 0 0 0 0 0 0 0 0 0 0 0 0 0 0 0 0 0 0 0 0 0 0 0 0 0 0 0
0.0746248 2.31191e-09 9.37739e-10 1.37417e-09 0.594388 0.0128428 0 0 0 0 0 0 0 0 0 0 0 0 0 0 0 0 0 0 0 0 0 0 0 0 0 0 0 0 0 0 0 0 0 0 0 0 0 0 0 0 0 0
0.0784553 2.55534e-09 1.03648e-09 1.51887e-09 0.594388 0.0141951 0 0 0 0 0 0 0 0 0 0 0 0 0 0 0 0 0 0 0 0 0 0 0 0 0 0 0 0 0 0 0 0 0 0 0 0 0 0 0 0 0 0
0.0824824 2.82441e-09 1.14561e-09 1.67879e-09 0.594388 0.0156898 0 0 0 0 0 0 0 0 0 0 0 0 0 0 0 0 0 0 0 0 0 0 0 0 0 0 0 0 0 0 0 0 0 0 0 0 0 0 0 0 0 0
0.0867162 3.12181e-09 1.26624e-09 1.85556e-09 0.594388 0.0173419 0 0 0 0 0 0 0 0 0 0 0 0 0 0 0 0 0 0 0 0 0 0 0 0 0 0 0 0 0 0 0 0 0 0 0 0 0 0 0 0 0 0
0.0911674 3.45052e-09 1.39957e-09 2.05095e-09 0.594388 0.0191679 0 0 0 0 0 0 0 0 0 0 0 0 0 0 0 0 0 0 0 0 0 0 0 0 0 0 0 0 0 0 0 0 0 0 0 0 0 0 0 0 0 0
0.095847 3.81384e-09 1.54694e-09 2.2669e-09 0.594388 0.0211862 0 0 0 0 0 0 0 0 0 0 0 0 0 0 0 0 0 0 0 0 0 0 0 0 0 0 0 0 0 0 0 0 0 0 0 0 0 0 0 0 0 0
0.100767 4.14812e-09 1.69507e-09 2.45305e-09 0.591364 0.0235692 0 0 0 0 0 0 0 0 0 0 0 0 0 0 0 0 0 0 0 0 0 0 0 0 0 0 0 0 0 0 0 0 0 0 0 0 0 0 0 0 0 0
0.105939 4.13883e-09 1.764e-09 2.37484e-09 0.573794 0.0256046 0 0 0 0 0 0 0 0 0 0 0 0 0 0 0 0 0 0 0 0 0 0 0 0 0 0 0 0 0 0 0 0 0 0 0 0 0 0 0 0 0 0
0.111377 4.1476e-09 1.78717e-09 2.36043e-09 0.569108 0.0289403 0 0 0 0 0 0 0 0 0 0 0 0 0 0 0 0 0 0 0 0 0 0 0 0 0 0 0 0 0 0 0 0 0 0 0 0 0 0 0 0 0 0
0.117094 4.14465e-09 1.84889e-09 2.29576e-09 0.55391 0.0274507 0 0 0 0 0 0 0 0 0 0 0 0 0 0 0 0 0 0 0 0 0 0 0 0 0 0 0 0 0 0 0 0 0 0 0 0 0 0 0 0 0 0
0.123105 4.15729e-09 1.93007e-09 2.22721e-09 0.535738 0.0236555 0 0 0 0 0 0 0 0 0 0 0 0 0 0 0 0 0 0 0 0 0 0 0 0 0 0 0 0 0 0 0 0 0 0 0 0 0 0 0 0 0 0
0.129424 4.17656e-09 1.99995e-09 2.17661e-09 0.521149 0.0199126 0 0 0 0 0 0 0 0 0 0 0 0 0 0 0 0 0 0 0 0 0 0 0 0 0 0 0 0 0 0 0 0 0 0 0 0 0 0 0 0 0 0
0.136067 4.19418e-09 2.05909e-09 2.13508e-09 0.509059 0.0168557 0 0 0 0 0 0 0 0 0 0 0 0 0 0 0 0 0 0 0 0 0 0 0 0 0 0 0 0 0 0 0 0 0 0 0 0 0 0 0 0 0 0
0.143051 4.20838e-09 2.11052e-09 2.09785e-09 0.498495 0.0143876 0 0 0 0 0 0 0 0 0 0 0 0 0 0 0 0 0 0 0 0 0 0 0 0 0 0 0 0 0 0 0 0 0 0 0 0 0 0 0 0 0 0
0.150394 4.20477e-09 2.14901e-09 2.05576e-09 0.488911 0.0122986 0 0 0 0 0 0 0 0 0 0 0 0 0 0 0 0 0 0 0 0 0 0 0 0 0 0 0 0 0 0 0 0 0 0 0 0 0 0 0 0 0 0
0.158114 4.16707e-09 2.1557e-09 2.01136e-09 0.482681 0.01055 0 0 0 0 0 0 0 0 0 0 0 0 0 0 0 0 0 0 0 0 0 0 0 0 0 0 0 0 0 0 0 0 0 0 0 0 0 0 0 0 0 0
0.16623 4.09308e-09 2.12673e-09 1.96635e-09 0.480408 0.00908216 0 0 0 0 0 0 0 0 0 0 0 0 0 0 0 0 0 0 0 0 0 0 0 0 0 0 0 0 0 0 0 0 0 0 0 0 0 0 0 0 0 0
0.174762 4.00573e-09 2.07729e-09 1.92845e-09 0.481422 0.00782097 0 0 0 0 0 0 0 0 0 0 0 0 0 0 0 0 0 0 0 0 0 0 0 0 0 0 0 0 0 0 0 0 0 0 0 0 0 0 0 0 0 0
0.183733 3.9869e-09 2.01326e-09 1.97364e-09 0.495032 0.00667218 0 0 0 0 0 0 0 0 0 0 0 0 0 0 0 0 0 0 0 0 0 0 0 0 0 0 0 0 0 0 0 0 0 0 0 0 0 0 0 0 0 0
0.193164 4.08147e-09 1.94106e-09 2.1404e-09 0.52442 0.00556038 0 0 0 0 0 0 0 0 0 0 0 0 0 0 0 0 0 0 0 0 0 0 0 0 0 0 0 0 0 0 0 0 0 0 0 0 0 0 0 0 0 0
0.203079 4.25814e-09 1.88156e-09 2.37657e-09 0.558125 0.00446034 0 0 0 0 0 0 0 0 0 0 0 0 0 0 0 0 0 0 0 0 0 0 0 0 0 0 0 0 0 0 0 0 0 0 0 0 0 0 0 0 0 0
0.213503 4.46817e-09 1.85416e-09 2.61401e-09 0.58503 0.00342932 0 0 0 0 0 0 0 0 0 0 0 0 0 0 0 0 0 0 0 0 0 0 0 0 0 0 0 0 0 0 0 0 0 0 0 0 0 0 0 0 0 0
0.224463 4.66329e-09 1.85496e-09 2.80832e-09 0.60222 0.00254317 0 0 0 0 0 0 0 0 0 0 0 0 0 0 0 0 0 0 0 0 0 0 0 0 0 0 0 0 0 0 0 0 0 0 0 0 0 0 0 0 0 0
0.235984 4.79182e-09 1.85668e-09 2.93514e-09 0.612531 0.00182186 0 0 0 0 0 0 0 0 0 0 0 0 0 0 0 0 0 0 0 0 0 0 0 0 0 0 0 0 0 0 0 0 0 0 0 0 0 0 0 0 0 0
0.248097 4.83157e-09 1.84618e-09 2.98538e-09 0.617891 0.00138916 0 0 0 0 0 0 0 0 0 0 0 0 0 0 0 0 0 0 0 0 0 0 0 0 0 0 0 0 0 0 0 0 0 0 0 0 0 0 0 0 0 0
0.260832 4.79512e-09 1.83594e-09 2.95918e-09 0.617123 0.00141961 0 0 0 0 0 0 0 0 0 0 0 0 0 0 0 0 0 0 0 0 0 0 0 0 0 0 0 0 0 0 0 0 0 0 0 0 0 0 0 0 0 0
0.274221 4.72754e-09 1.85655e-09 2.87099e-09 0.60729 0.00187131 0 0 0 0 0 0 0 0 0 0 0 0 0 0 0 0 0 0 0 0 0 0 0 0 0 0 0 0 0 0 0 0 0 0 0 0 0 0 0 0 0 0
0.288297 4.6723e-09 1.91574e-09 2.75657e-09 0.58998 0.00251556 0 0 0 0 0 0 0 0 0 0 0 0 0 0 0 0 0 0 0 0 0 0 0 0 0 0 0 0 0 0 0 0 0 0 0 0 0 0 0 0 0 0
0.303095 4.65555e-09 1.9987e-09 2.65685e-09 0.570685 0.0028362 0 0 0 0 0 0 0 0 0 0 0 0 0 0 0 0 0 0 0 0 0 0 0 0 0 0 0 0 0 0 0 0 0 0 0 0 0 0 0 0 0 0
0.318653 4.66846e-09 2.08428e-09 2.58418e-09 0.553539 0.00297223 0 0 0 0 0 0 0 0 0 0 0 0 0 0 0 0 0 0 0 0 0 0 0 0 0 0 0 0 0 0 0 0 0 0 0 0 0 0 0 0 0 0
0.335009 4.6947e-09 2.15881e-09 2.53588e-09 0.540159 0.00293231 0 0 0 0 0 0 0 0 0 0 0 0 0 0 0 0 0 0 0 0 0 0 0 0 0 0 0 0 0 0 0 0 0 0 0 0 0 0 0 0 0 0
0.352205 4.72645e-09 2.21849e-09 2.50796e-09 0.530622 0.00278811 0 0 0 0 0 0 0 0 0 0 0 0 0 0 0 0 0 0 0 0 0 0 0 0 0 0 0 0 0 0 0 0 0 0 0 0 0 0 0 0 0 0
0.370284 4.76193e-09 2.26652e-09 2.49541e-09 0.524033 0.00261033 0 0 0 0 0 0 0 0 0 0 0 0 0 0 0 0 0 0 0 0 0 0 0 0 0 0 0 0 0 0 0 0 0 0 0 0 0 0 0 0 0 0
0.389291 4.79981e-09 2.30731e-09 2.49249e-09 0.519291 0.00243645 0 0 0 0 0 0 0 0 0 0 0 0 0 0 0 0 0 0 0 0 0 0 0 0 0 0 0 0 0 0 0 0 0 0 0 0 0 0 0 0 0 0
0.409273 4.83704e-09 2.3429e-09 2.49414e-09 0.515633 0.00226652 0 0 0 0 0 0 0 0 0 0 0 0 0 0 0 0 0 0 0 0 0 0 0 0 0 0 0 0 0 0 0 0 0 0 0 0 0 0 0 0 0 0
0.430281 4.87063e-09 2.37314e-09 2.49749e-09 0.512765 0.00210471 0 0 0 0 0 0 0 0 0 0 0 0 0 0 0 0 0 0 0 0 0 0 0 0 0 0 0 0 0 0 0 0 0 0 0 0 0 0 0 0 0 0
0.452368 4.90185e-09 2.39968e-09 2.50218e-09 0.510455 0.00193723 0 0 0 0 0 0 0 0 0 0 0 0 0 0 0 0 0 0 0 0 0 0 0 0 0 0 0 0 0 0 0 0 0 0 0 0 0 0 0 0 0 0
0.475588 4.93586e-09 2.42777e-09 2.50808e-09 0.508135 0.00177642 0 0 0 0 0 0 0 0 0 0 0 0 0 0 0 0 0 0 0 0 0 0 0 0 0 0 0 0 0 0 0 0 0 0 0 0 0 0 0 0 0 0
0.5 4.97572e-09 2.46188e-09 2.51384e-09 0.505221 0.00162159 0 0 0 0 0 0 0 0 0 0 0 0 0 0 0 0 0 0 0 0 0 0 0 0 0 0 0 0 0 0 0 0 0 0 0 0 0 0 0 0 0 0
0.525665 5.01849e-09 2.50155e-09 2.51694e-09 0.501533 0.0014751 0 0 0 0 0 0 0 0 0 0 0 0 0 0 0 0 0 0 0 0 0 0 0 0 0 0 0 0 0 0 0 0 0 0 0 0 0 0 0 0 0 0
0.552648 5.05771e-09 2.54108e-09 2.51663e-09 0.497584 0.00134175 0 0 0 0 0 0 0 0 0 0 0 0 0 0 0 0 0 0 0 0 0 0 0 0 0 0 0 0 0 0 0 0 0 0 0 0 0 0 0 0 0 0
0.581015 5.08845e-09 2.57372e-09 2.51473e-09 0.494203 0.00121775 0 0 0 0 0 0 0 0 0 0 0 0 0 0 0 0 0 0 0 0 0 0 0 0 0 0 0 0 0 0 0 0 0 0 0 0 0 0 0 0 0 0
0.610839 5.11459e-09 2.59794e-09 2.51666e-09 0.492054 0.00110516 0 0 0 0 0 0 0 0 0 0 0 0 0 0 0 0 0 0 0 0 0 0 0 0 0 0 0 0 0 0 0 0 0 0 0 0 0 0 0 0 0 0
0.642193 5.14801e-09 2.61947e-09 2.52854e-09 0.491168 0.00100302 0 0 0 0 0 0 0 0 0 0 0 0 0 0 0 0 0 0 0 0 0 0 0 0 0 0 0 0 0 0 0 0 0 0 0 0 0 0 0 0 0 0
0.675157 5.19931e-09 2.64739e-09 2.55193e-09 0.49082 0.000910957 0 0 0 0 0 0 0 0 0 0 0 0 0 0 0 0 0 0 0 0 0 0 0 0 0 0 0 0 0 0 0 0 0 0 0 0 0 0 0 0 0 0
0.709813 5.26896e-09 2.68634e-09 2.58262e-09 0.490157 0.00082817 0 0 0 0 0 0 0 0 0 0 0 0 0 0 0 0 0 0 0 0 0 0 0 0 0 0 0 0 0 0 0 0 0 0 0 0 0 0 0 0 0 0
0.746248 5.34454e-09 2.73308e-09 2.61146e-09 0.488621 0.000754183 0 0 0 0 0 0 0 0 0 0 0 0 0 0 0 0 0 0 0 0 0 0 0 0 0 0 0 0 0 0 0 0 0 0 0 0 0 0 0 0 0 0
0.784553 5.40691e-09 2.77728e-09 2.62963e-09 0.486347 0.000686995 0 0 0 0 0 0 0 0 0 0 0 0 0 0 0 0 0 0 0 0 0 0 0 0 0 0 0 0 0 0 0 0 0 0 0 0 0 0 0 0 0 0
0.824824 5.44122e-09 2.80744e-09 2.63377e-09 0.484041 0.000626788 0 0 0 0 0 0 0 0 0 0 0 0 0 0 0 0 0 0 0 0 0 0 0 0 0 0 0 0 0 0 0 0 0 0 0 0 0 0 0 0 0 0
0.867162 5.44409e-09 2.81641e-09 2.62768e-09 0.482667 0.000572518 0 0 0 0 0 0 0 0 0 0 0 0 0 0 0 0 0 0 0 0 0 0 0 0 0 0 0 0 0 0 0 0 0 0 0 0 0 0 0 0 0 0
0.911674 5.42765e-09 2.80596e-09 2.62169e-09 0.483024 0.000523427 0 0 0 0 0 0 0 0 0 0 0 0 0 0 0 0 0 0 0 0 0 0 0 0 0 0 0 0 0 0 0 0 0 0 0 0 0 0 0 0 0 0
0.95847 5.41215e-09 2.7846e-09 2.62755e-09 0.485491 0.00047944 0 0 0 0 0 0 0 0 0 0 0 0 0 0 0 0 0 0 0 0 0 0 0 0 0 0 0 0 0 0 0 0 0 0 0 0 0 0 0 0 0 0
1.00767 5.41799e-09 2.76491e-09 2.65308e-09 0.48968 0.0004395 0 0 0 0 0 0 0 0 0 0 0 0 0 0 0 0 0 0 0 0 0 0 0 0 0 0 0 0 0 0 0 0 0 0 0 0 0 0 0 0 0 0
1.05939 5.45708e-09 2.7574e-09 2.69968e-09 0.494712 0.000403275 0 0 0 0 0 0 0 0 0 0 0 0 0 0 0 0 0 0 0 0 0 0 0 0 0 0 0 0 0 0 0 0 0 0 0 0 0 0 0 0 0 0
1.11377 5.53212e-09 2.76867e-09 2.76344e-09 0.499528 0.000370298 0 0 0 0 0 0 0 0 0 0 0 0 0 0 0 0 0 0 0 0 0 0 0 0 0 0 0 0 0 0 0 0 0 0 0 0 0 0 0 0 0 0
1.17094 5.63425e-09 2.79966e-09 2.83458e-09 0.503099 0.000339515 0 0 0 0 0 0 0 0 0 0 0 0 0 0 0 0 0 0 0 0 0 0 0 0 0 0 0 0 0 0 0 0 0 0 0 0 0 0 0 0 0 0
1.23105 5.74887e-09 2.84724e-09 2.90163e-09 0.50473 0.000311294 0 0 0 0 0 0 0 0 0 0 0 0 0 0 0 0 0 0 0 0 0 0 0 0 0 0 0 0 0 0 0 0 0 0 0 0 0 0 0 0 0 0
1.29424 5.85521e-09 2.90478e-09 2.95043e-09 0.503898 0.000285362 0 0 0 0 0 0 0 0 0 0 0 0 0 0 0 0 0 0 0 0 0 0 0 0 0 0 0 0 0 0 0 0 0 0 0 0 0 0 0 0 0 0
1.36067 5.9298e-09 2.96257e-09 2.96722e-09 0.500392 0.000261742 0 0 0 0 0 0 0 0 0 0 0 0 0 0 0 0 0 0 0 0 0 0 0 0 0 0 0 0 0 0 0 0 0 0 0 0 0 0 0 0 0 0
1.43051 5.94748e-09 3.00949e-09 2.93799e-09 0.493989 0.000240209 0 0 0 0 0 0 0 0 0 0 0 0 0 0 0 0 0 0 0 0 0 0 0 0 0 0 0 0 0 0 0 0 0 0 0 0 0 0 0 0 0 0
1.50394 5.88869e-09 3.03441e-09 2.85427e-09 0.484705 0.000220279 0 0 0 0 0 0 0 0 0 0 0 0 0 0 0 0 0 0 0 0 0 0 0 0 0 0 0 0 0 0 0 0 0 0 0 0 0 0 0 0 0 0
1.58114 5.74063e-09 3.02809e-09 2.71254e-09 0.472516 0.000201732 0 0 0 0 0 0 0 0 0 0 0 0 0 0 0 0 0 0 0 0 0 0 0 0 0 0 0 0 0 0 0 0 0 0 0 0 0 0 0 0 0 0
1.6623 5.50096e-09 2.98438e-09 2.51658e-09 0.45748 0.000184534 0 0 0 0 0 0 0 0 0 0 0 0 0 0 0 0 0 0 0 0 0 0 0 0 0 0 0 0 0 0 0 0 0 0 0 0 0 0 0 0 0 0
1.74763 5.18229e-09 2.90305e-09 2.27924e-09 0.439813 0.000169005 0 0 0 0 0 0 0 0 0 0 0 0 0 0 0 0 0 0 0 0 0 0 0 0 0 0 0 0 0 0 0 0 0 0 0 0 0 0 0 0 0 0
1.83733 4.80333e-09 2.78699e-09 2.01633e-09 0.419778 0.000154804 0 0 0 0 0 0 0 0 0 0 0 0 0 0 0 0 0 0 0 0 0 0 0 0 0 0 0 0 0 0 0 0 0 0 0 0 0 0 0 0 0 0
1.93164 4.3893e-09 2.64319e-09 1.74611e-09 0.39781 0.000141793 0 0 0 0 0 0 0 0 0 0 0 0 0 0 0 0 0 0 0 0 0 0 0 0 0 0 0 0 0 0 0 0 0 0 0 0 0 0 0 0 0 0
2.03079 3.96383e-09 2.47931e-09 1.48452e-09 0.374517 0.000129725 0 0 0 0 0 0 0 0 0 0 0 0 0 0 0 0 0 0 0 0 0 0 0 0 0 0 0 0 0 0 0 0 0 0 0 0 0 0 0 0 0 0
2.13503 3.5457e-09 2.30283e-09 1.24287e-09 0.35053 0.000118657 0 0 0 0 0 0 0 0 0 0 0 0 0 0 0 0 0 0 0 0 0 0 0 0 0 0 0 0 0 0 0 0 0 0 0 0 0 0 0 0 0 0
2.24463 3.1482e-09 2.12023e-09 1.02797e-09 0.326525 0.000108569 0 0 0 0 0 0 0 0 0 0 0 0 0 0 0 0 0 0 0 0 0 0 0 0 0 0 0 0 0 0 0 0 0 0 0 0 0 0 0 0 0 0
2.35984 2.77876e-09 1.93647e-09 8.4229e-10 0.303117 9.92926e-05 0 0 0 0 0 0 0 0 0 0 0 0 0 0 0 0 0 0 0 0 0 0 0 0 0 0 0 0 0 0 0 0 0 0 0 0 0 0 0 0 0 0
2.48097 2.44057e-09 1.75524e-09 6.85337e-10 0.28081 9.07218e-05 0 0 0 0 0 0 0 0 0 0 0 0 0 0 0 0 0 0 0 0 0 0 0 0 0 0 0 0 0 0 0 0 0 0 0 0 0 0 0 0 0 0
2.60832 2.13467e-09 1.57974e-09 5.54927e-10 0.259959 8.27967e-05 0 0 0 0 0 0 0 0 0 0 0 0 0 0 0 0 0 0 0 0 0 0 0 0 0 0 0 0 0 0 0 0 0 0 0 0 0 0 0 0 0 0
2.74221 1.86012e-09 1.41223e-09 4.47885e-10 0.240783 7.55862e-05 0 0 0 0 0 0 0 0 0 0 0 0 0 0 0 0 0 0 0 0 0 0 0 0 0 0 0 0 0 0 0 0 0 0 0 0 0 0 0 0 0 0
2.88297 1.61525e-09 1.25458e-09 3.60672e-10 0.223292 6.90729e-05 0 0 0 0 0 0 0 0 0 0 0 0 0 0 0 0 0 0 0 0 0 0 0 0 0 0 0 0 0 0 0 0 0 0 0 0 0 0 0 0 0 0
3.03095 1.3986e-09 1.10839e-09 2.9021e-10 0.2075 6.31538e-05 0 0 0 0 0 0 0 0 0 0 0 0 0 0 0 0 0 0 0 0 0 0 0 0 0 0 0 0 0 0 0 0 0 0 0 0 0 0 0 0 0 0
3.18653 1.2077e-09 9.74309e-10 2.33395e-10 0.193255 5.76567e-05 0 0 0 0 0 0 0 0 0 0 0 0 0 0 0 0 0 0 0 0 0 0 0 0 0 0 0 0 0 0 0 0 0 0 0 0 0 0 0 0 0 0
3.35009 1.04077e-09 8.53025e-10 1.87742e-10 0.180388 5.2603e-05 0 0 0 0 0 0 0 0 0 0 0 0 0 0 0 0 0 0 0 0 0 0 0 0 0 0 0 0 0 0 0 0 0 0 0 0 0 0 0 0 0 0
3.52205 8.9558e-10 7.44466e-10 1.51114e-10 0.168733 4.80102e-05 0 0 0 0 0 0 0 0 0 0 0 0 0 0 0 0 0 0 0 0 0 0 0 0 0 0 0 0 0 0 0 0 0 0 0 0 0 0 0 0 0 0
3.70284 7.69915e-10 6.48184e-10 1.21731e-10 0.15811 4.38066e-05 0 0 0 0 0 0 0 0 0 0 0 0 0 0 0 0 0 0 0 0 0 0 0 0 0 0 0 0 0 0 0 0 0 0 0 0 0 0 0 0 0 0
3.89291 6.61666e-10 5.63515e-10 9.81513e-11 0.14834 3.9926e-05 0 0 0 0 0 0 0 0 0 0 0 0 0 0 0 0 0 0 0 0 0 0 0 0 0 0 0 0 0 0 0 0 0 0 0 0 0 0 0 0 0 0
4.09273 5.68818e-10 4.89585e-10 7.92323e-11 0.139293 3.62643e-05 0 0 0 0 0 0 0 0 0 0 0 0 0 0 0 0 0 0 0 0 0 0 0 0 0 0 0 0 0 0 0 0 0 0 0 0 0 0 0 0 0 0
4.30281 4.89387e-10 4.25357e-10 6.40304e-11 0.130838 3.29535e-05 0 0 0 0 0 0 0 0 0 0 0 0 0 0 0 0 0 0 0 0 0 0 0 0 0 0 0 0 0 0 0 0 0 0 0 0 0 0 0 0 0 0
4.52368 4.21636e-10 3.6983e-10 5.18058e-11 0.122868 2.99416e-05 0 0 0 0 0 0 0 0 0 0 0 0 0 0 0 0 0 0 0 0 0 0 0 0 0 0 0 0 0 0 0 0 0 0 0 0 0 0 1.4013e-45 0 1.4013e-45 0
4.75588 3.63909e-10 3.21947e-10 4.19624e-11 0.11531 2.71796e-05 0 0 0 0 0 0 0 0 0 0 0 0 0 0 0 0 0 0 0 0 0 0 0 0 0 0 0 0 0 0 1.4013e-45 0 4.2039e-45 0 1.12104e-44 0 3.50325e-44 0 9.94922e-44 0 2.64845e-43 0
5 3.14742e-10 2.80725e-10 3.40173e-11 0.10808 2.45398e-05 0 0 0 0 0 0 0 0 0 0 0 0 0 0 0 0 0 0 0 0 0 0 0 0 1.4013e-45 0 8.40779e-45 0 3.78351e-44 0 1.37327e-43 0 4.65231e-43 0 1.4083e-42 0 4.08058e-42 0 1.09133e-41 0 2.75579e-41 0
5.25665 2.7292e-10 2.45314e-10 2.76067e-11 0.101153 2.21678e-05 0 0 0 0 0 0 0 0 0 0 0 0 0 0 0 0 0 0 1.4013e-45 0 8.40779e-45 0 4.90454e-44 0 2.45227e-43 0 1.09021e-42 0 4.26836e-42 0 1.45623e-41 0 4.63564e-41 0 1.32973e-40 0 3.65925e-40 0 9.32673e-40 0 2.25093e-39 0
5.52648 2.37329e-10 2.14906e-10 2.24227e-11 0.0944796 2.00489e-05 0 0 0 0 0 0 0 0 0 0 0 0 0 0 1.4013e-45 0 1.54143e-44 0 1.37327e-43 0 9.40271e-43 0 5.41602e-42 0 2.48674e-41 0 1.02603e-40 0 3.75702e-40 0 1.20726e-39 0 3.63175e-39 0 9.89524e-39 0 2.59173e-38 0 6.31087e-38 0 1.45895e-37 0
5.81015 2.07023e-10 1.88797e-10 1.82266e-11 0.0880412 1.8115e-05 0 0 0 0 0 0 0 0 0 0 0 0 8.40779e-45 0 1.49939e-43 0 1.732e-42 0 1.40046e-41 0 8.77339e-41 0 4.63771e-40 0 1.97677e-39 0 7.61083e-39 0 2.61572e-38 0 7.93955e-38 0 2.26338e-37 0 5.8724e-37 0 1.46745e-36 0 3.4213e-36 0 7.59228e-36 0
6.10839 1.8133e-10 1.66497e-10 1.48324e-11 0.0817982 1.63023e-05 0 0 0 0 0 0 0 0 0 0 3.64338e-44 0 1.00473e-42 0 1.50906e-41 0 1.54534e-40 0 1.12814e-39 0 6.46199e-39 0 3.14918e-38 0 1.25057e-37 0 4.50815e-37 0 1.45875e-36 0 4.19412e-36 0 1.13603e-35 0 2.8134e-35 0 6.72295e-35 0 1.50397e-34 0 3.2101e-34 0
6.42193 1.57637e-10 1.45596e-10 1.20415e-11 0.0763873 1.48144e-05 0 0 0 0 0 0 0 0 7.00649e-44 0 3.78351e-42 0 8.96425e-41 0 1.17919e-39 0 1.0779e-38 0 7.14111e-38 0 3.75631e-37 0 1.69438e-36 0 6.29042e-36 0 2.13e-35 0 6.50822e-35 0 1.77717e-34 0 4.58512e-34 0 1.08633e-33 0 2.48782e-33 0 5.35089e-33 0 1.1006e-32 0
6.75157 1.39929e-10 1.30109e-10 9.82057e-12 0.0701823 1.32279e-05 0 0 0 0 0 0 4.34403e-44 0 7.11439e-42 0 3.17202e-40 0 6.43989e-39 0 7.46987e-38 0 6.12899e-37 0 3.7024e-36 0 1.79588e-35 0 7.52631e-35 0 2.62083e-34 0 8.36134e-34 0 2.41922e-33 0 6.28988e-33 0 1.54941e-32 0 3.51956e-32 0 7.74061e-32 0 1.60377e-31 0 3.18459e-31 0
7.09813 1.23824e-10 1.1582e-10 8.00348e-12 0.0646361 1.18448e-05 0 0 0 0 2.8026e-45 0 4.45893e-42 0 5.66004e-40 0 2.09669e-38 0 3.67483e-37 0 3.78183e-36 0 2.79994e-35 0 1.5492e-34 0 6.95693e-34 0 2.71856e-33 0 8.90718e-33 0 2.68521e-32 0 7.37649e-32 0 1.83045e-31 0 4.31484e-31 0 9.41652e-31 0 1.99281e-30 0 3.98461e-30 0 7.65159e-30 0
7.46248 1.09959e-10 1.03434e-10 6.52502e-12 0.0593404 1.05694e-05 0 0 0 0 3.69943e-43 0 3.57681e-40 0 3.58399e-38 0 1.11299e-36 0 1.69618e-35 0 1.55777e-34 0 1.04593e-33 0 5.32335e-33 0 2.22151e-32 0 8.12212e-32 0 2.51134e-31 0 7.17375e-31 0 1.87582e-30 0 4.45273e-30 0 1.00659e-29 0 2.1146e-29 0 4.31428e-29 0 8.33944e-29 0 1.5512e-28 0
7.84553 9.80297e-11 9.27075e-11 5.32217e-12 0.0542914 9.34187e-06 0 0 0 0 3.30889e-41 0 2.28373e-38 0 1.82737e-36 0 4.79843e-35 0 6.40208e-34 0 5.27636e-33 0 3.22815e-32 0 1.51752e-31 0 5.90613e-31 0 2.02692e-30 0 5.93113e-30 0 1.60961e-29 0 4.01591e-29 0 9.13881e-29 0 1.98527e-28 0 4.02215e-28 0 7.92533e-28 0 1.48345e-27 0 2.67696e-27 0
8.24824 8.77396e-11 8.33971e-11 4.34258e-12 0.0494939 8.19911e-06 0 0 2.10195e-44 0 2.34027e-39 0 1.17386e-36 0 7.5836e-35 0 1.69767e-33 0 1.9959e-32 0 1.48398e-31 0 8.31077e-31 0 3.62245e-30 0 1.31934e-29 0 4.26327e-29 0 1.1838e-28 0 3.0598e-28 0 7.30078e-28 0 1.59602e-27 0 3.33826e-27 0 6.53411e-27 0 1.24556e-26 0 2.26113e-26 0 3.96442e-26 0
8.67162 7.88472e-11 7.53026e-11 3.54464e-12 0.0449557 7.20916e-06 0 0 2.0487e-42 0 1.32621e-37 0 4.91046e-35 0 2.58819e-33 0 4.9781e-32 0 5.1891e-31 0 3.49818e-30 0 1.80105e-29 0 7.30585e-29 0 2.49814e-28 0 7.62313e-28 0 2.01378e-27 0 4.96926e-27 0 1.13639e-26 0 2.39119e-26 0 4.82445e-26 0 9.13848e-26 0 1.688e-25 0 2.97639e-25 0 5.07736e-25 0
9.11674 7.1146e-11 6.82517e-11 2.89429e-12 0.0406811 6.32492e-06 1.4013e-45 0 1.61504e-40 0 6.08872e-36 0 1.689e-33 0 7.3356e-32 0 1.22126e-30 0 1.13536e-29 0 6.97302e-29 0 3.31403e-28 0 1.25548e-27 0 4.04285e-27 0 1.16828e-26 0 2.94326e-26 0 6.94952e-26 0 1.52634e-25 0 3.09716e-25 0 6.0383e-25 0 1.10865e-24 0 1.98739e-24 0 3.40858e-24 0 5.66496e-24 0
9.5847 6.44583e-11 6.20944e-11 2.36387e-12 0.0366729 5.52644e-06 1.4013e-43 0 1.0154e-38 0 2.28847e-34 0 4.82354e-32 0 1.74264e-30 0 2.529e-29 0 2.10861e-28 0 1.18521e-27 0 5.22012e-27 0 1.85307e-26 0 5.63602e-26 0 1.54643e-25 0 3.72409e-25 0 8.43197e-25 0 1.78215e-24 0 3.49342e-24 0 6.59242e-24 0 1.17501e-23 0 2.04716e-23 0 3.41983e-23 0 5.54442e-23 0
10.0767 5.86493e-11 5.67179e-11 1.9314e-12 0.0329313 4.78203e-06 1.22137e-41 0 5.14872e-37 0 7.11344e-33 0 1.15463e-30 0 3.50126e-29 0 4.45907e-28 0 3.35214e-27 0 1.73186e-26 0 7.09515e-26 0 2.3676e-25 0 6.8203e-25 0 1.78139e-24 0 4.10973e-24 0 8.94117e-24 0 1.82196e-23 0 3.45602e-23 0 6.32272e-23 0 1.09559e-22 0 1.85774e-22 0 3.02662e-22 0 4.79251e-22 0
10.5939 5.35955e-11 5.20177e-11 1.57782e-12 0.0294395 4.06995e-06 8.49153e-40 0 2.12837e-35 0 1.8462e-31 0 2.33734e-29 0 6.00008e-28 0 6.74879e-27 0 4.59758e-26 0 2.1923e-25 0 8.3839e-25 0 2.6378e-24 0 7.21609e-24 0 1.79846e-23 0 3.98317e-23 0 8.3431e-23 0 1.64202e-22 0 3.01884e-22 0 5.36242e-22 0 9.0458e-22 0 1.49482e-21 0 2.378e-21 0 3.68189e-21 0
