# 0.00028184 0 156 : grain size, compostion index, size index
# Heating and cooling timescale: 3.42812e-05 6.74114e+09
# Ratio of heating to cooling to determine stochastic cutoff: 100
# Equilibrium emission is recorded even for those grains in the stochastic regime.
# Emission spectrum was computed for: 
# Type: IRSF
# Scales: 0.25 0.5 1 1.5 2 2.5 3 3.5 4 4.5 5 5.5 6 6.5 7 7.5 8 8.5 9 9.5 10
# StochasticallyHeated: 0 0 0 0 0 0 0 0 0 0 0 0 0 0 0 0 0 0 0 0 0
# Temperature: -1
# Wavelength  CExt  CAbs  CSca  Albedo G EqEm1 StEm1 EqEm2 StEm2 EqEm3 StEm3 EqEm4 StEm4 EqEm5 StEm5 EqEm6 StEm6 EqEm7 StEm7 EqEm8 StEm8 EqEm9 StEm9 EqEm10 StEm10 EqEm11 StEm11 EqEm12 StEm12 EqEm13 StEm13 EqEm14 StEm14 EqEm15 StEm15 EqEm16 StEm16 EqEm17 StEm17 EqEm18 StEm18 EqEm19 StEm19 EqEm20 StEm20 EqEm21 StEm21
0.05 1.2914e-07 4.714e-08 8.19998e-08 0.634969 0.00576547 0 0 0 0 0 0 0 0 0 0 0 0 0 0 0 0 0 0 0 0 0 0 0 0 0 0 0 0 0 0 0 0 0 0 0 0 0 0 0 0 0 0
0.0525665 1.42738e-07 5.21036e-08 9.0634e-08 0.634969 0.00637255 0 0 0 0 0 0 0 0 0 0 0 0 0 0 0 0 0 0 0 0 0 0 0 0 0 0 0 0 0 0 0 0 0 0 0 0 0 0 0 0 0 0
0.0552647 1.57767e-07 5.75898e-08 1.00177e-07 0.634969 0.00704355 0 0 0 0 0 0 0 0 0 0 0 0 0 0 0 0 0 0 0 0 0 0 0 0 0 0 0 0 0 0 0 0 0 0 0 0 0 0 0 0 0 0
0.0581015 1.74379e-07 6.36538e-08 1.10725e-07 0.634969 0.0077852 0 0 0 0 0 0 0 0 0 0 0 0 0 0 0 0 0 0 0 0 0 0 0 0 0 0 0 0 0 0 0 0 0 0 0 0 0 0 0 0 0 0
0.0610839 1.92741e-07 7.03562e-08 1.22384e-07 0.634969 0.00860494 0 0 0 0 0 0 0 0 0 0 0 0 0 0 0 0 0 0 0 0 0 0 0 0 0 0 0 0 0 0 0 0 0 0 0 0 0 0 0 0 0 0
0.0642193 2.13035e-07 7.77643e-08 1.35271e-07 0.634969 0.009511 0 0 0 0 0 0 0 0 0 0 0 0 0 0 0 0 0 0 0 0 0 0 0 0 0 0 0 0 0 0 0 0 0 0 0 0 0 0 0 0 0 0
0.0675157 2.35467e-07 8.59526e-08 1.49514e-07 0.634969 0.0105125 0 0 0 0 0 0 0 0 0 0 0 0 0 0 0 0 0 0 0 0 0 0 0 0 0 0 0 0 0 0 0 0 0 0 0 0 0 0 0 0 0 0
0.0709813 2.6026e-07 9.50029e-08 1.65257e-07 0.634969 0.0116194 0 0 0 0 0 0 0 0 0 0 0 0 0 0 0 0 0 0 0 0 0 0 0 0 0 0 0 0 0 0 0 0 0 0 0 0 0 0 0 0 0 0
0.0746248 2.87664e-07 1.05006e-07 1.82658e-07 0.634969 0.0128428 0 0 0 0 0 0 0 0 0 0 0 0 0 0 0 0 0 0 0 0 0 0 0 0 0 0 0 0 0 0 0 0 0 0 0 0 0 0 0 0 0 0
0.0784553 3.17954e-07 1.16063e-07 2.01891e-07 0.634969 0.0141951 0 0 0 0 0 0 0 0 0 0 0 0 0 0 0 0 0 0 0 0 0 0 0 0 0 0 0 0 0 0 0 0 0 0 0 0 0 0 0 0 0 0
0.0824824 3.51433e-07 1.28284e-07 2.23149e-07 0.634969 0.0156898 0 0 0 0 0 0 0 0 0 0 0 0 0 0 0 0 0 0 0 0 0 0 0 0 0 0 0 0 0 0 0 0 0 0 0 0 0 0 0 0 0 0
0.0867162 3.88437e-07 1.41792e-07 2.46646e-07 0.634969 0.0173419 0 0 0 0 0 0 0 0 0 0 0 0 0 0 0 0 0 0 0 0 0 0 0 0 0 0 0 0 0 0 0 0 0 0 0 0 0 0 0 0 0 0
0.0911674 4.29338e-07 1.56722e-07 2.72616e-07 0.634969 0.0191679 0 0 0 0 0 0 0 0 0 0 0 0 0 0 0 0 0 0 0 0 0 0 0 0 0 0 0 0 0 0 0 0 0 0 0 0 0 0 0 0 0 0
0.095847 4.74545e-07 1.73224e-07 3.01322e-07 0.634969 0.0211862 0 0 0 0 0 0 0 0 0 0 0 0 0 0 0 0 0 0 0 0 0 0 0 0 0 0 0 0 0 0 0 0 0 0 0 0 0 0 0 0 0 0
0.100767 5.16548e-07 1.90057e-07 3.26491e-07 0.632063 0.0235692 0 0 0 0 0 0 0 0 0 0 0 0 0 0 0 0 0 0 0 0 0 0 0 0 0 0 0 0 0 0 0 0 0 0 0 0 0 0 0 0 0 0
0.105939 5.1657e-07 1.98463e-07 3.18108e-07 0.615807 0.0256046 0 0 0 0 0 0 0 0 0 0 0 0 0 0 0 0 0 0 0 0 0 0 0 0 0 0 0 0 0 0 0 0 0 0 0 0 0 0 0 0 0 0
0.111377 5.16986e-07 2.00359e-07 3.16628e-07 0.612448 0.0289403 0 0 0 0 0 0 0 0 0 0 0 0 0 0 0 0 0 0 0 0 0 0 0 0 0 0 0 0 0 0 0 0 0 0 0 0 0 0 0 0 0 0
0.117094 5.16975e-07 2.07399e-07 3.09576e-07 0.598823 0.0274507 0 0 0 0 0 0 0 0 0 0 0 0 0 0 0 0 0 0 0 0 0 0 0 0 0 0 0 0 0 0 0 0 0 0 0 0 0 0 0 0 0 0
0.123105 5.17198e-07 2.15502e-07 3.01696e-07 0.583327 0.0236555 0 0 0 0 0 0 0 0 0 0 0 0 0 0 0 0 0 0 0 0 0 0 0 0 0 0 0 0 0 0 0 0 0 0 0 0 0 0 0 0 0 0
0.129424 5.17608e-07 2.21639e-07 2.95969e-07 0.571801 0.0199126 0 0 0 0 0 0 0 0 0 0 0 0 0 0 0 0 0 0 0 0 0 0 0 0 0 0 0 0 0 0 0 0 0 0 0 0 0 0 0 0 0 0
0.136067 5.18067e-07 2.26483e-07 2.91584e-07 0.562831 0.0168557 0 0 0 0 0 0 0 0 0 0 0 0 0 0 0 0 0 0 0 0 0 0 0 0 0 0 0 0 0 0 0 0 0 0 0 0 0 0 0 0 0 0
0.143051 5.18494e-07 2.30505e-07 2.87989e-07 0.555434 0.0143876 0 0 0 0 0 0 0 0 0 0 0 0 0 0 0 0 0 0 0 0 0 0 0 0 0 0 0 0 0 0 0 0 0 0 0 0 0 0 0 0 0 0
0.150394 5.18816e-07 2.33796e-07 2.85019e-07 0.549365 0.0122986 0 0 0 0 0 0 0 0 0 0 0 0 0 0 0 0 0 0 0 0 0 0 0 0 0 0 0 0 0 0 0 0 0 0 0 0 0 0 0 0 0 0
0.158114 5.18875e-07 2.35908e-07 2.82966e-07 0.545346 0.01055 0 0 0 0 0 0 0 0 0 0 0 0 0 0 0 0 0 0 0 0 0 0 0 0 0 0 0 0 0 0 0 0 0 0 0 0 0 0 0 0 0 0
0.16623 5.18713e-07 2.35792e-07 2.82921e-07 0.545428 0.00908216 0 0 0 0 0 0 0 0 0 0 0 0 0 0 0 0 0 0 0 0 0 0 0 0 0 0 0 0 0 0 0 0 0 0 0 0 0 0 0 0 0 0
0.174762 5.18661e-07 2.32412e-07 2.8625e-07 0.551901 0.00782097 0 0 0 0 0 0 0 0 0 0 0 0 0 0 0 0 0 0 0 0 0 0 0 0 0 0 0 0 0 0 0 0 0 0 0 0 0 0 0 0 0 0
0.183733 5.19214e-07 2.24673e-07 2.94541e-07 0.567282 0.00667218 0 0 0 0 0 0 0 0 0 0 0 0 0 0 0 0 0 0 0 0 0 0 0 0 0 0 0 0 0 0 0 0 0 0 0 0 0 0 0 0 0 0
0.193164 5.20843e-07 2.11441e-07 3.09403e-07 0.594042 0.00556038 0 0 0 0 0 0 0 0 0 0 0 0 0 0 0 0 0 0 0 0 0 0 0 0 0 0 0 0 0 0 0 0 0 0 0 0 0 0 0 0 0 0
0.203079 5.23406e-07 1.95138e-07 3.28268e-07 0.627177 0.00446034 0 0 0 0 0 0 0 0 0 0 0 0 0 0 0 0 0 0 0 0 0 0 0 0 0 0 0 0 0 0 0 0 0 0 0 0 0 0 0 0 0 0
0.213503 5.26509e-07 1.80315e-07 3.46194e-07 0.657528 0.00342932 0 0 0 0 0 0 0 0 0 0 0 0 0 0 0 0 0 0 0 0 0 0 0 0 0 0 0 0 0 0 0 0 0 0 0 0 0 0 0 0 0 0
0.224463 5.2993e-07 1.7013e-07 3.598e-07 0.678958 0.00254317 0 0 0 0 0 0 0 0 0 0 0 0 0 0 0 0 0 0 0 0 0 0 0 0 0 0 0 0 0 0 0 0 0 0 0 0 0 0 0 0 0 0
0.235984 5.33348e-07 1.65154e-07 3.68194e-07 0.690345 0.00182186 0 0 0 0 0 0 0 0 0 0 0 0 0 0 0 0 0 0 0 0 0 0 0 0 0 0 0 0 0 0 0 0 0 0 0 0 0 0 0 0 0 0
0.248097 5.36304e-07 1.64496e-07 3.71809e-07 0.69328 0.00138916 0 0 0 0 0 0 0 0 0 0 0 0 0 0 0 0 0 0 0 0 0 0 0 0 0 0 0 0 0 0 0 0 0 0 0 0 0 0 0 0 0 0
0.260832 5.37907e-07 1.67409e-07 3.70498e-07 0.688777 0.00141961 0 0 0 0 0 0 0 0 0 0 0 0 0 0 0 0 0 0 0 0 0 0 0 0 0 0 0 0 0 0 0 0 0 0 0 0 0 0 0 0 0 0
0.274221 5.3767e-07 1.73396e-07 3.64274e-07 0.677505 0.00187131 0 0 0 0 0 0 0 0 0 0 0 0 0 0 0 0 0 0 0 0 0 0 0 0 0 0 0 0 0 0 0 0 0 0 0 0 0 0 0 0 0 0
0.288297 5.36536e-07 1.8139e-07 3.55146e-07 0.661924 0.00251556 0 0 0 0 0 0 0 0 0 0 0 0 0 0 0 0 0 0 0 0 0 0 0 0 0 0 0 0 0 0 0 0 0 0 0 0 0 0 0 0 0 0
0.303095 5.35804e-07 1.89452e-07 3.46352e-07 0.646416 0.0028362 0 0 0 0 0 0 0 0 0 0 0 0 0 0 0 0 0 0 0 0 0 0 0 0 0 0 0 0 0 0 0 0 0 0 0 0 0 0 0 0 0 0
0.318653 5.35853e-07 1.96188e-07 3.39665e-07 0.633878 0.00297223 0 0 0 0 0 0 0 0 0 0 0 0 0 0 0 0 0 0 0 0 0 0 0 0 0 0 0 0 0 0 0 0 0 0 0 0 0 0 0 0 0 0
0.335009 5.3648e-07 2.01236e-07 3.35244e-07 0.624896 0.00293231 0 0 0 0 0 0 0 0 0 0 0 0 0 0 0 0 0 0 0 0 0 0 0 0 0 0 0 0 0 0 0 0 0 0 0 0 0 0 0 0 0 0
0.352205 5.37463e-07 2.04742e-07 3.32721e-07 0.619058 0.00278811 0 0 0 0 0 0 0 0 0 0 0 0 0 0 0 0 0 0 0 0 0 0 0 0 0 0 0 0 0 0 0 0 0 0 0 0 0 0 0 0 0 0
0.370284 5.38653e-07 2.0702e-07 3.31633e-07 0.61567 0.00261033 0 0 0 0 0 0 0 0 0 0 0 0 0 0 0 0 0 0 0 0 0 0 0 0 0 0 0 0 0 0 0 0 0 0 0 0 0 0 0 0 0 0
0.389291 5.39985e-07 2.08399e-07 3.31587e-07 0.614066 0.00243645 0 0 0 0 0 0 0 0 0 0 0 0 0 0 0 0 0 0 0 0 0 0 0 0 0 0 0 0 0 0 0 0 0 0 0 0 0 0 0 0 0 0
0.409273 5.41378e-07 2.09236e-07 3.32142e-07 0.613512 0.00226652 0 0 0 0 0 0 0 0 0 0 0 0 0 0 0 0 0 0 0 0 0 0 0 0 0 0 0 0 0 0 0 0 0 0 0 0 0 0 0 0 0 0
0.430281 5.42807e-07 2.09817e-07 3.3299e-07 0.613459 0.00210471 0 0 0 0 0 0 0 0 0 0 0 0 0 0 0 0 0 0 0 0 0 0 0 0 0 0 0 0 0 0 0 0 0 0 0 0 0 0 0 0 0 0
0.452368 5.44251e-07 2.10342e-07 3.33909e-07 0.61352 0.00193723 0 0 0 0 0 0 0 0 0 0 0 0 0 0 0 0 0 0 0 0 0 0 0 0 0 0 0 0 0 0 0 0 0 0 0 0 0 0 0 0 0 0
0.475588 5.45698e-07 2.10918e-07 3.34779e-07 0.613488 0.00177642 0 0 0 0 0 0 0 0 0 0 0 0 0 0 0 0 0 0 0 0 0 0 0 0 0 0 0 0 0 0 0 0 0 0 0 0 0 0 0 0 0 0
0.5 5.47176e-07 2.11583e-07 3.35593e-07 0.613318 0.00162159 0 0 0 0 0 0 0 0 0 0 0 0 0 0 0 0 0 0 0 0 0 0 0 0 0 0 0 0 0 0 0 0 0 0 0 0 0 0 0 0 0 0
0.525665 5.48686e-07 2.12321e-07 3.36365e-07 0.613038 0.0014751 0 0 0 0 0 0 0 0 0 0 0 0 0 0 0 0 0 0 0 0 0 0 0 0 0 0 0 0 0 0 0 0 0 0 0 0 0 0 0 0 0 0
0.552648 5.50261e-07 2.13103e-07 3.37158e-07 0.612723 0.00134175 0 0 0 0 0 0 0 0 0 0 0 0 0 0 0 0 0 0 0 0 0 0 0 0 0 0 0 0 0 0 0 0 0 0 0 0 0 0 0 0 0 0
0.581015 5.51895e-07 2.13886e-07 3.38009e-07 0.612451 0.00121775 0 0 0 0 0 0 0 0 0 0 0 0 0 0 0 0 0 0 0 0 0 0 0 0 0 0 0 0 0 0 0 0 0 0 0 0 0 0 0 0 0 0
0.610839 5.53609e-07 2.14643e-07 3.38966e-07 0.612285 0.00110516 0 0 0 0 0 0 0 0 0 0 0 0 0 0 0 0 0 0 0 0 0 0 0 0 0 0 0 0 0 0 0 0 0 0 0 0 0 0 0 0 0 0
0.642193 5.55414e-07 2.15343e-07 3.40071e-07 0.612283 0.00100302 0 0 0 0 0 0 0 0 0 0 0 0 0 0 0 0 0 0 0 0 0 0 0 0 0 0 0 0 0 0 0 0 0 0 0 0 0 0 0 0 0 0
0.675157 5.57286e-07 2.15962e-07 3.41325e-07 0.612476 0.000910957 0 0 0 0 0 0 0 0 0 0 0 0 0 0 0 0 0 0 0 0 0 0 0 0 0 0 0 0 0 0 0 0 0 0 0 0 0 0 0 0 0 0
0.709813 5.59251e-07 2.16499e-07 3.42752e-07 0.612877 0.00082817 0 0 0 0 0 0 0 0 0 0 0 0 0 0 0 0 0 0 0 0 0 0 0 0 0 0 0 0 0 0 0 0 0 0 0 0 0 0 0 0 0 0
0.746248 5.6128e-07 2.16931e-07 3.44349e-07 0.613507 0.000754183 0 0 0 0 0 0 0 0 0 0 0 0 0 0 0 0 0 0 0 0 0 0 0 0 0 0 0 0 0 0 0 0 0 0 0 0 0 0 0 0 0 0
0.784553 5.63392e-07 2.17282e-07 3.46109e-07 0.614332 0.000686995 0 0 0 0 0 0 0 0 0 0 0 0 0 0 0 0 0 0 0 0 0 0 0 0 0 0 0 0 0 0 0 0 0 0 0 0 0 0 0 0 0 0
0.824824 5.65558e-07 2.17537e-07 3.48021e-07 0.615359 0.000626788 0 0 0 0 0 0 0 0 0 0 0 0 0 0 0 0 0 0 0 0 0 0 0 0 0 0 0 0 0 0 0 0 0 0 0 0 0 0 0 0 0 0
0.867162 5.6778e-07 2.17713e-07 3.50067e-07 0.616554 0.000572518 0 0 0 0 0 0 0 0 0 0 0 0 0 0 0 0 0 0 0 0 0 0 0 0 0 0 0 0 0 0 0 0 0 0 0 0 0 0 0 0 0 0
0.911674 5.70051e-07 2.17811e-07 3.5224e-07 0.617909 0.000523427 0 0 0 0 0 0 0 0 0 0 0 0 0 0 0 0 0 0 0 0 0 0 0 0 0 0 0 0 0 0 0 0 0 0 0 0 0 0 0 0 0 0
0.95847 5.72352e-07 2.1785e-07 3.54502e-07 0.619377 0.00047944 0 0 0 0 0 0 0 0 0 0 0 0 0 0 0 0 0 0 0 0 0 0 0 0 0 0 0 0 0 0 0 0 0 0 0 0 0 0 0 0 0 0
1.00767 5.74678e-07 2.1784e-07 3.56838e-07 0.620936 0.0004395 0 0 0 0 0 0 0 0 0 0 0 0 0 0 0 0 0 0 0 0 0 0 0 0 0 0 0 0 0 0 0 0 0 0 0 0 0 0 0 0 0 0
1.05939 5.77008e-07 2.17781e-07 3.59227e-07 0.622569 0.000403275 0 0 0 0 0 0 0 0 0 0 0 0 0 0 0 0 0 0 0 0 0 0 0 0 0 0 0 0 0 0 0 0 0 0 0 0 0 0 0 0 0 0
1.11377 5.79352e-07 2.17692e-07 3.6166e-07 0.624249 0.000370298 0 0 0 0 0 0 0 0 0 0 0 0 0 0 0 0 0 0 0 0 0 0 0 0 0 0 0 0 0 0 0 0 0 0 0 0 0 0 0 0 0 0
1.17094 5.81689e-07 2.17574e-07 3.64114e-07 0.625961 0.000339515 0 0 0 0 0 0 0 0 0 0 0 0 0 0 0 0 0 0 0 0 0 0 0 0 0 0 0 0 0 0 0 0 0 0 0 0 0 0 0 0 0 0
1.23105 5.84009e-07 2.17444e-07 3.66565e-07 0.62767 0.000311294 0 0 0 0 0 0 0 0 0 0 0 0 0 0 0 0 0 0 0 0 0 0 0 0 0 0 0 0 0 0 0 0 0 0 0 0 0 0 0 0 0 0
1.29424 5.863e-07 2.17297e-07 3.69003e-07 0.629376 0.000285362 0 0 0 0 0 0 0 0 0 0 0 0 0 0 0 0 0 0 0 0 0 0 0 0 0 0 0 0 0 0 0 0 0 0 0 0 0 0 0 0 0 0
1.36067 5.88587e-07 2.17156e-07 3.71431e-07 0.631055 0.000261742 0 0 0 0 0 0 0 0 0 0 0 0 0 0 0 0 0 0 0 0 0 0 0 0 0 0 0 0 0 0 0 0 0 0 0 0 0 0 0 0 0 0
1.43051 5.90822e-07 2.17007e-07 3.73814e-07 0.632703 0.000240209 0 0 0 0 0 0 0 0 0 0 0 0 0 0 0 0 0 0 0 0 0 0 0 0 0 0 0 0 0 0 0 0 0 0 0 0 0 0 0 0 0 0
1.50394 5.93041e-07 2.16878e-07 3.76163e-07 0.634295 0.000220279 0 0 0 0 0 0 0 0 0 0 0 0 0 0 0 0 0 0 0 0 0 0 0 0 0 0 0 0 0 0 0 0 0 0 0 0 0 0 0 0 0 0
1.58114 5.9523e-07 2.16759e-07 3.78471e-07 0.63584 0.000201732 0 0 0 0 0 0 0 0 0 0 0 0 0 0 0 0 0 0 0 0 0 0 0 0 0 0 0 0 0 0 0 0 0 0 0 0 0 0 0 0 0 0
1.6623 5.97372e-07 2.16667e-07 3.80705e-07 0.6373 0.000184534 0 0 0 0 0 0 0 0 0 0 0 0 0 0 0 0 0 0 0 0 0 0 0 0 0 0 0 0 0 0 0 0 0 0 0 0 0 0 0 0 0 0
1.74763 5.99502e-07 2.16604e-07 3.82898e-07 0.638694 0.000169005 0 0 0 0 0 0 0 0 0 0 0 0 0 0 0 0 0 0 0 0 0 0 0 0 0 0 0 0 0 0 0 0 0 0 0 0 0 0 0 0 0 0
1.83733 6.01613e-07 2.1658e-07 3.85033e-07 0.640001 0.000154804 0 0 0 0 0 0 0 0 0 0 0 0 0 0 0 0 0 0 0 0 0 0 0 0 0 0 0 0 0 0 0 0 0 0 0 0 0 0 0 0 0 0
1.93164 6.03703e-07 2.16605e-07 3.87098e-07 0.641205 0.000141793 0 0 0 0 0 0 0 0 0 0 0 0 0 0 0 0 0 0 0 0 0 0 0 0 0 0 0 0 0 0 0 0 0 0 0 0 0 0 0 0 0 0
2.03079 6.05771e-07 2.16665e-07 3.89106e-07 0.642331 0.000129725 0 0 0 0 0 0 0 0 0 0 0 0 0 0 0 0 0 0 0 0 0 0 0 0 0 0 0 0 0 0 0 0 0 0 0 0 0 0 0 0 0 0
2.13503 6.07867e-07 2.16819e-07 3.91048e-07 0.643312 0.000118657 0 0 0 0 0 0 0 0 0 0 0 0 0 0 0 0 0 0 0 0 0 0 0 0 0 0 0 0 0 0 0 0 0 0 0 0 0 0 0 0 0 0
2.24463 6.09914e-07 2.16996e-07 3.92918e-07 0.644218 0.000108569 0 0 0 0 0 0 0 0 0 0 0 0 0 0 0 0 0 0 0 0 0 0 0 0 0 0 0 0 0 0 0 0 0 0 0 0 0 0 0 0 0 0
2.35984 6.12038e-07 2.17293e-07 3.94746e-07 0.644969 9.92926e-05 0 0 0 0 0 0 0 0 0 0 0 0 0 0 0 0 0 0 0 0 0 0 0 0 0 0 0 0 0 0 0 0 0 0 0 0 0 0 0 0 0 0
2.48097 6.14094e-07 2.17634e-07 3.9646e-07 0.645602 9.07218e-05 0 0 0 0 0 0 0 0 0 0 0 0 0 0 0 0 0 0 0 0 0 0 0 0 0 0 0 0 0 0 0 0 0 0 0 0 0 0 0 0 0 0
2.60832 6.16229e-07 2.18064e-07 3.98165e-07 0.646131 8.27967e-05 0 0 0 0 0 0 0 0 0 0 0 0 0 0 0 0 0 0 0 0 0 0 0 0 0 0 0 0 0 0 0 0 0 0 0 0 0 0 0 0 0 0
2.74221 6.18418e-07 2.18645e-07 3.99773e-07 0.646445 7.55862e-05 0 0 0 0 0 0 0 0 0 0 0 0 0 0 0 0 0 0 0 0 0 0 0 0 0 0 0 0 0 0 0 0 0 0 0 0 0 0 0 0 0 0
2.88297 6.20524e-07 2.19223e-07 4.01301e-07 0.646714 6.90729e-05 0 0 0 0 0 0 0 0 0 0 0 0 0 0 0 0 0 0 0 0 0 0 0 0 0 0 0 0 0 0 0 0 0 0 0 0 0 0 0 0 0 0
3.03095 6.22828e-07 2.19961e-07 4.02867e-07 0.646835 6.31538e-05 0 0 0 0 0 0 0 0 0 0 0 0 0 0 0 0 0 0 0 0 0 0 0 0 0 0 0 0 0 0 0 0 0 0 0 0 0 0 0 0 0 0
3.18653 6.25169e-07 2.20895e-07 4.04274e-07 0.646663 5.76567e-05 0 0 0 0 0 0 0 0 0 0 0 0 0 0 0 0 0 0 0 0 0 0 0 0 0 0 0 0 0 0 0 0 0 0 0 0 0 0 0 0 0 0
3.35009 6.27363e-07 2.21777e-07 4.05586e-07 0.646493 5.2603e-05 0 0 0 0 0 0 0 0 0 0 0 0 0 0 0 0 0 0 0 0 0 0 0 0 0 0 0 0 0 0 0 0 0 0 0 0 0 0 0 0 0 0
3.52205 6.29797e-07 2.22789e-07 4.07007e-07 0.646252 4.80102e-05 0 0 0 0 0 0 0 0 0 0 0 0 0 0 0 0 0 0 0 0 0 0 0 0 0 0 0 0 0 0 0 0 0 0 0 0 0 0 0 0 0 0
3.70284 6.3253e-07 2.24154e-07 4.08376e-07 0.645623 4.38066e-05 0 0 0 0 0 0 0 0 0 0 0 0 0 0 0 0 0 0 0 0 0 0 0 0 0 0 0 0 0 0 0 0 0 0 0 0 0 0 0 0 0 0
3.89291 6.34963e-07 2.25549e-07 4.09414e-07 0.644784 3.9926e-05 0 0 0 0 0 0 0 0 0 0 0 0 0 0 0 0 0 0 0 0 0 0 0 0 0 0 0 0 0 0 0 0 0 0 0 0 0 0 0 0 0 0
4.09273 6.37285e-07 2.26798e-07 4.10487e-07 0.644119 3.62643e-05 0 0 0 0 0 0 0 0 0 0 0 0 0 0 0 0 0 0 0 0 0 0 0 0 0 0 0 0 0 0 0 0 0 0 0 0 0 0 0 0 0 0
4.30281 6.40122e-07 2.28286e-07 4.11836e-07 0.643372 3.29535e-05 0 0 0 0 0 0 0 0 0 0 0 0 0 0 0 0 0 0 0 0 0 0 0 0 0 0 0 0 0 0 0 0 0 0 0 0 0 0 0 0 0 0
4.52368 6.43461e-07 2.30295e-07 4.13166e-07 0.642099 2.99416e-05 0 0 0 0 0 0 0 0 0 0 0 0 0 0 0 0 0 0 0 0 0 0 0 0 0 0 0 0 0 0 0 0 0 0 0 0 0 0 0 0 0 0
4.75588 6.46407e-07 2.32438e-07 4.13969e-07 0.640415 2.71796e-05 0 0 0 0 0 0 0 0 0 0 0 0 0 0 0 0 0 0 0 0 0 0 0 0 0 0 0 0 0 0 0 0 0 0 0 0 0 0 0 0 0 0
5 6.48735e-07 2.34261e-07 4.14474e-07 0.638896 2.45398e-05 0 0 0 0 0 0 0 0 0 0 0 0 0 0 0 0 0 0 0 0 0 0 0 0 0 0 0 0 0 0 0 0 0 0 0 0 0 0 0 0 0 0
5.25665 6.51232e-07 2.35923e-07 4.15308e-07 0.637728 2.21678e-05 0 0 0 0 0 0 0 0 0 0 0 0 0 0 0 0 0 0 0 0 0 0 0 0 0 0 0 0 0 0 0 0 0 0 0 0 0 0 0 0 0 0
5.52648 6.54809e-07 2.38064e-07 4.16746e-07 0.636438 2.00489e-05 0 0 0 0 0 0 0 0 0 0 0 0 0 0 0 0 0 0 0 0 0 0 0 0 0 0 0 0 0 0 0 0 0 0 0 0 0 0 0 0 0 0
5.81015 6.59207e-07 2.40952e-07 4.18255e-07 0.634482 1.8115e-05 0 0 0 0 0 0 0 0 0 0 0 0 0 0 0 0 0 0 0 0 0 0 0 0 0 0 0 0 0 0 0 0 0 0 0 0 0 0 0 0 0 0
6.10839 6.63151e-07 2.44058e-07 4.19093e-07 0.631973 1.63023e-05 0 0 0 0 0 0 0 0 0 0 0 0 0 0 0 0 0 0 0 0 0 0 0 0 0 0 0 0 0 0 0 0 0 0 0 0 0 0 0 0 0 0
6.42193 6.66042e-07 2.47868e-07 4.18175e-07 0.62785 1.48144e-05 0 0 0 0 0 0 0 0 0 0 0 0 0 0 0 0 0 0 0 0 0 0 0 0 0 0 0 0 0 0 0 0 0 0 0 0 0 0 0 0 0 0
6.75157 6.67668e-07 2.4976e-07 4.17908e-07 0.625922 1.32279e-05 0 0 0 0 0 0 0 0 0 0 0 0 0 0 0 0 0 0 0 0 0 0 0 0 0 0 0 0 0 0 0 0 0 0 0 0 0 0 0 0 0 0
7.09813 6.69593e-07 2.51649e-07 4.17945e-07 0.624177 1.18448e-05 0 0 0 0 0 0 0 0 0 0 0 0 0 0 0 0 0 0 0 0 0 0 0 0 0 0 0 0 0 0 0 0 0 0 0 0 0 0 0 0 0 0
7.46248 6.73276e-07 2.54014e-07 4.19262e-07 0.62272 1.05694e-05 0 0 0 0 0 0 0 0 0 0 0 0 0 0 0 0 0 0 0 0 0 0 0 0 0 0 0 0 0 0 0 0 0 0 0 0 0 0 0 0 0 0
7.84553 6.79185e-07 2.57464e-07 4.2172e-07 0.620921 9.34187e-06 0 0 0 0 0 0 0 0 0 0 0 0 0 0 0 0 0 0 0 0 0 0 0 0 0 0 0 0 0 0 0 0 0 0 0 0 0 0 0 0 0 0
8.24824 6.86107e-07 2.62021e-07 4.24086e-07 0.618104 8.19911e-06 0 0 0 0 0 0 0 0 0 0 0 0 0 0 0 0 0 0 0 0 0 0 0 0 0 0 0 0 0 0 0 0 0 0 0 0 0 0 0 0 0 0
8.67162 6.91943e-07 2.67123e-07 4.24819e-07 0.613952 7.20916e-06 0 0 0 0 0 0 0 0 0 0 0 0 0 0 0 0 0 0 0 0 0 0 0 0 0 0 0 0 0 0 0 0 0 0 0 0 1.4013e-45 0 4.2039e-45 0 1.26117e-44 0
9.11674 6.95089e-07 2.72066e-07 4.23023e-07 0.608588 6.32492e-06 0 0 0 0 0 0 0 0 0 0 0 0 0 0 0 0 0 0 0 0 0 0 0 0 0 0 1.4013e-45 0 2.8026e-45 0 1.26117e-44 0 3.92364e-44 0 1.16308e-43 0 3.29305e-43 0 8.36575e-43 0 2.09774e-42 0
9.5847 6.95442e-07 2.7638e-07 4.19062e-07 0.602584 5.52644e-06 0 0 0 0 0 0 0 0 0 0 0 0 0 0 0 0 0 0 0 0 1.4013e-45 0 8.40779e-45 0 3.92364e-44 0 1.65353e-43 0 6.02558e-43 0 2.03328e-42 0 6.1531e-42 0 1.74868e-41 0 4.68104e-41 0 1.13903e-40 0 2.72899e-40 0
10.0767 6.93789e-07 2.79782e-07 4.14008e-07 0.596734 4.78203e-06 0 0 0 0 0 0 0 0 0 0 0 0 0 0 0 0 4.2039e-45 0 3.78351e-44 0 2.52234e-43 0 1.33544e-42 0 6.0382e-42 0 2.40813e-41 0 8.20334e-41 0 2.60902e-40 0 7.48187e-40 0 2.02072e-39 0 5.15523e-39 0 1.20112e-38 0 2.75756e-38 0
10.5939 6.91268e-07 2.82138e-07 4.0913e-07 0.591855 4.06995e-06 0 0 0 0 0 0 0 0 0 0 0 0 4.2039e-45 0 7.14662e-44 0 7.63708e-43 0 5.88265e-42 0 3.53057e-41 0 1.72287e-40 0 7.23688e-40 0 2.69755e-39 0 8.65525e-39 0 2.60157e-38 0 7.08645e-38 0 1.8233e-37 0 4.44366e-37 0 9.93447e-37 0 2.19008e-36 0
11.1377 6.89907e-07 2.84191e-07 4.05715e-07 0.588073 3.40803e-06 0 0 0 0 0 0 0 0 0 0 2.94273e-44 0 7.31478e-43 0 1.0535e-41 0 9.99616e-41 0 6.96849e-40 0 3.83162e-39 0 1.73055e-38 0 6.77725e-38 0 2.36904e-37 0 7.18064e-37 0 2.04542e-36 0 5.30552e-36 0 1.30352e-35 0 3.04167e-35 0 6.53818e-35 0 1.38679e-34 0
11.7094 6.88322e-07 2.80367e-07 4.07955e-07 0.59268 2.82232e-06 0 0 0 0 0 0 0 0 8.82818e-44 0 4.33141e-42 0 9.2794e-41 0 1.17394e-39 0 9.97985e-39 0 6.32785e-38 0 3.20153e-37 0 1.34335e-36 0 4.92168e-36 0 1.61844e-35 0 4.647e-35 0 1.25776e-34 0 3.11409e-34 0 7.32252e-34 0 1.63941e-33 0 3.39474e-33 0 6.9409e-33 0
12.3105 6.98415e-07 2.86328e-07 4.12086e-07 0.590031 2.20615e-06 0 0 0 0 0 0 8.54792e-44 0 1.27532e-41 0 5.15141e-40 0 9.50206e-39 0 1.06202e-37 0 8.13261e-37 0 4.71193e-36 0 2.20254e-35 0 8.61682e-35 0 2.96303e-34 0 9.19343e-34 0 2.5072e-33 0 6.46399e-33 0 1.53113e-32 0 3.45312e-32 0 7.43274e-32 0 1.48536e-31 0 2.93277e-31 0
12.9424 7.13242e-07 2.90757e-07 4.22486e-07 0.592345 1.60871e-06 0 0 0 0 9.80909e-45 0 1.21352e-41 0 1.41467e-39 0 4.77033e-38 0 7.63191e-37 0 7.58167e-36 0 5.25651e-35 0 2.79521e-34 0 1.21183e-33 0 4.43547e-33 0 1.43595e-32 0 4.21573e-32 0 1.09474e-31 0 2.69489e-31 0 6.12022e-31 0 1.32654e-30 0 2.75045e-30 0 5.31383e-30 0 1.01491e-29 0
13.6067 7.30624e-07 2.96192e-07 4.34432e-07 0.594604 1.1081e-06 0 0 0 0 1.58066e-42 0 1.33824e-39 0 1.23666e-37 0 3.51192e-36 0 4.90728e-35 0 4.35802e-34 0 2.74893e-33 0 1.34725e-32 0 5.43716e-32 0 1.86792e-31 0 5.71018e-31 0 1.59054e-30 0 3.9423e-30 0 9.28705e-30 0 2.02633e-29 0 4.22925e-29 0 8.46221e-29 0 1.58316e-28 0 2.9297e-28 0
14.3051 7.45123e-07 3.02729e-07 4.42395e-07 0.59372 6.74396e-07 0 0 1.4013e-45 0 1.90965e-40 0 1.16367e-37 0 8.62125e-36 0 2.07926e-34 0 2.5544e-33 0 2.03906e-32 0 1.17558e-31 0 5.3313e-31 0 2.00989e-30 0 6.50116e-30 0 1.88186e-29 0 4.98611e-29 0 1.18228e-28 0 2.67103e-28 0 5.61008e-28 0 1.12959e-27 0 2.18491e-27 0 3.96452e-27 0 7.11933e-27 0
15.0394 7.51417e-07 3.10047e-07 4.4137e-07 0.587384 2.84373e-07 0 0 1.96182e-43 0 1.80959e-38 0 8.06285e-36 0 4.84106e-34 0 9.99513e-33 0 1.08637e-31 0 7.83564e-31 0 4.14715e-30 0 1.74693e-29 0 6.17271e-29 0 1.8854e-28 0 5.18158e-28 0 1.30911e-27 0 2.97595e-27 0 6.46106e-27 0 1.30876e-26 0 2.54665e-26 0 4.76973e-26 0 8.40655e-26 0 1.46708e-25 0
15.8114 7.46841e-07 3.17112e-07 4.29729e-07 0.575396 -8.11128e-08 0 0 2.57699e-41 0 1.35617e-36 0 4.48634e-34 0 2.20553e-32 0 3.92794e-31 0 3.79984e-30 0 2.48865e-29 0 1.21424e-28 0 4.76804e-28 0 1.58407e-27 0 4.58169e-27 0 1.19853e-26 0 2.89408e-26 0 6.32045e-26 0 1.32126e-25 0 2.58568e-25 0 4.87046e-25 0 8.84685e-25 0 1.51669e-24 0 2.57587e-24 0
