# 1e-05 2 6 : grain size, compostion index, size index
# Heating and cooling timescale: 0.148498 1.04708e+06
# Ratio of heating to cooling to determine stochastic cutoff: 100
# Equilibrium emission is recorded even for those grains in the stochastic regime.
# Emission spectrum was computed for: 
# Type: ISRF
# Scales: 0.25 0.5 1 1.5 2 2.5 3 3.5 4 4.5 5 5.5 6 6.5 7 7.5 8 8.5 9 9.5 10
# StochasticallyHeated: 0 0 0 0 0 0 0 0 0 0 0 0 0 0 0 0 0 0 0 0 0
# Temperature: -1
# Wavelength  CExt  CAbs  CSca  Albedo G EqEm1 StEm1 EqEm2 StEm2 EqEm3 StEm3 EqEm4 StEm4 EqEm5 StEm5 EqEm6 StEm6 EqEm7 StEm7 EqEm8 StEm8 EqEm9 StEm9 EqEm10 StEm10 EqEm11 StEm11 EqEm12 StEm12 EqEm13 StEm13 EqEm14 StEm14 EqEm15 StEm15 EqEm16 StEm16 EqEm17 StEm17 EqEm18 StEm18 EqEm19 StEm19 EqEm20 StEm20 EqEm21 StEm21
0.05 6.9237e-10 3.62981e-10 3.29389e-10 0.475742 0.904448 0 0 0 0 0 0 0 0 0 0 0 0 0 0 0 0 0 0 0 0 0 0 0 0 0 0 0 0 0 0 0 0 0 0 0 0 0 0 0 0 0 0
0.0525665 6.97597e-10 3.64204e-10 3.33393e-10 0.477916 0.901563 0 0 0 0 0 0 0 0 0 0 0 0 0 0 0 0 0 0 0 0 0 0 0 0 0 0 0 0 0 0 0 0 0 0 0 0 0 0 0 0 0 0
0.0552647 7.03137e-10 3.65517e-10 3.37621e-10 0.480163 0.898532 0 0 0 0 0 0 0 0 0 0 0 0 0 0 0 0 0 0 0 0 0 0 0 0 0 0 0 0 0 0 0 0 0 0 0 0 0 0 0 0 0 0
0.0581015 7.08921e-10 3.66897e-10 3.42024e-10 0.482457 0.895343 0 0 0 0 0 0 0 0 0 0 0 0 0 0 0 0 0 0 0 0 0 0 0 0 0 0 0 0 0 0 0 0 0 0 0 0 0 0 0 0 0 0
0.0610839 7.15029e-10 3.68345e-10 3.46684e-10 0.484853 0.891986 0 0 0 0 0 0 0 0 0 0 0 0 0 0 0 0 0 0 0 0 0 0 0 0 0 0 0 0 0 0 0 0 0 0 0 0 0 0 0 0 0 0
0.0642193 7.21432e-10 3.69857e-10 3.51575e-10 0.487329 0.888462 0 0 0 0 0 0 0 0 0 0 0 0 0 0 0 0 0 0 0 0 0 0 0 0 0 0 0 0 0 0 0 0 0 0 0 0 0 0 0 0 0 0
0.0675157 7.28169e-10 3.71437e-10 3.56732e-10 0.489903 0.884759 0 0 0 0 0 0 0 0 0 0 0 0 0 0 0 0 0 0 0 0 0 0 0 0 0 0 0 0 0 0 0 0 0 0 0 0 0 0 0 0 0 0
0.0709813 7.35237e-10 3.73115e-10 3.62122e-10 0.492524 0.880866 0 0 0 0 0 0 0 0 0 0 0 0 0 0 0 0 0 0 0 0 0 0 0 0 0 0 0 0 0 0 0 0 0 0 0 0 0 0 0 0 0 0
0.0746248 7.427e-10 3.74892e-10 3.67808e-10 0.49523 0.876772 0 0 0 0 0 0 0 0 0 0 0 0 0 0 0 0 0 0 0 0 0 0 0 0 0 0 0 0 0 0 0 0 0 0 0 0 0 0 0 0 0 0
0.0784553 7.50528e-10 3.76737e-10 3.73791e-10 0.498037 0.872462 0 0 0 0 0 0 0 0 0 0 0 0 0 0 0 0 0 0 0 0 0 0 0 0 0 0 0 0 0 0 0 0 0 0 0 0 0 0 0 0 0 0
0.0824824 7.58768e-10 3.78699e-10 3.8007e-10 0.500903 0.867939 0 0 0 0 0 0 0 0 0 0 0 0 0 0 0 0 0 0 0 0 0 0 0 0 0 0 0 0 0 0 0 0 0 0 0 0 0 0 0 0 0 0
0.0867162 7.67415e-10 3.80739e-10 3.86676e-10 0.503869 0.863181 0 0 0 0 0 0 0 0 0 0 0 0 0 0 0 0 0 0 0 0 0 0 0 0 0 0 0 0 0 0 0 0 0 0 0 0 0 0 0 0 0 0
0.0911674 7.76524e-10 3.82895e-10 3.93629e-10 0.506912 0.858181 0 0 0 0 0 0 0 0 0 0 0 0 0 0 0 0 0 0 0 0 0 0 0 0 0 0 0 0 0 0 0 0 0 0 0 0 0 0 0 0 0 0
0.095847 7.86093e-10 3.85167e-10 4.00926e-10 0.510024 0.852919 0 0 0 0 0 0 0 0 0 0 0 0 0 0 0 0 0 0 0 0 0 0 0 0 0 0 0 0 0 0 0 0 0 0 0 0 0 0 0 0 0 0
0.100767 7.96136e-10 3.87536e-10 4.086e-10 0.513229 0.847392 0 0 0 0 0 0 0 0 0 0 0 0 0 0 0 0 0 0 0 0 0 0 0 0 0 0 0 0 0 0 0 0 0 0 0 0 0 0 0 0 0 0
0.105939 8.06705e-10 3.90036e-10 4.16668e-10 0.516507 0.841577 0 0 0 0 0 0 0 0 0 0 0 0 0 0 0 0 0 0 0 0 0 0 0 0 0 0 0 0 0 0 0 0 0 0 0 0 0 0 0 0 0 0
0.111377 8.17821e-10 3.92669e-10 4.25152e-10 0.519859 0.835465 0 0 0 0 0 0 0 0 0 0 0 0 0 0 0 0 0 0 0 0 0 0 0 0 0 0 0 0 0 0 0 0 0 0 0 0 0 0 0 0 0 0
0.117094 8.29511e-10 3.9543e-10 4.34081e-10 0.523298 0.829033 0 0 0 0 0 0 0 0 0 0 0 0 0 0 0 0 0 0 0 0 0 0 0 0 0 0 0 0 0 0 0 0 0 0 0 0 0 0 0 0 0 0
0.123105 8.4181e-10 3.98351e-10 4.43459e-10 0.526792 0.822286 0 0 0 0 0 0 0 0 0 0 0 0 0 0 0 0 0 0 0 0 0 0 0 0 0 0 0 0 0 0 0 0 0 0 0 0 0 0 0 0 0 0
0.129424 8.54732e-10 4.01413e-10 4.53318e-10 0.530363 0.815178 0 0 0 0 0 0 0 0 0 0 0 0 0 0 0 0 0 0 0 0 0 0 0 0 0 0 0 0 0 0 0 0 0 0 0 0 0 0 0 0 0 0
0.136067 8.68292e-10 4.04632e-10 4.63661e-10 0.533991 0.807713 0 0 0 0 0 0 0 0 0 0 0 0 0 0 0 0 0 0 0 0 0 0 0 0 0 0 0 0 0 0 0 0 0 0 0 0 0 0 0 0 0 0
0.143051 8.82554e-10 4.0799e-10 4.74564e-10 0.537717 0.799867 0 0 0 0 0 0 0 0 0 0 0 0 0 0 0 0 0 0 0 0 0 0 0 0 0 0 0 0 0 0 0 0 0 0 0 0 0 0 0 0 0 0
0.150394 8.97578e-10 4.11545e-10 4.86033e-10 0.541494 0.79161 0 0 0 0 0 0 0 0 0 0 0 0 0 0 0 0 0 0 0 0 0 0 0 0 0 0 0 0 0 0 0 0 0 0 0 0 0 0 0 0 0 0
0.158114 9.1336e-10 4.15297e-10 4.98063e-10 0.545308 0.782932 0 0 0 0 0 0 0 0 0 0 0 0 0 0 0 0 0 0 0 0 0 0 0 0 0 0 0 0 0 0 0 0 0 0 0 0 0 0 0 0 0 0
0.16623 9.29942e-10 4.19218e-10 5.10724e-10 0.5492 0.773808 0 0 0 0 0 0 0 0 0 0 0 0 0 0 0 0 0 0 0 0 0 0 0 0 0 0 0 0 0 0 0 0 0 0 0 0 0 0 0 0 0 0
0.174762 9.47394e-10 4.23349e-10 5.24045e-10 0.553144 0.764222 0 0 0 0 0 0 0 0 0 0 0 0 0 0 0 0 0 0 0 0 0 0 0 0 0 0 0 0 0 0 0 0 0 0 0 0 0 0 0 0 0 0
0.183733 9.65719e-10 4.27681e-10 5.38038e-10 0.557137 0.754134 0 0 0 0 0 0 0 0 0 0 0 0 0 0 0 0 0 0 0 0 0 0 0 0 0 0 0 0 0 0 0 0 0 0 0 0 0 0 0 0 0 0
0.193164 9.84988e-10 4.32255e-10 5.52734e-10 0.561158 0.743533 0 0 0 0 0 0 0 0 0 0 0 0 0 0 0 0 0 0 0 0 0 0 0 0 0 0 0 0 0 0 0 0 0 0 0 0 0 0 0 0 0 0
0.203079 1.00378e-09 4.35828e-10 5.67956e-10 0.565815 0.733426 0 0 0 0 0 0 0 0 0 0 0 0 0 0 0 0 0 0 0 0 0 0 0 0 0 0 0 0 0 0 0 0 0 0 0 0 0 0 0 0 0 0
0.213503 1.0168e-09 4.3411e-10 5.82693e-10 0.573064 0.727508 0 0 0 0 0 0 0 0 0 0 0 0 0 0 0 0 0 0 0 0 0 0 0 0 0 0 0 0 0 0 0 0 0 0 0 0 0 0 0 0 0 0
0.224463 1.03028e-09 4.3212e-10 5.9816e-10 0.58058 0.721411 0 0 0 0 0 0 0 0 0 0 0 0 0 0 0 0 0 0 0 0 0 0 0 0 0 0 0 0 0 0 0 0 0 0 0 0 0 0 0 0 0 0
0.235984 1.04445e-09 4.30032e-10 6.14415e-10 0.588268 0.715001 0 0 0 0 0 0 0 0 0 0 0 0 0 0 0 0 0 0 0 0 0 0 0 0 0 0 0 0 0 0 0 0 0 0 0 0 0 0 0 0 0 0
0.248097 1.05937e-09 4.27845e-10 6.31527e-10 0.596134 0.708264 0 0 0 0 0 0 0 0 0 0 0 0 0 0 0 0 0 0 0 0 0 0 0 0 0 0 0 0 0 0 0 0 0 0 0 0 0 0 0 0 0 0
0.260832 1.07503e-09 4.25528e-10 6.49501e-10 0.604171 0.701179 0 0 0 0 0 0 0 0 0 0 0 0 0 0 0 0 0 0 0 0 0 0 0 0 0 0 0 0 0 0 0 0 0 0 0 0 0 0 0 0 0 0
0.274221 1.0915e-09 4.23108e-10 6.68388e-10 0.61236 0.693729 0 0 0 0 0 0 0 0 0 0 0 0 0 0 0 0 0 0 0 0 0 0 0 0 0 0 0 0 0 0 0 0 0 0 0 0 0 0 0 0 0 0
0.288297 1.10883e-09 4.2056e-10 6.88271e-10 0.620718 0.6859 0 0 0 0 0 0 0 0 0 0 0 0 0 0 0 0 0 0 0 0 0 0 0 0 0 0 0 0 0 0 0 0 0 0 0 0 0 0 0 0 0 0
0.303095 1.12324e-09 4.17058e-10 7.06182e-10 0.628701 0.677385 0 0 0 0 0 0 0 0 0 0 0 0 0 0 0 0 0 0 0 0 0 0 0 0 0 0 0 0 0 0 0 0 0 0 0 0 0 0 0 0 0 0
0.318653 1.09111e-09 4.02855e-10 6.88259e-10 0.630786 0.664971 0 0 0 0 0 0 0 0 0 0 0 0 0 0 0 0 0 0 0 0 0 0 0 0 0 0 0 0 0 0 0 0 0 0 0 0 0 0 0 0 0 0
0.335009 1.05388e-09 3.87165e-10 6.66718e-10 0.63263 0.651674 0 0 0 0 0 0 0 0 0 0 0 0 0 0 0 0 0 0 0 0 0 0 0 0 0 0 0 0 0 0 0 0 0 0 0 0 0 0 0 0 0 0
0.352205 1.01475e-09 3.70664e-10 6.4409e-10 0.634725 0.637687 0 0 0 0 0 0 0 0 0 0 0 0 0 0 0 0 0 0 0 0 0 0 0 0 0 0 0 0 0 0 0 0 0 0 0 0 0 0 0 0 0 0
0.370284 9.73621e-10 3.53325e-10 6.20296e-10 0.637102 0.622985 0 0 0 0 0 0 0 0 0 0 0 0 0 0 0 0 0 0 0 0 0 0 0 0 0 0 0 0 0 0 0 0 0 0 0 0 0 0 0 0 0 0
0.389291 9.30383e-10 3.35092e-10 5.95291e-10 0.639834 0.60753 0 0 0 0 0 0 0 0 0 0 0 0 0 0 0 0 0 0 0 0 0 0 0 0 0 0 0 0 0 0 0 0 0 0 0 0 0 0 0 0 0 0
0.409273 8.78425e-10 3.14909e-10 5.63517e-10 0.641508 0.588532 0 0 0 0 0 0 0 0 0 0 0 0 0 0 0 0 0 0 0 0 0 0 0 0 0 0 0 0 0 0 0 0 0 0 0 0 0 0 0 0 0 0
0.430281 8.02566e-10 2.9034e-10 5.12226e-10 0.638236 0.559607 0 0 0 0 0 0 0 0 0 0 0 0 0 0 0 0 0 0 0 0 0 0 0 0 0 0 0 0 0 0 0 0 0 0 0 0 0 0 0 0 0 0
0.452368 7.22787e-10 2.64505e-10 4.58282e-10 0.634049 0.529185 0 0 0 0 0 0 0 0 0 0 0 0 0 0 0 0 0 0 0 0 0 0 0 0 0 0 0 0 0 0 0 0 0 0 0 0 0 0 0 0 0 0
0.475588 6.38934e-10 2.37346e-10 4.01588e-10 0.628528 0.497212 0 0 0 0 0 0 0 0 0 0 0 0 0 0 0 0 0 0 0 0 0 0 0 0 0 0 0 0 0 0 0 0 0 0 0 0 0 0 0 0 0 0
0.5 5.50879e-10 2.08814e-10 3.42065e-10 0.620944 0.46359 0 0 0 0 0 0 0 0 0 0 0 0 0 0 0 0 0 0 0 0 0 0 0 0 0 0 0 0 0 0 0 0 0 0 0 0 0 0 0 0 0 0
0.525665 4.89494e-10 1.88432e-10 3.01062e-10 0.615047 0.426558 0 0 0 0 0 0 0 0 0 0 0 0 0 0 0 0 0 0 0 0 0 0 0 0 0 0 0 0 0 0 0 0 0 0 0 0 0 0 0 0 0 0
0.552648 4.34867e-10 1.70047e-10 2.6482e-10 0.608968 0.387086 0 0 0 0 0 0 0 0 0 0 0 0 0 0 0 0 0 0 0 0 0 0 0 0 0 0 0 0 0 0 0 0 0 0 0 0 0 0 0 0 0 0
0.581015 3.77433e-10 1.5072e-10 2.26713e-10 0.600672 0.345598 0 0 0 0 0 0 0 0 0 0 0 0 0 0 0 0 0 0 0 0 0 0 0 0 0 0 0 0 0 0 0 0 0 0 0 0 0 0 0 0 0 0
0.610839 3.2023e-10 1.31524e-10 1.88706e-10 0.589282 0.304069 0 0 0 0 0 0 0 0 0 0 0 0 0 0 0 0 0 0 0 0 0 0 0 0 0 0 0 0 0 0 0 0 0 0 0 0 0 0 0 0 0 0
0.642193 2.85315e-10 1.20266e-10 1.65049e-10 0.578479 0.277099 0 0 0 0 0 0 0 0 0 0 0 0 0 0 0 0 0 0 0 0 0 0 0 0 0 0 0 0 0 0 0 0 0 0 0 0 0 0 0 0 0 0
0.675157 2.4861e-10 1.08431e-10 1.4018e-10 0.563853 0.248742 0 0 0 0 0 0 0 0 0 0 0 0 0 0 0 0 0 0 0 0 0 0 0 0 0 0 0 0 0 0 0 0 0 0 0 0 0 0 0 0 0 0
0.709813 2.11536e-10 9.64202e-11 1.15116e-10 0.54419 0.220111 0 0 0 0 0 0 0 0 0 0 0 0 0 0 0 0 0 0 0 0 0 0 0 0 0 0 0 0 0 0 0 0 0 0 0 0 0 0 0 0 0 0
0.746248 1.86115e-10 8.766e-11 9.84547e-11 0.529 0.20057 0 0 0 0 0 0 0 0 0 0 0 0 0 0 0 0 0 0 0 0 0 0 0 0 0 0 0 0 0 0 0 0 0 0 0 0 0 0 0 0 0 0
0.784553 1.60517e-10 7.87702e-11 8.17469e-11 0.509272 0.180909 0 0 0 0 0 0 0 0 0 0 0 0 0 0 0 0 0 0 0 0 0 0 0 0 0 0 0 0 0 0 0 0 0 0 0 0 0 0 0 0 0 0
0.824824 1.37339e-10 7.04991e-11 6.68399e-11 0.486678 0.162769 0 0 0 0 0 0 0 0 0 0 0 0 0 0 0 0 0 0 0 0 0 0 0 0 0 0 0 0 0 0 0 0 0 0 0 0 0 0 0 0 0 0
0.867162 1.19922e-10 6.38019e-11 5.61198e-11 0.46797 0.148411 0 0 0 0 0 0 0 0 0 0 0 0 0 0 0 0 0 0 0 0 0 0 0 0 0 0 0 0 0 0 0 0 0 0 0 0 0 0 0 0 0 0
0.911674 1.01807e-10 5.68235e-11 4.49832e-11 0.441849 0.133442 0 0 0 0 0 0 0 0 0 0 0 0 0 0 0 0 0 0 0 0 0 0 0 0 0 0 0 0 0 0 0 0 0 0 0 0 0 0 0 0 0 0
0.95847 8.93871e-11 5.15817e-11 3.78054e-11 0.42294 0.122099 0 0 0 0 0 0 0 0 0 0 0 0 0 0 0 0 0 0 0 0 0 0 0 0 0 0 0 0 0 0 0 0 0 0 0 0 0 0 0 0 0 0
1.00767 7.65903e-11 4.61523e-11 3.0438e-11 0.397413 0.110345 0 0 0 0 0 0 0 0 0 0 0 0 0 0 0 0 0 0 0 0 0 0 0 0 0 0 0 0 0 0 0 0 0 0 0 0 0 0 0 0 0 0
1.05939 6.72242e-11 4.19047e-11 2.53194e-11 0.376642 0.100762 0 0 0 0 0 0 0 0 0 0 0 0 0 0 0 0 0 0 0 0 0 0 0 0 0 0 0 0 0 0 0 0 0 0 0 0 0 0 0 0 0 0
1.11377 5.80762e-11 3.76883e-11 2.03878e-11 0.351053 0.0911683 0 0 0 0 0 0 0 0 0 0 0 0 0 0 0 0 0 0 0 0 0 0 0 0 0 0 0 0 0 0 0 0 0 0 0 0 0 0 0 0 0 0
1.17094 5.12182e-11 3.42984e-11 1.69198e-11 0.330347 0.0832102 0 0 0 0 0 0 0 0 0 0 0 0 0 0 0 0 0 0 0 0 0 0 0 0 0 0 0 0 0 0 0 0 0 0 0 0 0 0 0 0 0 0
1.23105 4.47066e-11 3.10135e-11 1.36931e-11 0.306288 0.0754302 0 0 0 0 0 0 0 0 0 0 0 0 0 0 0 0 0 0 0 0 0 0 0 0 0 0 0 0 0 0 0 0 0 0 0 0 0 0 0 0 0 0
1.29424 3.94627e-11 2.82087e-11 1.12539e-11 0.285179 0.0686439 0 0 0 0 0 0 0 0 0 0 0 0 0 0 0 0 0 0 0 0 0 0 0 0 0 0 0 0 0 0 0 0 0 0 0 0 0 0 0 0 0 0
1.36067 3.48722e-11 2.56484e-11 9.22374e-12 0.264501 0.0624549 0 0 0 0 0 0 0 0 0 0 0 0 0 0 0 0 0 0 0 0 0 0 0 0 0 0 0 0 0 0 0 0 0 0 0 0 0 0 0 0 0 0
1.43051 3.07393e-11 2.325e-11 7.48931e-12 0.243639 0.0566723 0 0 0 0 0 0 0 0 0 0 0 0 0 0 0 0 0 0 0 0 0 0 0 0 0 0 0 0 0 0 0 0 0 0 0 0 0 0 0 0 0 0
1.50394 2.7232e-11 2.10894e-11 6.14261e-12 0.225566 0.0515205 0 0 0 0 0 0 0 0 0 0 0 0 0 0 0 0 0 0 0 0 0 0 0 0 0 0 0 0 0 0 0 0 0 0 0 0 0 0 0 0 0 0
1.58114 2.40918e-11 1.9047e-11 5.04485e-12 0.209401 0.0468548 0 0 0 0 0 0 0 0 0 0 0 0 0 0 0 0 0 0 0 0 0 0 0 0 0 0 0 0 0 0 0 0 0 0 0 0 0 0 0 0 0 0
1.6623 2.12259e-11 1.71047e-11 4.12126e-12 0.194161 0.0425432 0 0 0 0 0 0 0 0 0 0 0 0 0 0 0 0 0 0 0 0 0 0 0 0 0 0 0 0 0 0 0 0 0 0 0 0 0 0 0 0 0 0
1.74763 1.86633e-11 1.53046e-11 3.35871e-12 0.179964 0.038598 0 0 0 0 0 0 0 0 0 0 0 0 0 0 0 0 0 0 0 0 0 0 0 0 0 0 0 0 0 0 0 0 0 0 0 0 0 0 0 0 0 0
1.83733 1.64455e-11 1.37078e-11 2.73771e-12 0.166471 0.0350166 0 0 0 0 0 0 0 0 0 0 0 0 0 0 0 0 0 0 0 0 0 0 0 0 0 0 0 0 0 0 0 0 0 0 0 0 0 0 0 0 0 0
1.93164 1.45629e-11 1.23347e-11 2.22825e-12 0.153008 0.0317533 0 0 0 0 0 0 0 0 0 0 0 0 0 0 0 0 0 0 0 0 0 0 0 0 0 0 0 0 0 0 0 0 0 0 0 0 0 0 0 0 0 0
2.03079 1.30065e-11 1.11905e-11 1.81592e-12 0.139617 0.0287983 0 0 0 0 0 0 0 0 0 0 0 0 0 0 0 0 0 0 0 0 0 0 0 0 0 0 0 0 0 0 0 0 0 0 0 0 0 0 0 0 0 0
2.13503 1.16183e-11 1.01362e-11 1.48211e-12 0.127567 0.0261254 0 0 0 0 0 0 0 0 0 0 0 0 0 0 0 0 0 0 0 0 0 0 0 0 0 0 0 0 0 0 0 0 0 0 0 0 0 0 0 0 0 0
2.24463 1.0587e-11 9.37793e-12 1.20911e-12 0.114207 0.0236968 0 0 0 0 0 0 0 0 0 0 0 0 0 0 0 0 0 0 0 0 0 0 0 0 0 0 0 0 0 0 0 0 0 0 0 0 0 0 0 0 0 0
2.35984 9.74834e-12 8.76004e-12 9.88296e-13 0.101381 0.0214961 0 0 0 0 0 0 0 0 0 0 0 0 0 0 0 0 0 0 0 0 0 0 0 0 0 0 0 0 0 0 0 0 0 0 0 0 0 0 0 0 0 0
2.48097 8.94431e-12 8.13617e-12 8.08144e-13 0.0903529 0.0194983 0 0 0 0 0 0 0 0 0 0 0 0 0 0 0 0 0 0 0 0 0 0 0 0 0 0 0 0 0 0 0 0 0 0 0 0 0 0 0 0 0 0
2.60832 8.21309e-12 7.55332e-12 6.59775e-13 0.080332 0.0176758 0 0 0 0 0 0 0 0 0 0 0 0 0 0 0 0 0 0 0 0 0 0 0 0 0 0 0 0 0 0 0 0 0 0 0 0 0 0 0 0 0 0
2.74221 7.56147e-12 7.02237e-12 5.39099e-13 0.0712956 0.0160618 0 0 0 0 0 0 0 0 0 0 0 0 0 0 0 0 0 0 0 0 0 0 0 0 0 0 0 0 0 0 0 0 0 0 0 0 0 0 0 0 0 0
2.88297 6.9547e-12 6.51416e-12 4.40542e-13 0.0633445 0.0145689 0 0 0 0 0 0 0 0 0 0 0 0 0 0 0 0 0 0 0 0 0 0 0 0 0 0 0 0 0 0 0 0 0 0 0 0 0 0 0 0 0 0
3.03095 6.39691e-12 6.03763e-12 3.59276e-13 0.056164 0.0132033 0 0 0 0 0 0 0 0 0 0 0 0 0 0 0 0 0 0 0 0 0 0 0 0 0 0 0 0 0 0 0 0 0 0 0 0 0 0 0 0 0 0
3.18653 5.89736e-12 5.60355e-12 2.93813e-13 0.049821 0.0119768 0 0 0 0 0 0 0 0 0 0 0 0 0 0 0 0 0 0 0 0 0 0 0 0 0 0 0 0 0 0 0 0 0 0 0 0 0 0 0 0 0 0
3.35009 5.42698e-12 5.18741e-12 2.39567e-13 0.0441437 0.010855 0 0 0 0 0 0 0 0 0 0 0 0 0 0 0 0 0 0 0 0 0 0 0 0 0 0 0 0 0 0 0 0 0 0 0 0 0 0 0 0 0 0
3.52205 4.98814e-12 4.79228e-12 1.95855e-13 0.0392641 0.00984577 0 0 0 0 0 0 0 0 0 0 0 0 0 0 0 0 0 0 0 0 0 0 0 0 0 0 0 0 0 0 0 0 0 0 0 0 0 0 0 0 0 0
3.70284 4.57789e-12 4.41817e-12 1.59712e-13 0.0348877 0.00892623 0 0 0 0 0 0 0 0 0 0 0 0 0 0 0 0 0 0 0 0 0 0 0 0 0 0 0 0 0 0 0 0 0 0 0 0 0 0 0 0 0 0
3.89291 4.21626e-12 4.08613e-12 1.30129e-13 0.0308637 0.00809227 0 0 0 0 0 0 0 0 0 0 0 0 0 0 0 0 0 0 0 0 0 0 0 0 0 0 0 0 0 0 0 0 0 0 0 0 0 0 0 0 0 0
4.09273 3.89056e-12 3.78461e-12 1.05954e-13 0.0272336 0.00733662 0 0 0 0 0 0 0 0 0 0 0 0 0 0 0 0 0 0 0 0 0 0 0 0 0 0 0 0 0 0 0 0 0 0 0 0 0 0 0 0 0 0
4.30281 3.59835e-12 3.51215e-12 8.62027e-14 0.0239561 0.00665185 0 0 0 0 0 0 0 0 0 0 0 0 0 0 0 0 0 0 0 0 0 0 0 0 0 0 0 0 0 0 0 0 0 0 0 0 0 0 0 0 0 0
4.52368 3.33962e-12 3.26957e-12 7.0052e-14 0.020976 0.00603101 0 0 0 0 0 0 0 0 0 0 0 0 0 0 0 0 0 0 0 0 0 0 0 0 0 0 0 0 0 0 0 0 0 0 0 0 0 0 0 0 0 0
4.75588 3.11204e-12 3.05524e-12 5.67976e-14 0.0182509 0.005467 0 0 0 0 0 0 0 0 0 0 0 0 0 0 0 0 0 0 0 0 0 0 0 0 0 0 0 0 0 0 0 0 0 0 0 0 0 0 0 0 0 0
5 2.91671e-12 2.8708e-12 4.59146e-14 0.0157419 0.00495552 0 0 0 0 0 0 0 0 0 0 0 0 0 0 0 0 0 0 0 0 0 0 0 0 0 0 0 0 0 0 0 0 0 0 0 0 0 0 0 0 0 0
5.25665 2.80163e-12 2.76478e-12 3.6847e-14 0.013152 0.00448826 0 0 0 0 0 0 0 0 0 0 0 0 0 0 0 0 0 0 0 0 0 0 0 0 0 0 0 0 0 0 0 0 0 0 0 0 0 0 0 0 0 0
5.52648 2.71895e-12 2.68923e-12 2.97203e-14 0.0109308 0.00406953 0 0 0 0 0 0 0 0 0 0 0 0 0 0 0 0 0 0 0 0 0 0 0 0 0 0 0 0 0 0 0 0 0 0 0 0 0 0 0 0 0 0
5.81015 2.71152e-12 2.68767e-12 2.38494e-14 0.00879558 0.00368844 0 0 0 0 0 0 0 0 0 0 0 0 0 0 0 0 0 0 0 0 0 0 0 0 0 0 0 0 0 0 0 0 0 0 0 0 0 0 0 0 0 0
6.10839 2.93948e-12 2.92033e-12 1.91557e-14 0.0065167 0.00334438 0 0 0 0 0 0 0 0 0 0 0 0 0 0 0 0 0 0 0 0 0 0 0 0 0 0 0 0 0 0 0 0 1.4013e-45 0 4.2039e-45 0 9.80909e-45 0 2.24208e-44 0 5.60519e-44 0
6.42193 3.04917e-12 3.03378e-12 1.53903e-14 0.00504737 0.00303423 0 0 0 0 0 0 0 0 0 0 0 0 0 0 0 0 0 0 0 0 0 0 0 0 1.4013e-45 0 4.2039e-45 0 1.54143e-44 0 5.04467e-44 0 1.48538e-43 0 4.07778e-43 0 1.02295e-42 0 2.40463e-42 0 5.57156e-42 0
6.75157 3.28911e-12 3.27676e-12 1.23459e-14 0.00375356 0.00275335 0 0 0 0 0 0 0 0 0 0 0 0 0 0 0 0 0 0 1.4013e-45 0 7.00649e-45 0 3.50325e-44 0 1.45735e-43 0 5.395e-43 0 1.74462e-42 0 5.23385e-42 0 1.46183e-41 0 3.81686e-41 0 9.14277e-41 0 2.0625e-40 0 4.58603e-40 0
7.09813 3.41539e-12 3.4055e-12 9.88451e-15 0.00289411 0.0024994 0 0 0 0 0 0 0 0 0 0 0 0 0 0 2.8026e-45 0 1.96182e-44 0 1.38729e-43 0 7.59504e-43 0 3.46821e-42 0 1.37187e-41 0 4.74732e-41 0 1.45022e-40 0 4.123e-40 0 1.09531e-39 0 2.72893e-39 0 6.26402e-39 0 1.35805e-38 0 2.90412e-38 0
7.46248 3.67519e-12 3.66745e-12 7.73558e-15 0.00210481 0.00226432 0 0 0 0 0 0 0 0 0 0 1.4013e-45 0 2.10195e-44 0 2.52234e-43 0 2.12717e-42 0 1.33418e-41 0 6.73786e-41 0 2.8589e-40 0 1.05747e-39 0 3.4441e-39 0 9.96278e-39 0 2.69156e-38 0 6.81729e-38 0 1.62446e-37 0 3.58057e-37 0 7.4749e-37 0 1.54024e-36 0
7.84553 4.4414e-12 4.43533e-12 6.06774e-15 0.00136618 0.00205178 0 0 0 0 0 0 0 0 4.2039e-45 0 1.31722e-43 0 2.40042e-42 0 2.63472e-41 0 1.99947e-40 0 1.14662e-39 0 5.35024e-39 0 2.11544e-38 0 7.34065e-38 0 2.25685e-37 0 6.19849e-37 0 1.59528e-36 0 3.86134e-36 0 8.81911e-36 0 1.87028e-35 0 3.76664e-35 0 7.49218e-35 0
8.24824 5.64174e-12 5.63702e-12 4.72295e-15 0.000837144 0.00185741 0 0 0 0 0 0 4.2039e-45 0 4.72238e-43 0 1.48341e-41 0 2.35008e-40 0 2.29496e-39 0 1.57755e-38 0 8.30717e-38 0 3.59539e-37 0 1.3293e-36 0 4.34088e-36 0 1.26337e-35 0 3.30286e-35 0 8.11701e-35 0 1.88172e-34 0 4.12789e-34 0 8.43862e-34 0 1.64238e-33 0 3.15897e-33 0
8.67162 7.56545e-12 7.56162e-12 3.83326e-15 0.00050668 0.00168492 0 0 0 0 1.4013e-45 0 6.2638e-43 0 5.28346e-41 0 1.40188e-39 0 1.94062e-38 0 1.69557e-37 0 1.06083e-36 0 5.151e-36 0 2.07548e-35 0 7.19897e-35 0 2.21886e-34 0 6.1296e-34 0 1.52902e-33 0 3.59628e-33 0 8.00171e-33 0 1.68927e-32 0 3.33488e-32 0 6.28294e-32 0 1.17048e-31 0
9.11674 9.9226e-12 9.91928e-12 3.31406e-15 0.000333991 0.00153235 0 0 0 0 1.33123e-43 0 6.76533e-41 0 4.59875e-39 0 1.03973e-37 0 1.266e-36 0 9.95049e-36 0 5.69241e-35 0 2.55879e-34 0 9.63192e-34 0 3.14407e-33 0 9.17242e-33 0 2.41124e-32 0 5.75228e-32 0 1.29761e-31 0 2.77661e-31 0 5.65182e-31 0 1.07931e-30 0 1.97151e-30 0 3.56295e-30 0
9.5847 1.17895e-11 1.17864e-11 3.11498e-15 0.000264216 0.00140428 0 0 0 0 1.40873e-41 0 5.27541e-39 0 2.91842e-37 0 5.6664e-36 0 6.10688e-35 0 4.34023e-34 0 2.28025e-33 0 9.52474e-33 0 3.36065e-32 0 1.03542e-31 0 2.86686e-31 0 7.18901e-31 0 1.64374e-30 0 3.56359e-30 0 7.34731e-30 0 1.44454e-29 0 2.67283e-29 0 4.74077e-29 0 8.32359e-29 0
10.0767 1.22774e-11 1.22744e-11 3.00579e-15 0.000244822 0.00129983 0 0 3.08286e-44 0 1.03543e-39 0 2.90348e-37 0 1.32043e-35 0 2.21811e-34 0 2.12854e-33 0 1.37466e-32 0 6.6602e-32 0 2.59444e-31 0 8.60756e-31 0 2.51024e-30 0 6.61316e-30 0 1.58554e-29 0 3.48181e-29 0 7.26863e-29 0 1.44661e-28 0 2.75181e-28 0 4.94097e-28 0 8.52192e-28 0 1.45567e-27 0
10.5939 1.13873e-11 1.13846e-11 2.76207e-15 0.000242557 0.00120965 0 0 2.65686e-42 0 5.43945e-38 0 1.15836e-35 0 4.3722e-34 0 6.39947e-33 0 5.49914e-32 0 3.2423e-31 0 1.45441e-30 0 5.30165e-30 0 1.65889e-29 0 4.59153e-29 0 1.15375e-28 0 2.65056e-28 0 5.60127e-28 0 1.12805e-27 0 2.17086e-27 0 4.00188e-27 0 6.98309e-27 0 1.17278e-26 0 1.95159e-26 0
11.1377 1.00095e-11 1.00071e-11 2.43777e-15 0.000243546 0.00112765 4.2039e-45 0 1.74207e-40 0 2.19667e-36 0 3.60062e-34 0 1.13827e-32 0 1.46146e-31 0 1.13065e-30 0 6.11315e-30 0 2.54844e-29 0 8.72112e-29 0 2.58102e-28 0 6.79742e-28 0 1.63291e-27 0 3.60206e-27 0 7.33895e-27 0 1.42834e-26 0 2.66229e-26 0 4.76341e-26 0 8.08902e-26 0 1.32455e-25 0 2.15003e-25 0
11.7094 8.33833e-12 8.33622e-12 2.1118e-15 0.000253264 0.00105358 4.06377e-43 0 8.66353e-39 0 6.88943e-35 0 8.80379e-33 0 2.3513e-31 0 2.66518e-30 0 1.86589e-29 0 9.29047e-29 0 3.61223e-28 0 1.16409e-27 0 3.26738e-27 0 8.20765e-27 0 1.88909e-26 0 4.00929e-26 0 7.88968e-26 0 1.4864e-25 0 2.68755e-25 0 4.67395e-25 0 7.73453e-25 0 1.23638e-24 0 1.95999e-24 0
12.3105 5.86367e-12 5.86193e-12 1.74098e-15 0.00029691 0.000983823 2.24222e-41 0 2.94252e-37 0 1.50928e-33 0 1.52198e-31 0 3.46253e-30 0 3.48604e-29 0 2.21936e-28 0 1.02174e-27 0 3.7178e-27 0 1.13158e-26 0 3.02004e-26 0 7.25273e-26 0 1.60273e-25 0 3.27882e-25 0 6.24246e-25 0 1.14026e-24 0 2.00293e-24 0 3.39046e-24 0 5.47429e-24 0 8.55261e-24 0 1.32566e-23 0
12.9424 3.62674e-12 3.62544e-12 1.30506e-15 0.000359844 0.000901561 8.69915e-40 0 7.18572e-36 0 2.42874e-32 0 1.95521e-30 0 3.81878e-29 0 3.43475e-28 0 1.99775e-27 0 8.53648e-27 0 2.91633e-26 0 8.40685e-26 0 2.13868e-25 0 4.92106e-25 0 1.04617e-24 0 2.06673e-24 0 3.81303e-24 0 6.76303e-24 0 1.15574e-23 0 1.90674e-23 0 3.00747e-23 0 4.59739e-23 0 6.97513e-23 0
