# 2.09184e-05 1 61 : grain size, compostion index, size index
# Heating and cooling timescale: 0.00670542 741485
# Ratio of heating to cooling to determine stochastic cutoff: 100
# Equilibrium emission is recorded even for those grains in the stochastic regime.
# Emission spectrum was computed for: 
# Type: IRSF
# Scales: 0.25 0.5 1 1.5 2 2.5 3 3.5 4 4.5 5 5.5 6 6.5 7 7.5 8 8.5 9 9.5 10
# StochasticallyHeated: 0 0 0 0 0 0 0 0 0 0 0 0 0 0 0 0 0 0 0 0 0
# Temperature: -1
# Wavelength  CExt  CAbs  CSca  Albedo G EqEm1 StEm1 EqEm2 StEm2 EqEm3 StEm3 EqEm4 StEm4 EqEm5 StEm5 EqEm6 StEm6 EqEm7 StEm7 EqEm8 StEm8 EqEm9 StEm9 EqEm10 StEm10 EqEm11 StEm11 EqEm12 StEm12 EqEm13 StEm13 EqEm14 StEm14 EqEm15 StEm15 EqEm16 StEm16 EqEm17 StEm17 EqEm18 StEm18 EqEm19 StEm19 EqEm20 StEm20 EqEm21 StEm21
0.05 2.92316e-09 1.03696e-09 1.8862e-09 0.645261 0.856176 0 0 0 0 0 0 0 0 0 0 0 0 0 0 0 0 0 0 0 0 0 0 0 0 0 0 0 0 0 0 0 0 0 0 0 0 0 0 0 0 0 0
0.0525665 2.94477e-09 1.03543e-09 1.90933e-09 0.648381 0.844254 0 0 0 0 0 0 0 0 0 0 0 0 0 0 0 0 0 0 0 0 0 0 0 0 0 0 0 0 0 0 0 0 0 0 0 0 0 0 0 0 0 0
0.0552647 2.96754e-09 1.0391e-09 1.92843e-09 0.649843 0.834324 0 0 0 0 0 0 0 0 0 0 0 0 0 0 0 0 0 0 0 0 0 0 0 0 0 0 0 0 0 0 0 0 0 0 0 0 0 0 0 0 0 0
0.0581015 2.98821e-09 1.04878e-09 1.93943e-09 0.649028 0.828112 0 0 0 0 0 0 0 0 0 0 0 0 0 0 0 0 0 0 0 0 0 0 0 0 0 0 0 0 0 0 0 0 0 0 0 0 0 0 0 0 0 0
0.0610839 3.00892e-09 1.04705e-09 1.96187e-09 0.652019 0.81976 0 0 0 0 0 0 0 0 0 0 0 0 0 0 0 0 0 0 0 0 0 0 0 0 0 0 0 0 0 0 0 0 0 0 0 0 0 0 0 0 0 0
0.0642193 3.04045e-09 1.02722e-09 2.01323e-09 0.662149 0.802885 0 0 0 0 0 0 0 0 0 0 0 0 0 0 0 0 0 0 0 0 0 0 0 0 0 0 0 0 0 0 0 0 0 0 0 0 0 0 0 0 0 0
0.0675157 3.08637e-09 1.01826e-09 2.06811e-09 0.67008 0.784769 0 0 0 0 0 0 0 0 0 0 0 0 0 0 0 0 0 0 0 0 0 0 0 0 0 0 0 0 0 0 0 0 0 0 0 0 0 0 0 0 0 0
0.0709813 3.13608e-09 1.04931e-09 2.08677e-09 0.665408 0.778442 0 0 0 0 0 0 0 0 0 0 0 0 0 0 0 0 0 0 0 0 0 0 0 0 0 0 0 0 0 0 0 0 0 0 0 0 0 0 0 0 0 0
0.0746248 3.17933e-09 1.09719e-09 2.08213e-09 0.654898 0.779721 0 0 0 0 0 0 0 0 0 0 0 0 0 0 0 0 0 0 0 0 0 0 0 0 0 0 0 0 0 0 0 0 0 0 0 0 0 0 0 0 0 0
0.0784553 3.21291e-09 1.14564e-09 2.06727e-09 0.643427 0.783997 0 0 0 0 0 0 0 0 0 0 0 0 0 0 0 0 0 0 0 0 0 0 0 0 0 0 0 0 0 0 0 0 0 0 0 0 0 0 0 0 0 0
0.0824824 3.2359e-09 1.19089e-09 2.04501e-09 0.631976 0.788602 0 0 0 0 0 0 0 0 0 0 0 0 0 0 0 0 0 0 0 0 0 0 0 0 0 0 0 0 0 0 0 0 0 0 0 0 0 0 0 0 0 0
0.0867162 3.25728e-09 1.21427e-09 2.04301e-09 0.627214 0.786677 0 0 0 0 0 0 0 0 0 0 0 0 0 0 0 0 0 0 0 0 0 0 0 0 0 0 0 0 0 0 0 0 0 0 0 0 0 0 0 0 0 0
0.0911674 3.2844e-09 1.22992e-09 2.05447e-09 0.625525 0.781301 0 0 0 0 0 0 0 0 0 0 0 0 0 0 0 0 0 0 0 0 0 0 0 0 0 0 0 0 0 0 0 0 0 0 0 0 0 0 0 0 0 0
0.095847 3.30504e-09 1.25211e-09 2.05293e-09 0.621152 0.778639 0 0 0 0 0 0 0 0 0 0 0 0 0 0 0 0 0 0 0 0 0 0 0 0 0 0 0 0 0 0 0 0 0 0 0 0 0 0 0 0 0 0
0.100767 3.29979e-09 1.29404e-09 2.00575e-09 0.60784 0.786766 0 0 0 0 0 0 0 0 0 0 0 0 0 0 0 0 0 0 0 0 0 0 0 0 0 0 0 0 0 0 0 0 0 0 0 0 0 0 0 0 0 0
0.105939 3.29008e-09 1.33164e-09 1.95844e-09 0.595256 0.798016 0 0 0 0 0 0 0 0 0 0 0 0 0 0 0 0 0 0 0 0 0 0 0 0 0 0 0 0 0 0 0 0 0 0 0 0 0 0 0 0 0 0
0.111377 3.25995e-09 1.39265e-09 1.8673e-09 0.5728 0.82041 0 0 0 0 0 0 0 0 0 0 0 0 0 0 0 0 0 0 0 0 0 0 0 0 0 0 0 0 0 0 0 0 0 0 0 0 0 0 0 0 0 0
0.117094 3.25995e-09 1.47292e-09 1.78703e-09 0.548178 0.848542 0 0 0 0 0 0 0 0 0 0 0 0 0 0 0 0 0 0 0 0 0 0 0 0 0 0 0 0 0 0 0 0 0 0 0 0 0 0 0 0 0 0
0.123105 3.27202e-09 1.53427e-09 1.73775e-09 0.531094 0.868302 0 0 0 0 0 0 0 0 0 0 0 0 0 0 0 0 0 0 0 0 0 0 0 0 0 0 0 0 0 0 0 0 0 0 0 0 0 0 0 0 0 0
0.129424 3.28627e-09 1.59243e-09 1.69385e-09 0.515431 0.885906 0 0 0 0 0 0 0 0 0 0 0 0 0 0 0 0 0 0 0 0 0 0 0 0 0 0 0 0 0 0 0 0 0 0 0 0 0 0 0 0 0 0
0.136067 3.2993e-09 1.64281e-09 1.65649e-09 0.502074 0.899668 0 0 0 0 0 0 0 0 0 0 0 0 0 0 0 0 0 0 0 0 0 0 0 0 0 0 0 0 0 0 0 0 0 0 0 0 0 0 0 0 0 0
0.143051 3.28502e-09 1.6658e-09 1.61922e-09 0.492911 0.907975 0 0 0 0 0 0 0 0 0 0 0 0 0 0 0 0 0 0 0 0 0 0 0 0 0 0 0 0 0 0 0 0 0 0 0 0 0 0 0 0 0 0
0.150394 3.22653e-09 1.65182e-09 1.57471e-09 0.488052 0.914757 0 0 0 0 0 0 0 0 0 0 0 0 0 0 0 0 0 0 0 0 0 0 0 0 0 0 0 0 0 0 0 0 0 0 0 0 0 0 0 0 0 0
0.158114 3.10812e-09 1.62098e-09 1.48714e-09 0.478468 0.912293 0 0 0 0 0 0 0 0 0 0 0 0 0 0 0 0 0 0 0 0 0 0 0 0 0 0 0 0 0 0 0 0 0 0 0 0 0 0 0 0 0 0
0.16623 3.09795e-09 1.58066e-09 1.51728e-09 0.489771 0.900807 0 0 0 0 0 0 0 0 0 0 0 0 0 0 0 0 0 0 0 0 0 0 0 0 0 0 0 0 0 0 0 0 0 0 0 0 0 0 0 0 0 0
0.174762 3.17865e-09 1.53791e-09 1.64074e-09 0.516175 0.87509 0 0 0 0 0 0 0 0 0 0 0 0 0 0 0 0 0 0 0 0 0 0 0 0 0 0 0 0 0 0 0 0 0 0 0 0 0 0 0 0 0 0
0.183733 3.28198e-09 1.49821e-09 1.78377e-09 0.543505 0.84186 0 0 0 0 0 0 0 0 0 0 0 0 0 0 0 0 0 0 0 0 0 0 0 0 0 0 0 0 0 0 0 0 0 0 0 0 0 0 0 0 0 0
0.193164 3.39457e-09 1.47082e-09 1.92375e-09 0.566713 0.808074 0 0 0 0 0 0 0 0 0 0 0 0 0 0 0 0 0 0 0 0 0 0 0 0 0 0 0 0 0 0 0 0 0 0 0 0 0 0 0 0 0 0
0.203079 3.53018e-09 1.46385e-09 2.06633e-09 0.585334 0.781909 0 0 0 0 0 0 0 0 0 0 0 0 0 0 0 0 0 0 0 0 0 0 0 0 0 0 0 0 0 0 0 0 0 0 0 0 0 0 0 0 0 0
0.213503 3.68157e-09 1.46832e-09 2.21325e-09 0.601169 0.763137 0 0 0 0 0 0 0 0 0 0 0 0 0 0 0 0 0 0 0 0 0 0 0 0 0 0 0 0 0 0 0 0 0 0 0 0 0 0 0 0 0 0
0.224463 3.80968e-09 1.48047e-09 2.32921e-09 0.611392 0.750006 0 0 0 0 0 0 0 0 0 0 0 0 0 0 0 0 0 0 0 0 0 0 0 0 0 0 0 0 0 0 0 0 0 0 0 0 0 0 0 0 0 0
0.235984 3.85665e-09 1.46757e-09 2.38909e-09 0.619471 0.736954 0 0 0 0 0 0 0 0 0 0 0 0 0 0 0 0 0 0 0 0 0 0 0 0 0 0 0 0 0 0 0 0 0 0 0 0 0 0 0 0 0 0
0.248097 3.834e-09 1.46168e-09 2.37232e-09 0.618757 0.726919 0 0 0 0 0 0 0 0 0 0 0 0 0 0 0 0 0 0 0 0 0 0 0 0 0 0 0 0 0 0 0 0 0 0 0 0 0 0 0 0 0 0
0.260832 3.78389e-09 1.47308e-09 2.31081e-09 0.610697 0.719438 0 0 0 0 0 0 0 0 0 0 0 0 0 0 0 0 0 0 0 0 0 0 0 0 0 0 0 0 0 0 0 0 0 0 0 0 0 0 0 0 0 0
0.274221 3.74502e-09 1.49592e-09 2.2491e-09 0.600557 0.714744 0 0 0 0 0 0 0 0 0 0 0 0 0 0 0 0 0 0 0 0 0 0 0 0 0 0 0 0 0 0 0 0 0 0 0 0 0 0 0 0 0 0
0.288297 3.73156e-09 1.54757e-09 2.18399e-09 0.585275 0.716147 0 0 0 0 0 0 0 0 0 0 0 0 0 0 0 0 0 0 0 0 0 0 0 0 0 0 0 0 0 0 0 0 0 0 0 0 0 0 0 0 0 0
0.303095 3.73181e-09 1.59006e-09 2.14175e-09 0.573916 0.715491 0 0 0 0 0 0 0 0 0 0 0 0 0 0 0 0 0 0 0 0 0 0 0 0 0 0 0 0 0 0 0 0 0 0 0 0 0 0 0 0 0 0
0.318653 3.7377e-09 1.62762e-09 2.11008e-09 0.564539 0.714005 0 0 0 0 0 0 0 0 0 0 0 0 0 0 0 0 0 0 0 0 0 0 0 0 0 0 0 0 0 0 0 0 0 0 0 0 0 0 0 0 0 0
0.335009 3.75476e-09 1.6666e-09 2.08815e-09 0.556135 0.712749 0 0 0 0 0 0 0 0 0 0 0 0 0 0 0 0 0 0 0 0 0 0 0 0 0 0 0 0 0 0 0 0 0 0 0 0 0 0 0 0 0 0
0.352205 3.778e-09 1.70524e-09 2.07277e-09 0.548641 0.710374 0 0 0 0 0 0 0 0 0 0 0 0 0 0 0 0 0 0 0 0 0 0 0 0 0 0 0 0 0 0 0 0 0 0 0 0 0 0 0 0 0 0
0.370284 3.79956e-09 1.73939e-09 2.06017e-09 0.542214 0.705519 0 0 0 0 0 0 0 0 0 0 0 0 0 0 0 0 0 0 0 0 0 0 0 0 0 0 0 0 0 0 0 0 0 0 0 0 0 0 0 0 0 0
0.389291 3.81696e-09 1.7656e-09 2.05137e-09 0.537434 0.697698 0 0 0 0 0 0 0 0 0 0 0 0 0 0 0 0 0 0 0 0 0 0 0 0 0 0 0 0 0 0 0 0 0 0 0 0 0 0 0 0 0 0
0.409273 3.83357e-09 1.78956e-09 2.044e-09 0.533186 0.688742 0 0 0 0 0 0 0 0 0 0 0 0 0 0 0 0 0 0 0 0 0 0 0 0 0 0 0 0 0 0 0 0 0 0 0 0 0 0 0 0 0 0
0.430281 3.85181e-09 1.81665e-09 2.03516e-09 0.528364 0.679656 0 0 0 0 0 0 0 0 0 0 0 0 0 0 0 0 0 0 0 0 0 0 0 0 0 0 0 0 0 0 0 0 0 0 0 0 0 0 0 0 0 0
0.452368 3.87256e-09 1.8508e-09 2.02175e-09 0.522072 0.669493 0 0 0 0 0 0 0 0 0 0 0 0 0 0 0 0 0 0 0 0 0 0 0 0 0 0 0 0 0 0 0 0 0 0 0 0 0 0 0 0 0 0
0.475588 3.89883e-09 1.89158e-09 2.00725e-09 0.514834 0.656941 0 0 0 0 0 0 0 0 0 0 0 0 0 0 0 0 0 0 0 0 0 0 0 0 0 0 0 0 0 0 0 0 0 0 0 0 0 0 0 0 0 0
0.5 3.92879e-09 1.92799e-09 2.0008e-09 0.509267 0.642239 0 0 0 0 0 0 0 0 0 0 0 0 0 0 0 0 0 0 0 0 0 0 0 0 0 0 0 0 0 0 0 0 0 0 0 0 0 0 0 0 0 0
0.525665 3.9453e-09 1.94059e-09 2.00471e-09 0.508127 0.621743 0 0 0 0 0 0 0 0 0 0 0 0 0 0 0 0 0 0 0 0 0 0 0 0 0 0 0 0 0 0 0 0 0 0 0 0 0 0 0 0 0 0
0.552648 3.99385e-09 1.94151e-09 2.05234e-09 0.513876 0.590798 0 0 0 0 0 0 0 0 0 0 0 0 0 0 0 0 0 0 0 0 0 0 0 0 0 0 0 0 0 0 0 0 0 0 0 0 0 0 0 0 0 0
0.581015 4.10965e-09 1.92919e-09 2.18046e-09 0.53057 0.560461 0 0 0 0 0 0 0 0 0 0 0 0 0 0 0 0 0 0 0 0 0 0 0 0 0 0 0 0 0 0 0 0 0 0 0 0 0 0 0 0 0 0
0.610839 4.2623e-09 1.89526e-09 2.36705e-09 0.555345 0.543274 0 0 0 0 0 0 0 0 0 0 0 0 0 0 0 0 0 0 0 0 0 0 0 0 0 0 0 0 0 0 0 0 0 0 0 0 0 0 0 0 0 0
0.642193 4.45616e-09 1.89123e-09 2.56494e-09 0.575593 0.539609 0 0 0 0 0 0 0 0 0 0 0 0 0 0 0 0 0 0 0 0 0 0 0 0 0 0 0 0 0 0 0 0 0 0 0 0 0 0 0 0 0 0
0.675157 4.66174e-09 1.9304e-09 2.73135e-09 0.585906 0.540758 0 0 0 0 0 0 0 0 0 0 0 0 0 0 0 0 0 0 0 0 0 0 0 0 0 0 0 0 0 0 0 0 0 0 0 0 0 0 0 0 0 0
0.709813 4.83559e-09 1.97692e-09 2.85866e-09 0.591172 0.530409 0 0 0 0 0 0 0 0 0 0 0 0 0 0 0 0 0 0 0 0 0 0 0 0 0 0 0 0 0 0 0 0 0 0 0 0 0 0 0 0 0 0
0.746248 4.7604e-09 1.88751e-09 2.87289e-09 0.603497 0.496251 0 0 0 0 0 0 0 0 0 0 0 0 0 0 0 0 0 0 0 0 0 0 0 0 0 0 0 0 0 0 0 0 0 0 0 0 0 0 0 0 0 0
0.784553 4.59137e-09 1.71767e-09 2.87369e-09 0.625891 0.453261 0 0 0 0 0 0 0 0 0 0 0 0 0 0 0 0 0 0 0 0 0 0 0 0 0 0 0 0 0 0 0 0 0 0 0 0 0 0 0 0 0 0
0.824824 4.54918e-09 1.61576e-09 2.93342e-09 0.644823 0.414537 0 0 0 0 0 0 0 0 0 0 0 0 0 0 0 0 0 0 0 0 0 0 0 0 0 0 0 0 0 0 0 0 0 0 0 0 0 0 0 0 0 0
0.867162 4.61654e-09 1.57608e-09 3.04046e-09 0.658601 0.380411 0 0 0 0 0 0 0 0 0 0 0 0 0 0 0 0 0 0 0 0 0 0 0 0 0 0 0 0 0 0 0 0 0 0 0 0 0 0 0 0 0 0
0.911674 4.75779e-09 1.57854e-09 3.17925e-09 0.668219 0.353195 0 0 0 0 0 0 0 0 0 0 0 0 0 0 0 0 0 0 0 0 0 0 0 0 0 0 0 0 0 0 0 0 0 0 0 0 0 0 0 0 0 0
0.95847 4.90095e-09 1.61251e-09 3.28844e-09 0.67098 0.335698 0 0 0 0 0 0 0 0 0 0 0 0 0 0 0 0 0 0 0 0 0 0 0 0 0 0 0 0 0 0 0 0 0 0 0 0 0 0 0 0 0 0
1.00767 4.87935e-09 1.63139e-09 3.24797e-09 0.665655 0.325136 0 0 0 0 0 0 0 0 0 0 0 0 0 0 0 0 0 0 0 0 0 0 0 0 0 0 0 0 0 0 0 0 0 0 0 0 0 0 0 0 0 0
1.05939 4.59756e-09 1.60292e-09 2.99464e-09 0.651354 0.31047 0 0 0 0 0 0 0 0 0 0 0 0 0 0 0 0 0 0 0 0 0 0 0 0 0 0 0 0 0 0 0 0 0 0 0 0 0 0 0 0 0 0
1.11377 4.24659e-09 1.55089e-09 2.6957e-09 0.634793 0.283083 0 0 0 0 0 0 0 0 0 0 0 0 0 0 0 0 0 0 0 0 0 0 0 0 0 0 0 0 0 0 0 0 0 0 0 0 0 0 0 0 0 0
1.17094 3.98443e-09 1.52021e-09 2.46422e-09 0.618462 0.246658 0 0 0 0 0 0 0 0 0 0 0 0 0 0 0 0 0 0 0 0 0 0 0 0 0 0 0 0 0 0 0 0 0 0 0 0 0 0 0 0 0 0
1.23105 3.79906e-09 1.50901e-09 2.29005e-09 0.602793 0.209196 0 0 0 0 0 0 0 0 0 0 0 0 0 0 0 0 0 0 0 0 0 0 0 0 0 0 0 0 0 0 0 0 0 0 0 0 0 0 0 0 0 0
1.29424 3.64218e-09 1.50481e-09 2.13738e-09 0.586839 0.175221 0 0 0 0 0 0 0 0 0 0 0 0 0 0 0 0 0 0 0 0 0 0 0 0 0 0 0 0 0 0 0 0 0 0 0 0 0 0 0 0 0 0
1.36067 3.4807e-09 1.49786e-09 1.98284e-09 0.569668 0.146008 0 0 0 0 0 0 0 0 0 0 0 0 0 0 0 0 0 0 0 0 0 0 0 0 0 0 0 0 0 0 0 0 0 0 0 0 0 0 0 0 0 0
1.43051 3.29667e-09 1.48047e-09 1.8162e-09 0.55092 0.121347 0 0 0 0 0 0 0 0 0 0 0 0 0 0 0 0 0 0 0 0 0 0 0 0 0 0 0 0 0 0 0 0 0 0 0 0 0 0 0 0 0 0
1.50394 3.08439e-09 1.44831e-09 1.63608e-09 0.530438 0.100783 0 0 0 0 0 0 0 0 0 0 0 0 0 0 0 0 0 0 0 0 0 0 0 0 0 0 0 0 0 0 0 0 0 0 0 0 0 0 0 0 0 0
1.58114 2.84711e-09 1.40022e-09 1.4469e-09 0.508198 0.0835621 0 0 0 0 0 0 0 0 0 0 0 0 0 0 0 0 0 0 0 0 0 0 0 0 0 0 0 0 0 0 0 0 0 0 0 0 0 0 0 0 0 0
1.6623 2.59383e-09 1.33771e-09 1.25611e-09 0.484269 0.0691304 0 0 0 0 0 0 0 0 0 0 0 0 0 0 0 0 0 0 0 0 0 0 0 0 0 0 0 0 0 0 0 0 0 0 0 0 0 0 0 0 0 0
1.74763 2.3369e-09 1.2649e-09 1.07201e-09 0.45873 0.0572526 0 0 0 0 0 0 0 0 0 0 0 0 0 0 0 0 0 0 0 0 0 0 0 0 0 0 0 0 0 0 0 0 0 0 0 0 0 0 0 0 0 0
1.83733 2.08739e-09 1.18605e-09 9.01333e-10 0.4318 0.0477601 0 0 0 0 0 0 0 0 0 0 0 0 0 0 0 0 0 0 0 0 0 0 0 0 0 0 0 0 0 0 0 0 0 0 0 0 0 0 0 0 0 0
1.93164 1.85279e-09 1.1043e-09 7.48492e-10 0.403981 0.0402997 0 0 0 0 0 0 0 0 0 0 0 0 0 0 0 0 0 0 0 0 0 0 0 0 0 0 0 0 0 0 0 0 0 0 0 0 0 0 0 0 0 0
2.03079 1.63769e-09 1.02218e-09 6.15512e-10 0.375841 0.0346179 0 0 0 0 0 0 0 0 0 0 0 0 0 0 0 0 0 0 0 0 0 0 0 0 0 0 0 0 0 0 0 0 0 0 0 0 0 0 0 0 0 0
2.13503 1.44446e-09 9.41477e-10 5.02982e-10 0.348215 0.0303695 0 0 0 0 0 0 0 0 0 0 0 0 0 0 0 0 0 0 0 0 0 0 0 0 0 0 0 0 0 0 0 0 0 0 0 0 0 0 0 0 0 0
2.24463 1.27252e-09 8.63673e-10 4.08845e-10 0.321289 0.0272849 0 0 0 0 0 0 0 0 0 0 0 0 0 0 0 0 0 0 0 0 0 0 0 0 0 0 0 0 0 0 0 0 0 0 0 0 0 0 0 0 0 0
2.35984 1.12057e-09 7.895e-10 3.31067e-10 0.295446 0.0252623 0 0 0 0 0 0 0 0 0 0 0 0 0 0 0 0 0 0 0 0 0 0 0 0 0 0 0 0 0 0 0 0 0 0 0 0 0 0 0 0 0 0
2.48097 9.86733e-10 7.1926e-10 2.67473e-10 0.27107 0.0239286 0 0 0 0 0 0 0 0 0 0 0 0 0 0 0 0 0 0 0 0 0 0 0 0 0 0 0 0 0 0 0 0 0 0 0 0 0 0 0 0 0 0
2.60832 8.69393e-10 6.53321e-10 2.16072e-10 0.248532 0.0228218 0 0 0 0 0 0 0 0 0 0 0 0 0 0 0 0 0 0 0 0 0 0 0 0 0 0 0 0 0 0 0 0 0 0 0 0 0 0 0 0 0 0
2.74221 7.66465e-10 5.92027e-10 1.74438e-10 0.227587 0.0219457 0 0 0 0 0 0 0 0 0 0 0 0 0 0 0 0 0 0 0 0 0 0 0 0 0 0 0 0 0 0 0 0 0 0 0 0 0 0 0 0 0 0
2.88297 6.7627e-10 5.3554e-10 1.4073e-10 0.208097 0.0214443 0 0 0 0 0 0 0 0 0 0 0 0 0 0 0 0 0 0 0 0 0 0 0 0 0 0 0 0 0 0 0 0 0 0 0 0 0 0 0 0 0 0
3.03095 5.97356e-10 4.83732e-10 1.13624e-10 0.190212 0.0210005 0 0 0 0 0 0 0 0 0 0 0 0 0 0 0 0 0 0 0 0 0 0 0 0 0 0 0 0 0 0 0 0 0 0 0 0 0 0 0 0 0 0
3.18653 5.28151e-10 4.36329e-10 9.18225e-11 0.173857 0.0205139 0 0 0 0 0 0 0 0 0 0 0 0 0 0 0 0 0 0 0 0 0 0 0 0 0 0 0 0 0 0 0 0 0 0 0 0 0 0 0 0 0 0
3.35009 4.67402e-10 3.93161e-10 7.42412e-11 0.158838 0.0199935 0 0 0 0 0 0 0 0 0 0 0 0 0 0 0 0 0 0 0 0 0 0 0 0 0 0 0 0 0 0 0 0 0 0 0 0 0 0 0 0 0 0
3.52205 4.14078e-10 3.54024e-10 6.00539e-11 0.14503 0.0194686 0 0 0 0 0 0 0 0 0 0 0 0 0 0 0 0 0 0 0 0 0 0 0 0 0 0 0 0 0 0 0 0 0 0 0 0 0 0 0 0 0 0
3.70284 3.67354e-10 3.18702e-10 4.86521e-11 0.132439 0.0188931 0 0 0 0 0 0 0 0 0 0 0 0 0 0 0 0 0 0 0 0 0 0 0 0 0 0 0 0 0 0 0 0 0 0 0 0 0 0 0 0 0 0
3.89291 3.26222e-10 2.86785e-10 3.94378e-11 0.120892 0.0182714 0 0 0 0 0 0 0 0 0 0 0 0 0 0 0 0 0 0 0 0 0 0 0 0 0 0 0 0 0 0 0 0 0 0 0 0 0 0 0 0 0 0
4.09273 2.90038e-10 2.58043e-10 3.19948e-11 0.110312 0.0174225 0 0 0 0 0 0 0 0 0 0 0 0 0 0 0 0 0 0 0 0 0 0 0 0 0 0 0 0 0 0 0 0 0 0 0 0 0 0 0 0 0 0
4.30281 2.58229e-10 2.32253e-10 2.59765e-11 0.100595 0.016554 0 0 0 0 0 0 0 0 0 0 0 0 0 0 0 0 0 0 0 0 0 0 0 0 0 0 0 0 0 0 0 0 0 0 0 0 0 0 0 0 0 0
4.52368 2.30255e-10 2.09139e-10 2.11167e-11 0.0917098 0.015668 0 0 0 0 0 0 0 0 0 0 0 0 0 0 0 0 0 0 0 0 0 0 0 0 0 0 0 0 0 0 0 0 0 0 0 0 0 0 0 0 0 0
4.75588 2.05548e-10 1.88375e-10 1.71732e-11 0.0835482 0.0147657 0 0 0 0 0 0 0 0 0 0 0 0 0 0 0 0 0 0 0 0 0 0 0 0 0 0 0 0 0 0 0 0 0 0 0 0 1.4013e-45 0 1.4013e-45 0 4.2039e-45 0
5 1.837e-10 1.69727e-10 1.39726e-11 0.0760621 0.0137416 0 0 0 0 0 0 0 0 0 0 0 0 0 0 0 0 0 0 0 0 0 0 0 0 0 0 0 0 1.4013e-45 0 7.00649e-45 0 1.82169e-44 0 4.62428e-44 0 1.16308e-43 0 2.69049e-43 0 5.89947e-43 0
5.25665 1.64453e-10 1.53072e-10 1.13802e-11 0.0692004 0.0127052 0 0 0 0 0 0 0 0 0 0 0 0 0 0 0 0 0 0 0 0 1.4013e-45 0 5.60519e-45 0 2.38221e-44 0 8.26766e-44 0 2.70451e-43 0 7.88931e-43 0 2.07672e-42 0 5.25067e-42 0 1.25416e-41 0 2.7806e-41 0 5.85448e-41 0
5.52648 1.47411e-10 1.38137e-10 9.2745e-12 0.0629159 0.011738 0 0 0 0 0 0 0 0 0 0 0 0 0 0 0 0 4.2039e-45 0 2.94273e-44 0 1.55544e-43 0 6.9084e-43 0 2.68769e-42 0 8.88563e-42 0 2.7401e-41 0 7.59742e-41 0 1.90542e-40 0 4.60559e-40 0 1.05425e-39 0 2.24838e-39 0 4.56495e-39 0
5.81015 1.32266e-10 1.24708e-10 7.55801e-12 0.0571426 0.0108265 0 0 0 0 0 0 0 0 0 0 0 0 5.60519e-45 0 6.44597e-44 0 5.33895e-43 0 3.25241e-42 0 1.59846e-41 0 6.57938e-41 0 2.3952e-40 0 7.46983e-40 0 2.18016e-39 0 5.75144e-39 0 1.37912e-38 0 3.19288e-38 0 7.0191e-38 0 1.44261e-37 0 2.82942e-37 0
6.10839 1.18798e-10 1.12637e-10 6.16085e-12 0.0518599 0.00990961 0 0 0 0 0 0 0 0 1.4013e-45 0 3.50325e-44 0 6.31986e-43 0 6.74585e-42 0 5.05813e-41 0 2.82422e-40 0 1.28404e-39 0 4.93254e-39 0 1.68588e-38 0 4.97369e-38 0 1.37767e-37 0 3.46628e-37 0 7.96423e-37 0 1.7698e-36 0 3.74387e-36 0 7.42869e-36 0 1.40987e-35 0
6.42193 1.06826e-10 1.01801e-10 5.02481e-12 0.0470374 0.00922079 0 0 0 0 0 0 1.4013e-45 0 1.13505e-43 0 3.72745e-42 0 5.84902e-41 0 5.55972e-40 0 3.77811e-39 0 1.9396e-38 0 8.18993e-38 0 2.94603e-37 0 9.48268e-37 0 2.65365e-36 0 6.99371e-36 0 1.68214e-35 0 3.7111e-35 0 7.93144e-35 0 1.61756e-34 0 3.10401e-34 0 5.70956e-34 0
6.75157 9.61797e-11 9.20791e-11 4.10059e-12 0.0426347 0.0082989 0 0 0 0 0 0 1.30321e-43 0 1.12482e-41 0 3.11112e-40 0 4.26746e-39 0 3.63403e-38 0 2.24894e-37 0 1.06593e-36 0 4.19521e-36 0 1.41764e-35 0 4.30996e-35 0 1.14701e-34 0 2.88325e-34 0 6.64395e-34 0 1.41023e-33 0 2.90425e-33 0 5.72047e-33 0 1.06334e-32 0 1.89859e-32 0
7.09813 8.66827e-11 8.33367e-11 3.3459e-12 0.0385995 0.00749821 0 0 0 0 2.10195e-44 0 1.26047e-41 0 8.7494e-40 0 2.05775e-38 0 2.48383e-37 0 1.90512e-36 0 1.07861e-35 0 4.73829e-35 0 1.7442e-34 0 5.55379e-34 0 1.59926e-33 0 4.05749e-33 0 9.75051e-33 0 2.1571e-32 0 4.41342e-32 0 8.77409e-32 0 1.67196e-31 0 3.01524e-31 0 5.23344e-31 0
7.46248 7.82206e-11 7.54903e-11 2.73036e-12 0.0349058 0.00673332 0 0 0 0 2.19443e-42 0 9.59291e-40 0 5.4136e-38 0 1.0913e-36 0 1.16643e-35 0 8.09953e-35 0 4.21346e-34 0 1.72192e-33 0 5.94779e-33 0 1.78975e-32 0 4.89434e-32 0 1.18656e-31 0 2.73194e-31 0 5.81403e-31 0 1.14869e-30 0 2.2083e-30 0 4.07766e-30 0 7.14501e-30 0 1.20719e-29 0
7.84553 7.06956e-11 6.84659e-11 2.2297e-12 0.0315394 0.00593886 0 0 2.8026e-45 0 1.79031e-40 0 5.81615e-38 0 2.69559e-36 0 4.69269e-35 0 4.46787e-34 0 2.82236e-33 0 1.35464e-32 0 5.16833e-32 0 1.68038e-31 0 4.79164e-31 0 1.24754e-30 0 2.89651e-30 0 6.40282e-30 0 1.3133e-29 0 2.50986e-29 0 4.67355e-29 0 8.37519e-29 0 1.42789e-28 0 2.35151e-28 0
8.24824 6.39976e-11 6.21768e-11 1.82084e-12 0.0284516 0.00513468 0 0 3.78351e-43 0 1.15984e-38 0 2.84102e-36 0 1.09182e-34 0 1.65326e-33 0 1.41005e-32 0 8.14073e-32 0 3.61923e-31 0 1.29345e-30 0 3.97014e-30 0 1.07563e-29 0 2.67267e-29 0 5.9553e-29 0 1.26643e-28 0 2.50807e-28 0 4.644e-28 0 8.38895e-28 0 1.46112e-27 0 2.42701e-27 0 3.90074e-27 0
8.67162 5.80135e-11 5.65271e-11 1.48638e-12 0.0256212 0.00444258 0 0 3.25578e-41 0 6.03326e-37 0 1.12975e-34 0 3.6332e-33 0 4.81788e-32 0 3.70084e-31 0 1.96134e-30 0 8.10718e-30 0 2.72268e-29 0 7.91176e-29 0 2.04172e-28 0 4.85266e-28 0 1.0398e-27 0 2.13122e-27 0 4.08224e-27 0 7.33479e-27 0 1.28725e-26 0 2.18211e-26 0 3.53592e-26 0 5.55286e-26 0
9.11674 5.26833e-11 5.14696e-11 1.21368e-12 0.0230373 0.00382541 6.02558e-44 0 2.22191e-39 0 2.5483e-35 0 3.696e-33 0 1.00333e-31 0 1.17275e-30 0 8.1549e-30 0 3.98391e-29 0 1.53651e-28 0 4.86379e-28 0 1.34163e-27 0 3.30563e-27 0 7.53147e-27 0 1.55486e-26 0 3.07717e-26 0 5.71005e-26 0 9.97022e-26 0 1.70237e-25 0 2.81239e-25 0 4.4511e-25 0 6.83771e-25 0
9.5847 4.79421e-11 4.69513e-11 9.9085e-13 0.0206676 0.00327188 5.45806e-42 0 1.21553e-37 0 8.83259e-34 0 1.0047e-31 0 2.32141e-30 0 2.40645e-29 0 1.5222e-28 0 6.88221e-28 0 2.48503e-27 0 7.43597e-27 0 1.952e-26 0 4.60237e-26 0 1.00727e-25 0 2.00718e-25 0 3.84214e-25 0 6.91757e-25 0 1.17544e-24 0 1.95526e-24 0 3.15197e-24 0 4.87796e-24 0 7.33801e-24 0
10.0767 4.37281e-11 4.29193e-11 8.0874e-13 0.0184947 0.00274357 3.94545e-40 0 5.39013e-36 0 2.53744e-32 0 2.29068e-30 0 4.54043e-29 0 4.19891e-28 0 2.42727e-27 0 1.01949e-26 0 3.45749e-26 0 9.80678e-26 0 2.45587e-25 0 5.5529e-25 0 1.1697e-24 0 2.2537e-24 0 4.17941e-24 0 7.31184e-24 0 1.21068e-23 0 1.96447e-23 0 3.09384e-23 0 4.68699e-23 0 6.91157e-23 0
10.5939 4.0002e-11 3.93423e-11 6.59737e-13 0.0164926 0.00220999 2.28258e-38 0 1.95892e-34 0 6.10228e-31 0 4.42164e-29 0 7.57502e-28 0 6.28431e-27 0 3.33453e-26 0 1.30578e-25 0 4.17209e-25 0 1.12464e-24 0 2.69294e-24 0 5.85116e-24 0 1.18851e-23 0 2.21776e-23 0 3.9906e-23 0 6.79345e-23 0 1.09749e-22 0 1.73922e-22 0 2.67901e-22 0 3.97707e-22 0 5.75453e-22 0
11.1377 3.67815e-11 3.62436e-11 5.37884e-13 0.0146238 0.00170179 1.07084e-36 0 5.90555e-33 0 1.24214e-29 0 7.30204e-28 0 1.08895e-26 0 8.14735e-26 0 3.98481e-25 0 1.45981e-24 0 4.40708e-24 0 1.13184e-23 0 2.59706e-23 0 5.43305e-23 0 1.06605e-22 0 1.92958e-22 0 3.37389e-22 0 5.59631e-22 0 8.83167e-22 0 1.36846e-21 0 2.06392e-21 0 3.00541e-21 0 4.27087e-21 0
