# 5.37201e-06 2 48 : grain size, compostion index, size index
# Heating and cooling timescale: 2.65407 462309
# Ratio of heating to cooling to determine stochastic cutoff: 100
# Equilibrium emission is recorded even for those grains in the stochastic regime.
# Emission spectrum was computed for: 
# Type: ISRF
# Scales: 0.25 0.5 1 1.5 2 2.5 3 3.5 4 4.5 5 5.5 6 6.5 7 7.5 8 8.5 9 9.5 10
# StochasticallyHeated: 0 0 0 0 0 0 0 0 0 0 0 0 0 0 0 0 0 0 0 0 0
# Temperature: -1
# Wavelength  CExt  CAbs  CSca  Albedo G EqEm1 StEm1 EqEm2 StEm2 EqEm3 StEm3 EqEm4 StEm4 EqEm5 StEm5 EqEm6 StEm6 EqEm7 StEm7 EqEm8 StEm8 EqEm9 StEm9 EqEm10 StEm10 EqEm11 StEm11 EqEm12 StEm12 EqEm13 StEm13 EqEm14 StEm14 EqEm15 StEm15 EqEm16 StEm16 EqEm17 StEm17 EqEm18 StEm18 EqEm19 StEm19 EqEm20 StEm20 EqEm21 StEm21
0.05 1.83873e-10 9.28092e-11 9.10639e-11 0.495254 0.891652 0 0 0 0 0 0 0 0 0 0 0 0 0 0 0 0 0 0 0 0 0 0 0 0 0 0 0 0 0 0 0 0 0 0 0 0 0 0 0 0 0 0
0.0525665 1.86069e-10 9.38537e-11 9.2215e-11 0.495597 0.883153 0 0 0 0 0 0 0 0 0 0 0 0 0 0 0 0 0 0 0 0 0 0 0 0 0 0 0 0 0 0 0 0 0 0 0 0 0 0 0 0 0 0
0.0552647 1.88967e-10 9.44912e-11 9.44755e-11 0.499958 0.87181 0 0 0 0 0 0 0 0 0 0 0 0 0 0 0 0 0 0 0 0 0 0 0 0 0 0 0 0 0 0 0 0 0 0 0 0 0 0 0 0 0 0
0.0581015 1.93777e-10 9.53067e-11 9.847e-11 0.508162 0.856095 0 0 0 0 0 0 0 0 0 0 0 0 0 0 0 0 0 0 0 0 0 0 0 0 0 0 0 0 0 0 0 0 0 0 0 0 0 0 0 0 0 0
0.0610839 2.00417e-10 9.7347e-11 1.0307e-10 0.514277 0.83909 0 0 0 0 0 0 0 0 0 0 0 0 0 0 0 0 0 0 0 0 0 0 0 0 0 0 0 0 0 0 0 0 0 0 0 0 0 0 0 0 0 0
0.0642193 2.07529e-10 1.00591e-10 1.06938e-10 0.515291 0.824878 0 0 0 0 0 0 0 0 0 0 0 0 0 0 0 0 0 0 0 0 0 0 0 0 0 0 0 0 0 0 0 0 0 0 0 0 0 0 0 0 0 0
0.0675157 2.14427e-10 1.04494e-10 1.09933e-10 0.512683 0.814011 0 0 0 0 0 0 0 0 0 0 0 0 0 0 0 0 0 0 0 0 0 0 0 0 0 0 0 0 0 0 0 0 0 0 0 0 0 0 0 0 0 0
0.0709813 2.20808e-10 1.08637e-10 1.12171e-10 0.508001 0.805849 0 0 0 0 0 0 0 0 0 0 0 0 0 0 0 0 0 0 0 0 0 0 0 0 0 0 0 0 0 0 0 0 0 0 0 0 0 0 0 0 0 0
0.0746248 2.26412e-10 1.12707e-10 1.13705e-10 0.502205 0.799721 0 0 0 0 0 0 0 0 0 0 0 0 0 0 0 0 0 0 0 0 0 0 0 0 0 0 0 0 0 0 0 0 0 0 0 0 0 0 0 0 0 0
0.0784553 2.30821e-10 1.165e-10 1.14321e-10 0.495278 0.795675 0 0 0 0 0 0 0 0 0 0 0 0 0 0 0 0 0 0 0 0 0 0 0 0 0 0 0 0 0 0 0 0 0 0 0 0 0 0 0 0 0 0
0.0824824 2.33589e-10 1.20007e-10 1.13582e-10 0.486247 0.794956 0 0 0 0 0 0 0 0 0 0 0 0 0 0 0 0 0 0 0 0 0 0 0 0 0 0 0 0 0 0 0 0 0 0 0 0 0 0 0 0 0 0
0.0867162 2.34388e-10 1.21995e-10 1.12393e-10 0.479516 0.791653 0 0 0 0 0 0 0 0 0 0 0 0 0 0 0 0 0 0 0 0 0 0 0 0 0 0 0 0 0 0 0 0 0 0 0 0 0 0 0 0 0 0
0.0911674 2.38322e-10 1.23884e-10 1.14438e-10 0.480183 0.780196 0 0 0 0 0 0 0 0 0 0 0 0 0 0 0 0 0 0 0 0 0 0 0 0 0 0 0 0 0 0 0 0 0 0 0 0 0 0 0 0 0 0
0.095847 2.42797e-10 1.26349e-10 1.16447e-10 0.479609 0.770366 0 0 0 0 0 0 0 0 0 0 0 0 0 0 0 0 0 0 0 0 0 0 0 0 0 0 0 0 0 0 0 0 0 0 0 0 0 0 0 0 0 0
0.100767 2.46098e-10 1.28511e-10 1.17587e-10 0.477806 0.761478 0 0 0 0 0 0 0 0 0 0 0 0 0 0 0 0 0 0 0 0 0 0 0 0 0 0 0 0 0 0 0 0 0 0 0 0 0 0 0 0 0 0
0.105939 2.4898e-10 1.30947e-10 1.18033e-10 0.474067 0.755704 0 0 0 0 0 0 0 0 0 0 0 0 0 0 0 0 0 0 0 0 0 0 0 0 0 0 0 0 0 0 0 0 0 0 0 0 0 0 0 0 0 0
0.111377 2.52007e-10 1.33677e-10 1.1833e-10 0.469552 0.751719 0 0 0 0 0 0 0 0 0 0 0 0 0 0 0 0 0 0 0 0 0 0 0 0 0 0 0 0 0 0 0 0 0 0 0 0 0 0 0 0 0 0
0.117094 2.55885e-10 1.36558e-10 1.19327e-10 0.466331 0.746086 0 0 0 0 0 0 0 0 0 0 0 0 0 0 0 0 0 0 0 0 0 0 0 0 0 0 0 0 0 0 0 0 0 0 0 0 0 0 0 0 0 0
0.123105 2.59985e-10 1.39151e-10 1.20834e-10 0.464774 0.737311 0 0 0 0 0 0 0 0 0 0 0 0 0 0 0 0 0 0 0 0 0 0 0 0 0 0 0 0 0 0 0 0 0 0 0 0 0 0 0 0 0 0
0.129424 2.64034e-10 1.40958e-10 1.23076e-10 0.466136 0.723795 0 0 0 0 0 0 0 0 0 0 0 0 0 0 0 0 0 0 0 0 0 0 0 0 0 0 0 0 0 0 0 0 0 0 0 0 0 0 0 0 0 0
0.136067 2.68715e-10 1.4207e-10 1.26645e-10 0.471298 0.705805 0 0 0 0 0 0 0 0 0 0 0 0 0 0 0 0 0 0 0 0 0 0 0 0 0 0 0 0 0 0 0 0 0 0 0 0 0 0 0 0 0 0
0.143051 2.75699e-10 1.43319e-10 1.3238e-10 0.48016 0.684047 0 0 0 0 0 0 0 0 0 0 0 0 0 0 0 0 0 0 0 0 0 0 0 0 0 0 0 0 0 0 0 0 0 0 0 0 0 0 0 0 0 0
0.150394 2.92574e-10 1.44554e-10 1.4802e-10 0.505923 0.660042 0 0 0 0 0 0 0 0 0 0 0 0 0 0 0 0 0 0 0 0 0 0 0 0 0 0 0 0 0 0 0 0 0 0 0 0 0 0 0 0 0 0
0.158114 3.27852e-10 1.42347e-10 1.85505e-10 0.565819 0.649552 0 0 0 0 0 0 0 0 0 0 0 0 0 0 0 0 0 0 0 0 0 0 0 0 0 0 0 0 0 0 0 0 0 0 0 0 0 0 0 0 0 0
0.16623 3.69039e-10 1.33926e-10 2.35114e-10 0.637097 0.646396 0 0 0 0 0 0 0 0 0 0 0 0 0 0 0 0 0 0 0 0 0 0 0 0 0 0 0 0 0 0 0 0 0 0 0 0 0 0 0 0 0 0
0.174762 3.58495e-10 1.01137e-10 2.57358e-10 0.717883 0.589043 0 0 0 0 0 0 0 0 0 0 0 0 0 0 0 0 0 0 0 0 0 0 0 0 0 0 0 0 0 0 0 0 0 0 0 0 0 0 0 0 0 0
0.183733 3.24411e-10 6.10708e-11 2.63341e-10 0.811749 0.519496 0 0 0 0 0 0 0 0 0 0 0 0 0 0 0 0 0 0 0 0 0 0 0 0 0 0 0 0 0 0 0 0 0 0 0 0 0 0 0 0 0 0
0.193164 3.17148e-10 4.24194e-11 2.74729e-10 0.866247 0.498608 0 0 0 0 0 0 0 0 0 0 0 0 0 0 0 0 0 0 0 0 0 0 0 0 0 0 0 0 0 0 0 0 0 0 0 0 0 0 0 0 0 0
0.203079 3.15822e-10 3.42569e-11 2.81565e-10 0.891531 0.519008 0 0 0 0 0 0 0 0 0 0 0 0 0 0 0 0 0 0 0 0 0 0 0 0 0 0 0 0 0 0 0 0 0 0 0 0 0 0 0 0 0 0
0.213503 2.86402e-10 2.8085e-11 2.58317e-10 0.901938 0.55741 0 0 0 0 0 0 0 0 0 0 0 0 0 0 0 0 0 0 0 0 0 0 0 0 0 0 0 0 0 0 0 0 0 0 0 0 0 0 0 0 0 0
0.224463 2.28345e-10 2.23119e-11 2.06033e-10 0.902289 0.575443 0 0 0 0 0 0 0 0 0 0 0 0 0 0 0 0 0 0 0 0 0 0 0 0 0 0 0 0 0 0 0 0 0 0 0 0 0 0 0 0 0 0
0.235984 1.75483e-10 1.81551e-11 1.57328e-10 0.896543 0.552402 0 0 0 0 0 0 0 0 0 0 0 0 0 0 0 0 0 0 0 0 0 0 0 0 0 0 0 0 0 0 0 0 0 0 0 0 0 0 0 0 0 0
0.248097 1.39002e-10 1.54271e-11 1.23575e-10 0.889016 0.502048 0 0 0 0 0 0 0 0 0 0 0 0 0 0 0 0 0 0 0 0 0 0 0 0 0 0 0 0 0 0 0 0 0 0 0 0 0 0 0 0 0 0
0.260832 1.13474e-10 1.32247e-11 1.00249e-10 0.883456 0.443287 0 0 0 0 0 0 0 0 0 0 0 0 0 0 0 0 0 0 0 0 0 0 0 0 0 0 0 0 0 0 0 0 0 0 0 0 0 0 0 0 0 0
0.274221 9.43919e-11 1.15708e-11 8.2821e-11 0.877417 0.387233 0 0 0 0 0 0 0 0 0 0 0 0 0 0 0 0 0 0 0 0 0 0 0 0 0 0 0 0 0 0 0 0 0 0 0 0 0 0 0 0 0 0
0.288297 7.92781e-11 1.03175e-11 6.89606e-11 0.869857 0.338222 0 0 0 0 0 0 0 0 0 0 0 0 0 0 0 0 0 0 0 0 0 0 0 0 0 0 0 0 0 0 0 0 0 0 0 0 0 0 0 0 0 0
0.303095 6.67682e-11 9.32707e-12 5.74411e-11 0.860307 0.296516 0 0 0 0 0 0 0 0 0 0 0 0 0 0 0 0 0 0 0 0 0 0 0 0 0 0 0 0 0 0 0 0 0 0 0 0 0 0 0 0 0 0
0.318653 5.61857e-11 8.50011e-12 4.76856e-11 0.848714 0.261207 0 0 0 0 0 0 0 0 0 0 0 0 0 0 0 0 0 0 0 0 0 0 0 0 0 0 0 0 0 0 0 0 0 0 0 0 0 0 0 0 0 0
0.335009 4.72315e-11 7.78881e-12 3.94427e-11 0.835093 0.231297 0 0 0 0 0 0 0 0 0 0 0 0 0 0 0 0 0 0 0 0 0 0 0 0 0 0 0 0 0 0 0 0 0 0 0 0 0 0 0 0 0 0
0.352205 3.96546e-11 7.16343e-12 3.24912e-11 0.819354 0.205731 0 0 0 0 0 0 0 0 0 0 0 0 0 0 0 0 0 0 0 0 0 0 0 0 0 0 0 0 0 0 0 0 0 0 0 0 0 0 0 0 0 0
0.370284 3.32651e-11 6.60268e-12 2.66624e-11 0.801513 0.183652 0 0 0 0 0 0 0 0 0 0 0 0 0 0 0 0 0 0 0 0 0 0 0 0 0 0 0 0 0 0 0 0 0 0 0 0 0 0 0 0 0 0
0.389291 2.79224e-11 6.09837e-12 2.1824e-11 0.781596 0.164453 0 0 0 0 0 0 0 0 0 0 0 0 0 0 0 0 0 0 0 0 0 0 0 0 0 0 0 0 0 0 0 0 0 0 0 0 0 0 0 0 0 0
0.409273 2.34764e-11 5.63948e-12 1.78369e-11 0.759781 0.147662 0 0 0 0 0 0 0 0 0 0 0 0 0 0 0 0 0 0 0 0 0 0 0 0 0 0 0 0 0 0 0 0 0 0 0 0 0 0 0 0 0 0
0.430281 1.97661e-11 5.22044e-12 1.45456e-11 0.735889 0.132826 0 0 0 0 0 0 0 0 0 0 0 0 0 0 0 0 0 0 0 0 0 0 0 0 0 0 0 0 0 0 0 0 0 0 0 0 0 0 0 0 0 0
0.452368 1.66961e-11 4.84006e-12 1.18561e-11 0.710109 0.119678 0 0 0 0 0 0 0 0 0 0 0 0 0 0 0 0 0 0 0 0 0 0 0 0 0 0 0 0 0 0 0 0 0 0 0 0 0 0 0 0 0 0
0.475588 1.41473e-11 4.4932e-12 9.65412e-12 0.682399 0.107956 0 0 0 0 0 0 0 0 0 0 0 0 0 0 0 0 0 0 0 0 0 0 0 0 0 0 0 0 0 0 0 0 0 0 0 0 0 0 0 0 0 0
0.5 1.20406e-11 4.1786e-12 7.86202e-12 0.652958 0.097491 0 0 0 0 0 0 0 0 0 0 0 0 0 0 0 0 0 0 0 0 0 0 0 0 0 0 0 0 0 0 0 0 0 0 0 0 0 0 0 0 0 0
0.525665 1.02913e-11 3.89219e-12 6.39913e-12 0.621799 0.0880963 0 0 0 0 0 0 0 0 0 0 0 0 0 0 0 0 0 0 0 0 0 0 0 0 0 0 0 0 0 0 0 0 0 0 0 0 0 0 0 0 0 0
0.552648 8.83583e-12 3.6312e-12 5.20463e-12 0.589037 0.0796381 0 0 0 0 0 0 0 0 0 0 0 0 0 0 0 0 0 0 0 0 0 0 0 0 0 0 0 0 0 0 0 0 0 0 0 0 0 0 0 0 0 0
0.581015 7.63253e-12 3.3918e-12 4.24073e-12 0.555613 0.0720486 0 0 0 0 0 0 0 0 0 0 0 0 0 0 0 0 0 0 0 0 0 0 0 0 0 0 0 0 0 0 0 0 0 0 0 0 0 0 0 0 0 0
0.610839 6.6285e-12 3.17325e-12 3.45526e-12 0.521272 0.0652016 0 0 0 0 0 0 0 0 0 0 0 0 0 0 0 0 0 0 0 0 0 0 0 0 0 0 0 0 0 0 0 0 0 0 0 0 0 0 0 0 0 0
0.642193 5.7872e-12 2.97312e-12 2.81408e-12 0.486259 0.0590097 0 0 0 0 0 0 0 0 0 0 0 0 0 0 0 0 0 0 0 0 0 0 0 0 0 0 0 0 0 0 0 0 0 0 0 0 0 0 0 0 0 0
0.675157 5.08235e-12 2.78989e-12 2.29246e-12 0.451064 0.0534133 0 0 0 0 0 0 0 0 0 0 0 0 0 0 0 0 0 0 0 0 0 0 0 0 0 0 0 0 0 0 0 0 0 0 0 0 0 0 0 0 0 0
0.709813 4.49177e-12 2.62216e-12 1.86961e-12 0.41623 0.0483635 0 0 0 0 0 0 0 0 0 0 0 0 0 0 0 0 0 0 0 0 0 0 0 0 0 0 0 0 0 0 0 0 0 0 0 0 0 0 0 0 0 0
0.746248 3.99271e-12 2.46793e-12 1.52478e-12 0.381891 0.0437914 0 0 0 0 0 0 0 0 0 0 0 0 0 0 0 0 0 0 0 0 0 0 0 0 0 0 0 0 0 0 0 0 0 0 0 0 0 0 0 0 0 0
0.784553 3.56895e-12 2.32562e-12 1.24333e-12 0.348374 0.0396484 0 0 0 0 0 0 0 0 0 0 0 0 0 0 0 0 0 0 0 0 0 0 0 0 0 0 0 0 0 0 0 0 0 0 0 0 0 0 0 0 0 0
0.824824 3.20749e-12 2.19309e-12 1.0144e-12 0.31626 0.0358999 0 0 0 0 0 0 0 0 0 0 0 0 0 0 0 0 0 0 0 0 0 0 0 0 0 0 0 0 0 0 0 0 0 0 0 0 0 0 0 0 0 0
0.867162 2.89841e-12 2.06994e-12 8.28471e-13 0.285836 0.0325123 0 0 0 0 0 0 0 0 0 0 0 0 0 0 0 0 0 0 0 0 0 0 0 0 0 0 0 0 0 0 0 0 0 0 0 0 0 0 0 0 0 0
0.911674 2.63195e-12 1.95538e-12 6.76573e-13 0.257061 0.0294413 0 0 0 0 0 0 0 0 0 0 0 0 0 0 0 0 0 0 0 0 0 0 0 0 0 0 0 0 0 0 0 0 0 0 0 0 0 0 0 0 0 0
0.95847 2.4007e-12 1.84815e-12 5.5255e-13 0.230162 0.026658 0 0 0 0 0 0 0 0 0 0 0 0 0 0 0 0 0 0 0 0 0 0 0 0 0 0 0 0 0 0 0 0 0 0 0 0 0 0 0 0 0 0
1.00767 2.19997e-12 1.74853e-12 4.51447e-13 0.205206 0.0241386 0 0 0 0 0 0 0 0 0 0 0 0 0 0 0 0 0 0 0 0 0 0 0 0 0 0 0 0 0 0 0 0 0 0 0 0 0 0 0 0 0 0
1.05939 2.0251e-12 1.65617e-12 3.68932e-13 0.18218 0.0218571 0 0 0 0 0 0 0 0 0 0 0 0 0 0 0 0 0 0 0 0 0 0 0 0 0 0 0 0 0 0 0 0 0 0 0 0 0 0 0 0 0 0
1.11377 1.87135e-12 1.56989e-12 3.01457e-13 0.16109 0.0197886 0 0 0 0 0 0 0 0 0 0 0 0 0 0 0 0 0 0 0 0 0 0 0 0 0 0 0 0 0 0 0 0 0 0 0 0 0 0 0 0 0 0
1.17094 1.73513e-12 1.48887e-12 2.46254e-13 0.141923 0.0179131 0 0 0 0 0 0 0 0 0 0 0 0 0 0 0 0 0 0 0 0 0 0 0 0 0 0 0 0 0 0 0 0 0 0 0 0 0 0 0 0 0 0
1.23105 1.6143e-12 1.41302e-12 2.01288e-13 0.12469 0.0162171 0 0 0 0 0 0 0 0 0 0 0 0 0 0 0 0 0 0 0 0 0 0 0 0 0 0 0 0 0 0 0 0 0 0 0 0 0 0 0 0 0 0
1.29424 1.50969e-12 1.3452e-12 1.64489e-13 0.108956 0.0146796 0 0 0 0 0 0 0 0 0 0 0 0 0 0 0 0 0 0 0 0 0 0 0 0 0 0 0 0 0 0 0 0 0 0 0 0 0 0 0 0 0 0
1.36067 1.41683e-12 1.28234e-12 1.34486e-13 0.0949206 0.0132882 0 0 0 0 0 0 0 0 0 0 0 0 0 0 0 0 0 0 0 0 0 0 0 0 0 0 0 0 0 0 0 0 0 0 0 0 0 0 0 0 0 0
1.43051 1.33311e-12 1.22322e-12 1.09884e-13 0.0824269 0.012026 0 0 0 0 0 0 0 0 0 0 0 0 0 0 0 0 0 0 0 0 0 0 0 0 0 0 0 0 0 0 0 0 0 0 0 0 0 0 0 0 0 0
1.50394 1.25748e-12 1.16762e-12 8.98552e-14 0.0714568 0.0108854 0 0 0 0 0 0 0 0 0 0 0 0 0 0 0 0 0 0 0 0 0 0 0 0 0 0 0 0 0 0 0 0 0 0 0 0 0 0 0 0 0 0
1.58114 1.18842e-12 1.11496e-12 7.3462e-14 0.0618146 0.00985188 0 0 0 0 0 0 0 0 0 0 0 0 0 0 0 0 0 0 0 0 0 0 0 0 0 0 0 0 0 0 0 0 0 0 0 0 0 0 0 0 0 0
1.6623 1.125e-12 1.06499e-12 6.00137e-14 0.0533455 0.00891432 0 0 0 0 0 0 0 0 0 0 0 0 0 0 0 0 0 0 0 0 0 0 0 0 0 0 0 0 0 0 0 0 0 0 0 0 0 0 0 0 0 0
1.74763 1.06734e-12 1.0183e-12 4.90429e-14 0.0459485 0.00806629 0 0 0 0 0 0 0 0 0 0 0 0 0 0 0 0 0 0 0 0 0 0 0 0 0 0 0 0 0 0 0 0 0 0 0 0 0 0 0 0 0 0
1.83733 1.01597e-12 9.75903e-13 4.00713e-14 0.0394412 0.00729845 0 0 0 0 0 0 0 0 0 0 0 0 0 0 0 0 0 0 0 0 0 0 0 0 0 0 0 0 0 0 0 0 0 0 0 0 0 0 0 0 0 0
1.93164 9.69267e-13 9.36538e-13 3.27289e-14 0.0337666 0.00660275 0 0 0 0 0 0 0 0 0 0 0 0 0 0 0 0 0 0 0 0 0 0 0 0 0 0 0 0 0 0 0 0 0 0 0 0 0 0 0 0 0 0
2.03079 9.26336e-13 8.99607e-13 2.67294e-14 0.028855 0.0059729 0 0 0 0 0 0 0 0 0 0 0 0 0 0 0 0 0 0 0 0 0 0 0 0 0 0 0 0 0 0 0 0 0 0 0 0 0 0 0 0 0 0
2.13503 8.8666e-13 8.64828e-13 2.18316e-14 0.0246223 0.00540329 0 0 0 0 0 0 0 0 0 0 0 0 0 0 0 0 0 0 0 0 0 0 0 0 0 0 0 0 0 0 0 0 0 0 0 0 0 0 0 0 0 0
2.24463 8.50405e-13 8.32585e-13 1.78207e-14 0.0209556 0.00488715 0 0 0 0 0 0 0 0 0 0 0 0 0 0 0 0 0 0 0 0 0 0 0 0 0 0 0 0 0 0 0 0 0 0 0 0 0 0 0 0 0 0
2.35984 8.16489e-13 8.01949e-13 1.45401e-14 0.017808 0.00441964 0 0 0 0 0 0 0 0 0 0 0 0 0 0 0 0 0 0 0 0 0 0 0 0 0 0 0 0 0 0 0 0 0 0 0 0 0 0 0 0 0 0
2.48097 7.84971e-13 7.73119e-13 1.18523e-14 0.0150991 0.00399595 0 0 0 0 0 0 0 0 0 0 0 0 0 0 0 0 0 0 0 0 0 0 0 0 0 0 0 0 0 0 0 0 0 0 0 0 0 0 0 0 0 0
2.60832 7.56214e-13 7.46549e-13 9.66478e-15 0.0127805 0.00361319 0 0 0 0 0 0 0 0 0 0 0 0 0 0 0 0 0 0 0 0 0 0 0 0 0 0 0 0 0 0 0 0 0 0 0 0 0 0 0 0 0 0
2.74221 7.29304e-13 7.21427e-13 7.87731e-15 0.0108011 0.00326662 0 0 0 0 0 0 0 0 0 0 0 0 0 0 0 0 0 0 0 0 0 0 0 0 0 0 0 0 0 0 0 0 0 0 0 0 0 0 0 0 0 0
2.88297 7.04585e-13 6.98175e-13 6.4096e-15 0.00909699 0.00295211 0 0 0 0 0 0 0 0 0 0 0 0 0 0 0 0 0 0 0 0 0 0 0 0 0 0 0 0 0 0 0 0 0 0 0 0 0 0 0 0 0 0
3.03095 6.8149e-13 6.76275e-13 5.21473e-15 0.00765196 0.00266784 0 0 0 0 0 0 0 0 0 0 0 0 0 0 0 0 0 0 0 0 0 0 0 0 0 0 0 0 0 0 0 0 0 0 0 0 0 0 0 0 0 0
3.18653 6.6141e-13 6.5717e-13 4.24059e-15 0.00641144 0.00241069 0 0 0 0 0 0 0 0 0 0 0 0 0 0 0 0 0 0 0 0 0 0 0 0 0 0 0 0 0 0 0 0 0 0 0 0 0 0 0 0 0 0
3.35009 6.426e-13 6.39156e-13 3.44397e-15 0.00535943 0.00217766 0 0 0 0 0 0 0 0 0 0 0 0 0 0 0 0 0 0 0 0 0 0 0 0 0 0 0 0 0 0 0 0 0 0 0 0 0 0 0 0 0 0
3.52205 6.22516e-13 6.19724e-13 2.79209e-15 0.00448516 0.0019664 0 0 0 0 0 0 0 0 0 0 0 0 0 0 0 0 0 0 0 0 0 0 0 0 0 0 0 0 0 0 0 0 0 0 0 0 0 0 0 0 0 0
3.70284 6.02909e-13 6.00647e-13 2.2623e-15 0.00375231 0.00177552 0 0 0 0 0 0 0 0 0 0 0 0 0 0 0 0 0 0 0 0 0 0 0 0 0 0 0 0 0 0 0 0 0 0 0 0 0 0 0 0 0 0
3.89291 5.84084e-13 5.82254e-13 1.8294e-15 0.00313208 0.00160251 0 0 0 0 0 0 0 0 0 0 0 0 0 0 0 0 0 0 0 0 0 0 0 0 0 0 0 0 0 0 0 0 0 0 0 0 0 0 0 0 0 0
4.09273 5.66337e-13 5.64862e-13 1.47535e-15 0.00260507 0.00144557 0 0 0 0 0 0 0 0 0 0 0 0 0 0 0 0 0 0 0 0 0 0 0 0 0 0 0 0 0 0 0 0 0 0 0 0 0 0 0 0 0 0
4.30281 5.47899e-13 5.46713e-13 1.18648e-15 0.0021655 0.0013033 0 0 0 0 0 0 0 0 0 0 0 0 0 0 0 0 0 0 0 0 0 0 0 0 0 0 0 0 0 0 0 0 0 0 0 0 0 0 0 0 0 0
4.52368 5.30975e-13 5.30023e-13 9.51622e-16 0.00179222 0.00117452 0 0 0 0 0 0 0 0 0 0 0 0 0 0 0 0 0 0 0 0 0 0 0 0 0 0 0 0 0 0 0 0 0 0 0 0 0 0 0 0 0 0
4.75588 5.16306e-13 5.15546e-13 7.60107e-16 0.0014722 0.00105767 0 0 0 0 0 0 0 0 0 0 0 0 0 0 0 0 0 0 0 0 0 0 0 0 0 0 0 0 0 0 0 0 0 0 0 0 0 0 0 0 0 0
5 5.05253e-13 5.0465e-13 6.03374e-16 0.0011942 0.000951398 0 0 0 0 0 0 0 0 0 0 0 0 0 0 0 0 0 0 0 0 0 0 0 0 0 0 0 0 0 0 0 0 0 0 0 0 0 0 0 0 0 0
5.25665 4.99137e-13 4.98662e-13 4.75894e-16 0.000953433 0.000854935 0 0 0 0 0 0 0 0 0 0 0 0 0 0 0 0 0 0 0 0 0 0 0 0 0 0 0 0 0 0 0 0 0 0 0 0 0 0 0 0 0 0
5.52648 4.97265e-13 4.96892e-13 3.72851e-16 0.000749803 0.00076751 0 0 0 0 0 0 0 0 0 0 0 0 0 0 0 0 0 0 0 0 0 0 0 0 0 0 0 0 0 0 0 0 0 0 0 0 0 0 0 0 0 0
5.81015 5.02099e-13 5.01811e-13 2.88633e-16 0.000574852 0.000687791 0 0 0 0 0 0 0 0 0 0 0 0 0 0 0 0 0 0 0 0 0 0 0 0 0 0 0 0 0 0 0 0 0 0 0 0 0 0 0 0 0 0
6.10839 5.11497e-13 5.11276e-13 2.20584e-16 0.000431252 0.000615327 0 0 0 0 0 0 0 0 0 0 0 0 0 0 0 0 0 0 0 0 0 0 0 0 0 0 0 0 0 0 0 0 0 0 1.4013e-45 0 4.2039e-45 0 1.12104e-44 0 2.66247e-44 0
6.42193 5.189e-13 5.18734e-13 1.65525e-16 0.000318992 0.000549387 0 0 0 0 0 0 0 0 0 0 0 0 0 0 0 0 0 0 0 0 0 0 0 0 1.4013e-45 0 2.8026e-45 0 8.40779e-45 0 2.8026e-44 0 7.70714e-44 0 1.96182e-43 0 4.82047e-43 0 1.11543e-42 0 2.42845e-42 0
6.75157 5.20078e-13 5.19958e-13 1.19609e-16 0.000229984 0.000488489 0 0 0 0 0 0 0 0 0 0 0 0 0 0 0 0 0 0 1.4013e-45 0 4.2039e-45 0 1.96182e-44 0 7.70714e-44 0 2.77457e-43 0 8.70206e-43 0 2.4859e-42 0 6.62954e-42 0 1.62074e-41 0 3.81111e-41 0 8.45137e-41 0 1.77222e-40 0
7.09813 5.28243e-13 5.28163e-13 8.00937e-17 0.000151623 0.000431164 0 0 0 0 0 0 0 0 0 0 0 0 0 0 1.4013e-45 0 1.26117e-44 0 7.9874e-44 0 4.18988e-43 0 1.79506e-42 0 6.69961e-42 0 2.24922e-41 0 6.68798e-41 0 1.81433e-40 0 4.61222e-40 0 1.07946e-39 0 2.43447e-39 0 5.19273e-39 0 1.05023e-38 0
7.46248 6.50654e-13 6.50609e-13 4.5124e-17 6.93518e-05 0.000375298 0 0 0 0 0 0 0 0 0 0 1.4013e-45 0 1.54143e-44 0 1.79366e-43 0 1.38588e-42 0 8.26766e-42 0 3.99889e-41 0 1.59635e-40 0 5.58565e-40 0 1.76741e-39 0 4.98311e-39 0 1.28755e-38 0 3.12733e-38 0 7.02168e-38 0 1.52193e-37 0 3.1284e-37 0 6.11332e-37 0
7.84553 1.26412e-12 1.2641e-12 2.25488e-17 1.78376e-05 0.000322094 0 0 0 0 0 0 0 0 4.2039e-45 0 1.63952e-43 0 2.74094e-42 0 2.80736e-41 0 1.96346e-40 0 1.07384e-39 0 4.80919e-39 0 1.79437e-38 0 5.90611e-38 0 1.76661e-37 0 4.73505e-37 0 1.16805e-36 0 2.71677e-36 0 5.86367e-36 0 1.22383e-35 0 2.42867e-35 0 4.59324e-35 0
8.24824 2.62916e-12 2.62913e-12 2.75518e-17 1.04793e-05 0.000276818 0 0 0 0 0 0 9.80909e-45 0 9.3887e-43 0 2.81227e-41 0 4.10397e-40 0 3.75215e-39 0 2.38653e-38 0 1.20132e-37 0 5.00033e-37 0 1.74952e-36 0 5.4331e-36 0 1.54047e-35 0 3.93489e-35 0 9.28801e-35 0 2.07308e-34 0 4.30943e-34 0 8.67698e-34 0 1.66527e-33 0 3.05298e-33 0
8.67162 4.01267e-12 4.01262e-12 4.95595e-17 1.23507e-05 0.000241002 0 0 0 0 2.8026e-45 0 1.42232e-42 0 1.11349e-40 0 2.82365e-39 0 3.61511e-38 0 2.9667e-37 0 1.72397e-36 0 8.01962e-36 0 3.11355e-35 0 1.02475e-34 0 3.01106e-34 0 8.11386e-34 0 1.9798e-33 0 4.48127e-33 0 9.61767e-33 0 1.92911e-32 0 3.75375e-32 0 6.97847e-32 0 1.24207e-31 0
9.11674 5.91621e-12 5.91611e-12 9.66541e-17 1.63372e-05 0.000205391 0 0 0 0 3.37713e-43 0 1.60987e-40 0 1.01838e-38 0 2.20537e-37 0 2.49304e-36 0 1.84607e-35 0 9.84444e-35 0 4.24833e-34 0 1.54368e-33 0 4.7936e-33 0 1.33631e-32 0 3.4308e-32 0 8.01449e-32 0 1.74315e-31 0 3.6042e-31 0 6.98775e-31 0 1.31623e-30 0 2.37398e-30 0 4.10807e-30 0
9.5847 6.65849e-12 6.65835e-12 1.37529e-16 2.06546e-05 0.000183929 0 0 0 0 3.149e-41 0 1.11135e-38 0 5.74156e-37 0 1.07003e-35 0 1.07453e-34 0 7.21579e-34 0 3.54596e-33 0 1.42481e-32 0 4.86113e-32 0 1.42829e-31 0 3.78724e-31 0 9.28577e-31 0 2.08117e-30 0 4.35802e-30 0 8.69684e-30 0 1.63249e-29 0 2.98139e-29 0 5.22467e-29 0 8.8022e-29 0
10.0767 5.96704e-12 5.96691e-12 1.32272e-16 2.2167e-05 0.000174672 0 0 5.46506e-44 0 1.86238e-39 0 4.9359e-37 0 2.10331e-35 0 3.39816e-34 0 3.04897e-33 0 1.86569e-32 0 8.48262e-32 0 3.18465e-31 0 1.02334e-30 0 2.85263e-30 0 7.21231e-30 0 1.6926e-29 0 3.64695e-29 0 7.36615e-29 0 1.42122e-28 0 2.58702e-28 0 4.58771e-28 0 7.8224e-28 0 1.28473e-27 0
10.5939 5.00631e-12 5.00619e-12 1.19944e-16 2.39586e-05 0.000171646 0 0 4.01332e-42 0 8.30245e-38 0 1.67567e-35 0 5.94517e-34 0 8.38511e-33 0 6.75918e-32 0 3.78591e-31 0 1.59864e-30 0 5.6264e-30 0 1.7078e-29 0 4.52819e-29 0 1.09417e-28 0 2.46307e-28 0 5.11184e-28 0 9.97656e-28 0 1.86409e-27 0 3.29537e-27 0 5.68267e-27 0 9.44023e-27 0 1.51333e-26 0
11.1377 3.93579e-12 3.9357e-12 9.49329e-17 2.41204e-05 0.000175919 5.60519e-45 0 2.21564e-40 0 2.82197e-36 0 4.39538e-34 0 1.31007e-32 0 1.62377e-31 0 1.18211e-30 0 6.08694e-30 0 2.39572e-29 0 7.9293e-29 0 2.27981e-28 0 5.76381e-28 0 1.33402e-27 0 2.88635e-27 0 5.78052e-27 0 1.09192e-26 0 1.9789e-26 0 3.40235e-26 0 5.71313e-26 0 9.25852e-26 0 1.4504e-25 0
11.7094 3.1426e-12 3.14252e-12 7.46006e-17 2.37385e-05 0.000176958 4.27396e-43 0 9.97329e-39 0 8.00693e-35 0 9.74689e-33 0 2.46141e-31 0 2.69797e-30 0 1.78269e-29 0 8.47363e-29 0 3.11928e-28 0 9.7381e-28 0 2.65916e-27 0 6.42522e-27 0 1.42741e-26 0 2.97419e-26 0 5.75785e-26 0 1.05439e-25 0 1.85619e-25 0 3.10804e-25 0 5.08853e-25 0 8.05421e-25 0 1.23438e-24 0
12.3105 2.45383e-12 2.45378e-12 5.71857e-17 2.33046e-05 0.000176046 2.49599e-41 0 3.56186e-37 0 1.84359e-33 0 1.7752e-31 0 3.82912e-30 0 3.73407e-29 0 2.25001e-28 0 9.91112e-28 0 3.42353e-27 0 1.01101e-26 0 2.6286e-26 0 6.08361e-26 0 1.29986e-25 0 2.61307e-25 0 4.89818e-25 0 8.70855e-25 0 1.49134e-24 0 2.43507e-24 0 3.89191e-24 0 6.02361e-24 0 9.04129e-24 0
