# 7.33679e-05 0 73 : grain size, compostion index, size index
# Heating and cooling timescale: 0.00034909 1.97132e+06
# Ratio of heating to cooling to determine stochastic cutoff: 100
# Equilibrium emission is recorded even for those grains in the stochastic regime.
# Emission spectrum was computed for: 
# Type: ISRF
# Scales: 0.25 0.5 1 1.5 2 2.5 3 3.5 4 4.5 5 5.5 6 6.5 7 7.5 8 8.5 9 9.5 10
# StochasticallyHeated: 0 0 0 0 0 0 0 0 0 0 0 0 0 0 0 0 0 0 0 0 0
# Temperature: -1
# Wavelength  CExt  CAbs  CSca  Albedo G EqEm1 StEm1 EqEm2 StEm2 EqEm3 StEm3 EqEm4 StEm4 EqEm5 StEm5 EqEm6 StEm6 EqEm7 StEm7 EqEm8 StEm8 EqEm9 StEm9 EqEm10 StEm10 EqEm11 StEm11 EqEm12 StEm12 EqEm13 StEm13 EqEm14 StEm14 EqEm15 StEm15 EqEm16 StEm16 EqEm17 StEm17 EqEm18 StEm18 EqEm19 StEm19 EqEm20 StEm20 EqEm21 StEm21
0.05 3.39311e-08 1.61282e-08 1.78029e-08 0.524679 0.988708 0 0 0 0 0 0 0 0 0 0 0 0 0 0 0 0 0 0 0 0 0 0 0 0 0 0 0 0 0 0 0 0 0 0 0 0 0 0 0 0 0 0
0.0525665 3.42029e-08 1.58917e-08 1.83112e-08 0.53537 0.981984 0 0 0 0 0 0 0 0 0 0 0 0 0 0 0 0 0 0 0 0 0 0 0 0 0 0 0 0 0 0 0 0 0 0 0 0 0 0 0 0 0 0
0.0552647 3.43532e-08 1.58775e-08 1.84757e-08 0.537816 0.978319 0 0 0 0 0 0 0 0 0 0 0 0 0 0 0 0 0 0 0 0 0 0 0 0 0 0 0 0 0 0 0 0 0 0 0 0 0 0 0 0 0 0
0.0581015 3.44659e-08 1.59054e-08 1.85605e-08 0.538518 0.97575 0 0 0 0 0 0 0 0 0 0 0 0 0 0 0 0 0 0 0 0 0 0 0 0 0 0 0 0 0 0 0 0 0 0 0 0 0 0 0 0 0 0
0.0610839 3.45574e-08 1.59455e-08 1.86119e-08 0.53858 0.973805 0 0 0 0 0 0 0 0 0 0 0 0 0 0 0 0 0 0 0 0 0 0 0 0 0 0 0 0 0 0 0 0 0 0 0 0 0 0 0 0 0 0
0.0642193 3.46369e-08 1.59804e-08 1.86565e-08 0.538631 0.972084 0 0 0 0 0 0 0 0 0 0 0 0 0 0 0 0 0 0 0 0 0 0 0 0 0 0 0 0 0 0 0 0 0 0 0 0 0 0 0 0 0 0
0.0675157 3.47108e-08 1.60012e-08 1.87096e-08 0.539013 0.970276 0 0 0 0 0 0 0 0 0 0 0 0 0 0 0 0 0 0 0 0 0 0 0 0 0 0 0 0 0 0 0 0 0 0 0 0 0 0 0 0 0 0
0.0709813 3.47862e-08 1.60102e-08 1.8776e-08 0.539754 0.968214 0 0 0 0 0 0 0 0 0 0 0 0 0 0 0 0 0 0 0 0 0 0 0 0 0 0 0 0 0 0 0 0 0 0 0 0 0 0 0 0 0 0
0.0746248 3.4867e-08 1.60144e-08 1.88526e-08 0.5407 0.965893 0 0 0 0 0 0 0 0 0 0 0 0 0 0 0 0 0 0 0 0 0 0 0 0 0 0 0 0 0 0 0 0 0 0 0 0 0 0 0 0 0 0
0.0784553 3.49518e-08 1.60213e-08 1.89305e-08 0.541618 0.96347 0 0 0 0 0 0 0 0 0 0 0 0 0 0 0 0 0 0 0 0 0 0 0 0 0 0 0 0 0 0 0 0 0 0 0 0 0 0 0 0 0 0
0.0824824 3.50396e-08 1.60323e-08 1.90073e-08 0.542453 0.961005 0 0 0 0 0 0 0 0 0 0 0 0 0 0 0 0 0 0 0 0 0 0 0 0 0 0 0 0 0 0 0 0 0 0 0 0 0 0 0 0 0 0
0.0867162 3.51306e-08 1.60464e-08 1.90842e-08 0.543236 0.958487 0 0 0 0 0 0 0 0 0 0 0 0 0 0 0 0 0 0 0 0 0 0 0 0 0 0 0 0 0 0 0 0 0 0 0 0 0 0 0 0 0 0
0.0911674 3.52256e-08 1.60639e-08 1.91617e-08 0.543971 0.955902 0 0 0 0 0 0 0 0 0 0 0 0 0 0 0 0 0 0 0 0 0 0 0 0 0 0 0 0 0 0 0 0 0 0 0 0 0 0 0 0 0 0
0.095847 3.53253e-08 1.6086e-08 1.92393e-08 0.544632 0.953261 0 0 0 0 0 0 0 0 0 0 0 0 0 0 0 0 0 0 0 0 0 0 0 0 0 0 0 0 0 0 0 0 0 0 0 0 0 0 0 0 0 0
0.100767 3.54303e-08 1.61155e-08 1.93147e-08 0.545148 0.950617 0 0 0 0 0 0 0 0 0 0 0 0 0 0 0 0 0 0 0 0 0 0 0 0 0 0 0 0 0 0 0 0 0 0 0 0 0 0 0 0 0 0
0.105939 3.55424e-08 1.61627e-08 1.93797e-08 0.545256 0.948171 0 0 0 0 0 0 0 0 0 0 0 0 0 0 0 0 0 0 0 0 0 0 0 0 0 0 0 0 0 0 0 0 0 0 0 0 0 0 0 0 0 0
0.111377 3.56525e-08 1.62298e-08 1.94226e-08 0.544776 0.946284 0 0 0 0 0 0 0 0 0 0 0 0 0 0 0 0 0 0 0 0 0 0 0 0 0 0 0 0 0 0 0 0 0 0 0 0 0 0 0 0 0 0
0.117094 3.57538e-08 1.63064e-08 1.94475e-08 0.543926 0.944919 0 0 0 0 0 0 0 0 0 0 0 0 0 0 0 0 0 0 0 0 0 0 0 0 0 0 0 0 0 0 0 0 0 0 0 0 0 0 0 0 0 0
0.123105 3.58579e-08 1.6376e-08 1.94819e-08 0.543308 0.943335 0 0 0 0 0 0 0 0 0 0 0 0 0 0 0 0 0 0 0 0 0 0 0 0 0 0 0 0 0 0 0 0 0 0 0 0 0 0 0 0 0 0
0.129424 3.59689e-08 1.6464e-08 1.95049e-08 0.542271 0.94203 0 0 0 0 0 0 0 0 0 0 0 0 0 0 0 0 0 0 0 0 0 0 0 0 0 0 0 0 0 0 0 0 0 0 0 0 0 0 0 0 0 0
0.136067 3.60642e-08 1.65785e-08 1.94857e-08 0.540307 0.94187 0 0 0 0 0 0 0 0 0 0 0 0 0 0 0 0 0 0 0 0 0 0 0 0 0 0 0 0 0 0 0 0 0 0 0 0 0 0 0 0 0 0
0.143051 3.61546e-08 1.66714e-08 1.94832e-08 0.538885 0.9413 0 0 0 0 0 0 0 0 0 0 0 0 0 0 0 0 0 0 0 0 0 0 0 0 0 0 0 0 0 0 0 0 0 0 0 0 0 0 0 0 0 0
0.150394 3.62581e-08 1.68135e-08 1.94445e-08 0.536282 0.941648 0 0 0 0 0 0 0 0 0 0 0 0 0 0 0 0 0 0 0 0 0 0 0 0 0 0 0 0 0 0 0 0 0 0 0 0 0 0 0 0 0 0
0.158114 3.62645e-08 1.70104e-08 1.92541e-08 0.530935 0.945791 0 0 0 0 0 0 0 0 0 0 0 0 0 0 0 0 0 0 0 0 0 0 0 0 0 0 0 0 0 0 0 0 0 0 0 0 0 0 0 0 0 0
0.16623 3.61971e-08 1.70274e-08 1.91696e-08 0.529591 0.946809 0 0 0 0 0 0 0 0 0 0 0 0 0 0 0 0 0 0 0 0 0 0 0 0 0 0 0 0 0 0 0 0 0 0 0 0 0 0 0 0 0 0
0.174762 3.61978e-08 1.69158e-08 1.9282e-08 0.532685 0.943074 0 0 0 0 0 0 0 0 0 0 0 0 0 0 0 0 0 0 0 0 0 0 0 0 0 0 0 0 0 0 0 0 0 0 0 0 0 0 0 0 0 0
0.183733 3.62688e-08 1.67593e-08 1.95095e-08 0.537914 0.936719 0 0 0 0 0 0 0 0 0 0 0 0 0 0 0 0 0 0 0 0 0 0 0 0 0 0 0 0 0 0 0 0 0 0 0 0 0 0 0 0 0 0
0.193164 3.64211e-08 1.6544e-08 1.98772e-08 0.54576 0.926966 0 0 0 0 0 0 0 0 0 0 0 0 0 0 0 0 0 0 0 0 0 0 0 0 0 0 0 0 0 0 0 0 0 0 0 0 0 0 0 0 0 0
0.203079 3.66774e-08 1.63813e-08 2.02961e-08 0.553368 0.915554 0 0 0 0 0 0 0 0 0 0 0 0 0 0 0 0 0 0 0 0 0 0 0 0 0 0 0 0 0 0 0 0 0 0 0 0 0 0 0 0 0 0
0.213503 3.69336e-08 1.63046e-08 2.0629e-08 0.558544 0.905993 0 0 0 0 0 0 0 0 0 0 0 0 0 0 0 0 0 0 0 0 0 0 0 0 0 0 0 0 0 0 0 0 0 0 0 0 0 0 0 0 0 0
0.224463 3.71892e-08 1.62678e-08 2.09214e-08 0.562567 0.897368 0 0 0 0 0 0 0 0 0 0 0 0 0 0 0 0 0 0 0 0 0 0 0 0 0 0 0 0 0 0 0 0 0 0 0 0 0 0 0 0 0 0
0.235984 3.74478e-08 1.62322e-08 2.12156e-08 0.566538 0.888712 0 0 0 0 0 0 0 0 0 0 0 0 0 0 0 0 0 0 0 0 0 0 0 0 0 0 0 0 0 0 0 0 0 0 0 0 0 0 0 0 0 0
0.248097 3.77513e-08 1.61859e-08 2.15654e-08 0.57125 0.878598 0 0 0 0 0 0 0 0 0 0 0 0 0 0 0 0 0 0 0 0 0 0 0 0 0 0 0 0 0 0 0 0 0 0 0 0 0 0 0 0 0 0
0.260832 3.807e-08 1.62113e-08 2.18587e-08 0.574171 0.869948 0 0 0 0 0 0 0 0 0 0 0 0 0 0 0 0 0 0 0 0 0 0 0 0 0 0 0 0 0 0 0 0 0 0 0 0 0 0 0 0 0 0
0.274221 3.83868e-08 1.62819e-08 2.2105e-08 0.575848 0.862584 0 0 0 0 0 0 0 0 0 0 0 0 0 0 0 0 0 0 0 0 0 0 0 0 0 0 0 0 0 0 0 0 0 0 0 0 0 0 0 0 0 0
0.288297 3.86891e-08 1.6378e-08 2.23111e-08 0.576677 0.856367 0 0 0 0 0 0 0 0 0 0 0 0 0 0 0 0 0 0 0 0 0 0 0 0 0 0 0 0 0 0 0 0 0 0 0 0 0 0 0 0 0 0
0.303095 3.89909e-08 1.64958e-08 2.24951e-08 0.576932 0.850748 0 0 0 0 0 0 0 0 0 0 0 0 0 0 0 0 0 0 0 0 0 0 0 0 0 0 0 0 0 0 0 0 0 0 0 0 0 0 0 0 0 0
0.318653 3.92821e-08 1.6625e-08 2.26571e-08 0.576779 0.845747 0 0 0 0 0 0 0 0 0 0 0 0 0 0 0 0 0 0 0 0 0 0 0 0 0 0 0 0 0 0 0 0 0 0 0 0 0 0 0 0 0 0
0.335009 3.95682e-08 1.6761e-08 2.28072e-08 0.576403 0.841064 0 0 0 0 0 0 0 0 0 0 0 0 0 0 0 0 0 0 0 0 0 0 0 0 0 0 0 0 0 0 0 0 0 0 0 0 0 0 0 0 0 0
0.352205 3.98489e-08 1.69029e-08 2.29459e-08 0.575824 0.836657 0 0 0 0 0 0 0 0 0 0 0 0 0 0 0 0 0 0 0 0 0 0 0 0 0 0 0 0 0 0 0 0 0 0 0 0 0 0 0 0 0 0
0.370284 4.01275e-08 1.70434e-08 2.30842e-08 0.57527 0.832249 0 0 0 0 0 0 0 0 0 0 0 0 0 0 0 0 0 0 0 0 0 0 0 0 0 0 0 0 0 0 0 0 0 0 0 0 0 0 0 0 0 0
0.389291 4.04034e-08 1.71843e-08 2.32191e-08 0.574683 0.827891 0 0 0 0 0 0 0 0 0 0 0 0 0 0 0 0 0 0 0 0 0 0 0 0 0 0 0 0 0 0 0 0 0 0 0 0 0 0 0 0 0 0
0.409273 4.06792e-08 1.73211e-08 2.33581e-08 0.574204 0.823398 0 0 0 0 0 0 0 0 0 0 0 0 0 0 0 0 0 0 0 0 0 0 0 0 0 0 0 0 0 0 0 0 0 0 0 0 0 0 0 0 0 0
0.430281 4.09544e-08 1.74554e-08 2.3499e-08 0.573785 0.818787 0 0 0 0 0 0 0 0 0 0 0 0 0 0 0 0 0 0 0 0 0 0 0 0 0 0 0 0 0 0 0 0 0 0 0 0 0 0 0 0 0 0
0.452368 4.12249e-08 1.75902e-08 2.36347e-08 0.57331 0.814187 0 0 0 0 0 0 0 0 0 0 0 0 0 0 0 0 0 0 0 0 0 0 0 0 0 0 0 0 0 0 0 0 0 0 0 0 0 0 0 0 0 0
0.475588 4.14916e-08 1.77231e-08 2.37685e-08 0.57285 0.809502 0 0 0 0 0 0 0 0 0 0 0 0 0 0 0 0 0 0 0 0 0 0 0 0 0 0 0 0 0 0 0 0 0 0 0 0 0 0 0 0 0 0
0.5 4.17465e-08 1.78601e-08 2.38863e-08 0.572176 0.805024 0 0 0 0 0 0 0 0 0 0 0 0 0 0 0 0 0 0 0 0 0 0 0 0 0 0 0 0 0 0 0 0 0 0 0 0 0 0 0 0 0 0
0.525665 4.19901e-08 1.80021e-08 2.39879e-08 0.571276 0.800732 0 0 0 0 0 0 0 0 0 0 0 0 0 0 0 0 0 0 0 0 0 0 0 0 0 0 0 0 0 0 0 0 0 0 0 0 0 0 0 0 0 0
0.552648 4.22244e-08 1.81484e-08 2.4076e-08 0.570191 0.796632 0 0 0 0 0 0 0 0 0 0 0 0 0 0 0 0 0 0 0 0 0 0 0 0 0 0 0 0 0 0 0 0 0 0 0 0 0 0 0 0 0 0
0.581015 4.24531e-08 1.82993e-08 2.41539e-08 0.568954 0.792568 0 0 0 0 0 0 0 0 0 0 0 0 0 0 0 0 0 0 0 0 0 0 0 0 0 0 0 0 0 0 0 0 0 0 0 0 0 0 0 0 0 0
0.610839 4.2678e-08 1.84479e-08 2.42301e-08 0.567742 0.788425 0 0 0 0 0 0 0 0 0 0 0 0 0 0 0 0 0 0 0 0 0 0 0 0 0 0 0 0 0 0 0 0 0 0 0 0 0 0 0 0 0 0
0.642193 4.29048e-08 1.86031e-08 2.43017e-08 0.566409 0.784205 0 0 0 0 0 0 0 0 0 0 0 0 0 0 0 0 0 0 0 0 0 0 0 0 0 0 0 0 0 0 0 0 0 0 0 0 0 0 0 0 0 0
0.675157 4.31267e-08 1.87531e-08 2.43736e-08 0.565162 0.779752 0 0 0 0 0 0 0 0 0 0 0 0 0 0 0 0 0 0 0 0 0 0 0 0 0 0 0 0 0 0 0 0 0 0 0 0 0 0 0 0 0 0
0.709813 4.33549e-08 1.89081e-08 2.44468e-08 0.563877 0.775202 0 0 0 0 0 0 0 0 0 0 0 0 0 0 0 0 0 0 0 0 0 0 0 0 0 0 0 0 0 0 0 0 0 0 0 0 0 0 0 0 0 0
0.746248 4.35799e-08 1.90674e-08 2.45125e-08 0.562472 0.770396 0 0 0 0 0 0 0 0 0 0 0 0 0 0 0 0 0 0 0 0 0 0 0 0 0 0 0 0 0 0 0 0 0 0 0 0 0 0 0 0 0 0
0.784553 4.37952e-08 1.92205e-08 2.45747e-08 0.561128 0.765408 0 0 0 0 0 0 0 0 0 0 0 0 0 0 0 0 0 0 0 0 0 0 0 0 0 0 0 0 0 0 0 0 0 0 0 0 0 0 0 0 0 0
0.824824 4.40203e-08 1.94021e-08 2.46183e-08 0.559247 0.760802 0 0 0 0 0 0 0 0 0 0 0 0 0 0 0 0 0 0 0 0 0 0 0 0 0 0 0 0 0 0 0 0 0 0 0 0 0 0 0 0 0 0
0.867162 4.42434e-08 1.9607e-08 2.46364e-08 0.556837 0.756238 0 0 0 0 0 0 0 0 0 0 0 0 0 0 0 0 0 0 0 0 0 0 0 0 0 0 0 0 0 0 0 0 0 0 0 0 0 0 0 0 0 0
0.911674 4.44652e-08 1.98064e-08 2.46587e-08 0.554563 0.75133 0 0 0 0 0 0 0 0 0 0 0 0 0 0 0 0 0 0 0 0 0 0 0 0 0 0 0 0 0 0 0 0 0 0 0 0 0 0 0 0 0 0
0.95847 4.47217e-08 2.00124e-08 2.47093e-08 0.552513 0.746145 0 0 0 0 0 0 0 0 0 0 0 0 0 0 0 0 0 0 0 0 0 0 0 0 0 0 0 0 0 0 0 0 0 0 0 0 0 0 0 0 0 0
1.00767 4.49928e-08 2.02321e-08 2.47607e-08 0.550326 0.740475 0 0 0 0 0 0 0 0 0 0 0 0 0 0 0 0 0 0 0 0 0 0 0 0 0 0 0 0 0 0 0 0 0 0 0 0 0 0 0 0 0 0
1.05939 4.52392e-08 2.04398e-08 2.47993e-08 0.548183 0.733956 0 0 0 0 0 0 0 0 0 0 0 0 0 0 0 0 0 0 0 0 0 0 0 0 0 0 0 0 0 0 0 0 0 0 0 0 0 0 0 0 0 0
1.11377 4.54828e-08 2.0633e-08 2.48498e-08 0.546355 0.726901 0 0 0 0 0 0 0 0 0 0 0 0 0 0 0 0 0 0 0 0 0 0 0 0 0 0 0 0 0 0 0 0 0 0 0 0 0 0 0 0 0 0
1.17094 4.57718e-08 2.08511e-08 2.49207e-08 0.544455 0.719997 0 0 0 0 0 0 0 0 0 0 0 0 0 0 0 0 0 0 0 0 0 0 0 0 0 0 0 0 0 0 0 0 0 0 0 0 0 0 0 0 0 0
1.23105 4.60876e-08 2.11078e-08 2.49798e-08 0.542008 0.713084 0 0 0 0 0 0 0 0 0 0 0 0 0 0 0 0 0 0 0 0 0 0 0 0 0 0 0 0 0 0 0 0 0 0 0 0 0 0 0 0 0 0
1.29424 4.6367e-08 2.13578e-08 2.50092e-08 0.539376 0.705067 0 0 0 0 0 0 0 0 0 0 0 0 0 0 0 0 0 0 0 0 0 0 0 0 0 0 0 0 0 0 0 0 0 0 0 0 0 0 0 0 0 0
1.36067 4.66072e-08 2.15824e-08 2.50248e-08 0.536931 0.695822 0 0 0 0 0 0 0 0 0 0 0 0 0 0 0 0 0 0 0 0 0 0 0 0 0 0 0 0 0 0 0 0 0 0 0 0 0 0 0 0 0 0
1.43051 4.68837e-08 2.18088e-08 2.50748e-08 0.534831 0.686155 0 0 0 0 0 0 0 0 0 0 0 0 0 0 0 0 0 0 0 0 0 0 0 0 0 0 0 0 0 0 0 0 0 0 0 0 0 0 0 0 0 0
1.50394 4.72341e-08 2.20682e-08 2.51659e-08 0.53279 0.676743 0 0 0 0 0 0 0 0 0 0 0 0 0 0 0 0 0 0 0 0 0 0 0 0 0 0 0 0 0 0 0 0 0 0 0 0 0 0 0 0 0 0
1.58114 4.7623e-08 2.23809e-08 2.52422e-08 0.530041 0.667733 0 0 0 0 0 0 0 0 0 0 0 0 0 0 0 0 0 0 0 0 0 0 0 0 0 0 0 0 0 0 0 0 0 0 0 0 0 0 0 0 0 0
1.6623 4.79708e-08 2.27083e-08 2.52624e-08 0.526622 0.657862 0 0 0 0 0 0 0 0 0 0 0 0 0 0 0 0 0 0 0 0 0 0 0 0 0 0 0 0 0 0 0 0 0 0 0 0 0 0 0 0 0 0
1.74763 4.82305e-08 2.30002e-08 2.52304e-08 0.52312 0.645685 0 0 0 0 0 0 0 0 0 0 0 0 0 0 0 0 0 0 0 0 0 0 0 0 0 0 0 0 0 0 0 0 0 0 0 0 0 0 0 0 0 0
1.83733 4.84307e-08 2.32376e-08 2.51931e-08 0.520189 0.630669 0 0 0 0 0 0 0 0 0 0 0 0 0 0 0 0 0 0 0 0 0 0 0 0 0 0 0 0 0 0 0 0 0 0 0 0 0 0 0 0 0 0
1.93164 4.86308e-08 2.34327e-08 2.51981e-08 0.518152 0.61342 0 0 0 0 0 0 0 0 0 0 0 0 0 0 0 0 0 0 0 0 0 0 0 0 0 0 0 0 0 0 0 0 0 0 0 0 0 0 0 0 0 0
2.03079 4.89019e-08 2.36783e-08 2.52237e-08 0.515801 0.596205 0 0 0 0 0 0 0 0 0 0 0 0 0 0 0 0 0 0 0 0 0 0 0 0 0 0 0 0 0 0 0 0 0 0 0 0 0 0 0 0 0 0
2.13503 4.92771e-08 2.40218e-08 2.52553e-08 0.512515 0.580136 0 0 0 0 0 0 0 0 0 0 0 0 0 0 0 0 0 0 0 0 0 0 0 0 0 0 0 0 0 0 0 0 0 0 0 0 0 0 0 0 0 0
2.24463 4.97386e-08 2.44669e-08 2.52717e-08 0.50809 0.56525 0 0 0 0 0 0 0 0 0 0 0 0 0 0 0 0 0 0 0 0 0 0 0 0 0 0 0 0 0 0 0 0 0 0 0 0 0 0 0 0 0 0
2.35984 5.02373e-08 2.49839e-08 2.52534e-08 0.502682 0.550745 0 0 0 0 0 0 0 0 0 0 0 0 0 0 0 0 0 0 0 0 0 0 0 0 0 0 0 0 0 0 0 0 0 0 0 0 0 0 0 0 0 0
2.48097 5.0672e-08 2.54908e-08 2.51813e-08 0.496946 0.534847 0 0 0 0 0 0 0 0 0 0 0 0 0 0 0 0 0 0 0 0 0 0 0 0 0 0 0 0 0 0 0 0 0 0 0 0 0 0 0 0 0 0
2.60832 5.09678e-08 2.59501e-08 2.50178e-08 0.490854 0.516157 0 0 0 0 0 0 0 0 0 0 0 0 0 0 0 0 0 0 0 0 0 0 0 0 0 0 0 0 0 0 0 0 0 0 0 0 0 0 0 0 0 0
2.74221 5.10482e-08 2.61957e-08 2.48525e-08 0.486844 0.491353 0 0 0 0 0 0 0 0 0 0 0 0 0 0 0 0 0 0 0 0 0 0 0 0 0 0 0 0 0 0 0 0 0 0 0 0 0 0 0 0 0 0
2.88297 5.09244e-08 2.62577e-08 2.46667e-08 0.484379 0.458862 0 0 0 0 0 0 0 0 0 0 0 0 0 0 0 0 0 0 0 0 0 0 0 0 0 0 0 0 0 0 0 0 0 0 0 0 0 0 0 0 0 0
3.03095 5.08601e-08 2.62561e-08 2.4604e-08 0.483758 0.4197 0 0 0 0 0 0 0 0 0 0 0 0 0 0 0 0 0 0 0 0 0 0 0 0 0 0 0 0 0 0 0 0 0 0 0 0 0 0 0 0 0 0
3.18653 5.10783e-08 2.62607e-08 2.48176e-08 0.485873 0.375159 0 0 0 0 0 0 0 0 0 0 0 0 0 0 0 0 0 0 0 0 0 0 0 0 0 0 0 0 0 0 0 0 0 0 0 0 0 0 0 0 0 0
3.35009 5.17576e-08 2.64449e-08 2.53127e-08 0.489063 0.329989 0 0 0 0 0 0 0 0 0 0 0 0 0 0 0 0 0 0 0 0 0 0 0 0 0 0 0 0 0 0 0 0 0 0 0 0 0 0 0 0 0 0
3.52205 5.30786e-08 2.68495e-08 2.6229e-08 0.494155 0.288111 0 0 0 0 0 0 0 0 0 0 0 0 0 0 0 0 0 0 0 0 0 0 0 0 0 0 0 0 0 0 0 0 0 0 0 0 0 0 0 0 0 0
3.70284 5.47915e-08 2.73972e-08 2.73943e-08 0.499973 0.25012 0 0 0 0 0 0 0 0 0 0 0 0 0 0 0 0 0 0 0 0 0 0 0 0 0 0 0 0 0 0 0 0 0 0 0 0 0 0 0 0 0 0
3.89291 5.66973e-08 2.80593e-08 2.86379e-08 0.505102 0.216825 0 0 0 0 0 0 0 0 0 0 0 0 0 0 0 0 0 0 0 0 0 0 0 0 0 0 0 0 0 0 0 0 0 0 0 0 0 0 0 0 0 0
4.09273 5.8527e-08 2.87729e-08 2.97541e-08 0.508382 0.188782 0 0 0 0 0 0 0 0 0 0 0 0 0 0 0 0 0 0 0 0 0 0 0 0 0 0 0 0 0 0 0 0 0 0 0 0 0 0 0 0 0 0
4.30281 5.99344e-08 2.94728e-08 3.04616e-08 0.508248 0.166272 0 0 0 0 0 0 0 0 0 0 0 0 0 0 0 0 0 0 0 0 0 0 0 0 0 0 0 0 0 0 0 0 0 0 0 0 0 0 0 0 0 0
4.52368 6.04781e-08 3.00308e-08 3.04472e-08 0.503443 0.148322 0 0 0 0 0 0 0 0 0 0 0 0 0 0 0 0 0 0 0 0 0 0 0 0 0 0 0 0 0 0 0 0 0 0 0 0 0 0 0 0 0 0
4.75588 5.97964e-08 3.03216e-08 2.94748e-08 0.492919 0.135026 0 0 0 0 0 0 0 0 0 0 0 0 0 0 0 0 0 0 0 0 0 0 0 0 0 0 0 0 0 0 0 0 0 0 0 0 0 0 0 0 0 0
5 5.79356e-08 3.02921e-08 2.76435e-08 0.477142 0.12688 0 0 0 0 0 0 0 0 0 0 0 0 0 0 0 0 0 0 0 0 0 0 0 0 0 0 0 0 0 0 0 0 0 0 0 0 0 0 0 0 0 0
5.25665 5.4811e-08 2.98557e-08 2.49553e-08 0.455297 0.12667 0 0 0 0 0 0 0 0 0 0 0 0 0 0 0 0 0 0 0 0 0 0 0 0 0 0 0 0 0 0 0 0 0 0 0 0 0 0 0 0 0 0
5.52648 5.06012e-08 2.88712e-08 2.173e-08 0.429437 0.132064 0 0 0 0 0 0 0 0 0 0 0 0 0 0 0 0 0 0 0 0 0 0 0 0 0 0 0 0 0 0 0 0 0 0 0 0 0 0 1.4013e-45 0 2.8026e-45 0
5.81015 4.53522e-08 2.71515e-08 1.82008e-08 0.40132 0.141879 0 0 0 0 0 0 0 0 0 0 0 0 0 0 0 0 0 0 0 0 0 0 0 0 0 0 0 0 0 0 1.4013e-45 0 5.60519e-45 0 1.68156e-44 0 5.04467e-44 0 1.44334e-43 0 3.82554e-43 0
6.10839 3.98652e-08 2.49068e-08 1.49585e-08 0.375225 0.141976 0 0 0 0 0 0 0 0 0 0 0 0 0 0 0 0 0 0 0 0 0 0 0 0 2.8026e-45 0 1.54143e-44 0 6.30584e-44 0 2.32616e-43 0 8.09951e-43 0 2.46909e-42 0 7.16204e-42 0 1.93351e-41 0 4.87428e-41 0
6.42193 3.53959e-08 2.29076e-08 1.24883e-08 0.352818 0.131984 0 0 0 0 0 0 0 0 0 0 0 0 0 0 0 0 0 0 1.4013e-45 0 1.54143e-44 0 9.66896e-44 0 4.94658e-43 0 2.16641e-42 0 8.63901e-42 0 2.99233e-41 0 9.80797e-41 0 2.83041e-40 0 7.79548e-40 0 2.00487e-39 0 4.83102e-39 0
6.75157 3.09541e-08 2.07221e-08 1.02319e-08 0.330552 0.130817 0 0 0 0 0 0 0 0 0 0 0 0 0 0 2.8026e-45 0 3.22299e-44 0 2.97075e-43 0 2.17482e-42 0 1.25052e-41 0 5.93254e-41 0 2.41884e-40 0 9.01517e-40 0 2.93903e-39 0 9.09061e-39 0 2.4911e-38 0 6.52985e-38 0 1.60368e-37 0 3.70187e-37 0
7.09813 2.68478e-08 1.85511e-08 8.29665e-09 0.309026 0.125208 0 0 0 0 0 0 0 0 0 0 0 0 1.96182e-44 0 3.58732e-43 0 4.29918e-42 0 3.56014e-41 0 2.36155e-40 0 1.24692e-39 0 5.4823e-39 0 2.08703e-38 0 7.29455e-38 0 2.24476e-37 0 6.57078e-37 0 1.71412e-36 0 4.28665e-36 0 1.00758e-35 0 2.23279e-35 0
7.46248 2.35423e-08 1.67436e-08 6.7987e-09 0.288787 0.116303 0 0 0 0 0 0 0 0 1.4013e-45 0 8.82818e-44 0 2.5868e-42 0 4.21469e-41 0 4.47366e-40 0 3.34128e-39 0 2.02077e-38 0 9.83732e-38 0 4.02345e-37 0 1.43489e-36 0 4.71797e-36 0 1.37433e-35 0 3.81738e-35 0 9.50293e-35 0 2.27248e-34 0 5.12319e-34 0 1.09203e-33 0
7.84553 2.05588e-08 1.50142e-08 5.54465e-09 0.269697 0.111276 0 0 0 0 0 0 1.4013e-45 0 1.82169e-43 0 1.08026e-41 0 2.6951e-40 0 3.8311e-39 0 3.62353e-38 0 2.45327e-37 0 1.3589e-36 0 6.12334e-36 0 2.338e-35 0 7.83614e-35 0 2.43108e-34 0 6.7215e-34 0 1.77614e-33 0 4.22893e-33 0 9.69139e-33 0 2.09986e-32 0 4.31356e-32 0
8.24824 1.8002e-08 1.34755e-08 4.52648e-09 0.251444 0.105763 0 0 0 0 0 0 1.12104e-43 0 2.12269e-41 0 1.03205e-39 0 2.2007e-38 0 2.74807e-37 0 2.32912e-36 0 1.43632e-35 0 7.31809e-35 0 3.06391e-34 0 1.09578e-33 0 3.46207e-33 0 1.01631e-32 0 2.6738e-32 0 6.73808e-32 0 1.53778e-31 0 3.38428e-31 0 7.06114e-31 0 1.40041e-30 0
8.67162 1.56786e-08 1.20025e-08 3.67613e-09 0.234468 0.10284 0 0 0 0 7.00649e-45 0 1.29858e-41 0 1.9136e-39 0 7.69662e-38 0 1.41344e-36 0 1.56031e-35 0 1.1914e-34 0 6.72272e-34 0 3.16347e-33 0 1.23504e-32 0 4.15056e-32 0 1.23973e-31 0 3.45288e-31 0 8.6651e-31 0 2.08729e-30 0 4.57556e-30 0 9.68923e-30 0 1.95031e-29 0 3.74081e-29 0
9.11674 1.35815e-08 1.06078e-08 2.9737e-09 0.218953 0.101557 0 0 0 0 9.34666e-43 0 1.16867e-39 0 1.34965e-37 0 4.53246e-36 0 7.22103e-35 0 7.08944e-34 0 4.9018e-33 0 2.54186e-32 0 1.109e-31 0 4.05105e-31 0 1.28319e-30 0 3.63336e-30 0 9.62597e-30 0 2.30954e-29 0 5.32958e-29 0 1.12438e-28 0 2.29535e-28 0 4.46509e-28 0 8.29624e-28 0
9.5847 1.17045e-08 9.30629e-09 2.39819e-09 0.204895 0.100654 0 0 0 0 9.32396e-41 0 8.22991e-38 0 7.5374e-36 0 2.13218e-34 0 2.96749e-33 0 2.60596e-32 0 1.6395e-31 0 7.84528e-31 0 3.18531e-30 0 1.09224e-29 0 3.27034e-29 0 8.80118e-29 0 2.2234e-28 0 5.11144e-28 0 1.13234e-27 0 2.3034e-27 0 4.54122e-27 0 8.55154e-27 0 1.54156e-26 0
10.0767 1.00289e-08 8.10239e-09 1.92656e-09 0.1921 0.0987284 0 0 3.64338e-44 0 7.2363e-39 0 4.58652e-36 0 3.36919e-34 0 8.0957e-33 0 9.90801e-32 0 7.8252e-31 0 4.5003e-30 0 1.995e-29 0 7.5644e-29 0 2.44237e-28 0 6.9316e-28 0 1.77742e-27 0 4.29157e-27 0 9.47305e-27 0 2.01865e-26 0 3.96637e-26 0 7.56491e-26 0 1.38119e-25 0 2.41922e-25 0
10.5939 8.58748e-09 7.04375e-09 1.54373e-09 0.179765 0.0943648 0 0 4.12542e-42 0 4.44904e-37 0 2.05793e-34 0 1.22564e-32 0 2.52163e-31 0 2.7309e-30 0 1.94982e-29 0 1.02955e-28 0 4.24398e-28 0 1.5078e-27 0 4.59756e-27 0 1.24003e-26 0 3.03683e-26 0 7.02355e-26 0 1.49156e-25 0 3.06315e-25 0 5.82345e-25 0 1.07622e-24 0 1.90803e-24 0 3.25178e-24 0
11.1377 7.52654e-09 6.27911e-09 1.24743e-09 0.165737 0.0863866 1.4013e-45 0 3.67517e-40 0 2.25065e-35 0 7.71521e-33 0 3.76377e-31 0 6.68064e-30 0 6.44063e-29 0 4.1777e-28 0 2.03379e-27 0 7.82349e-27 0 2.6127e-26 0 7.54455e-26 0 1.93865e-25 0 4.54461e-25 0 1.00891e-24 0 2.06523e-24 0 4.09484e-24 0 7.54443e-24 0 1.35308e-23 0 2.33275e-23 0 3.87346e-23 0
11.7094 6.61927e-09 5.60512e-09 1.01415e-09 0.153211 0.0808889 1.87774e-43 0 2.58639e-38 0 9.24705e-34 0 2.38381e-31 0 9.61875e-30 0 1.48362e-28 0 1.28051e-27 0 7.58137e-27 0 3.41631e-26 0 1.23051e-25 0 3.87441e-25 0 1.06234e-24 0 2.60686e-24 0 5.86206e-24 0 1.25169e-23 0 2.47413e-23 0 4.74435e-23 0 8.48416e-23 0 1.47883e-22 0 2.48265e-22 0 4.02155e-22 0
12.3105 5.79994e-09 4.97732e-09 8.22624e-10 0.141833 0.0760574 1.8762e-41 0 1.44518e-36 0 3.09685e-32 0 6.0878e-30 0 2.05071e-28 0 2.76755e-27 0 2.15008e-26 0 1.1671e-25 0 4.88647e-25 0 1.6533e-24 0 4.92211e-24 0 1.28476e-23 0 3.01746e-23 0 6.52217e-23 0 1.342e-22 0 2.56584e-22 0 4.76628e-22 0 8.2849e-22 0 1.40545e-21 0 2.30052e-21 0 3.6398e-21 0
