# 0.000732202 1 95 : grain size, compostion index, size index
# Heating and cooling timescale: 6.23318e-06 4.87801e+14
# Ratio of heating to cooling to determine stochastic cutoff: 100
# Equilibrium emission is recorded even for those grains in the stochastic regime.
# Emission spectrum was computed for: 
# Type: IRSF
# Scales: 0.25 0.5 1 1.5 2 2.5 3 3.5 4 4.5 5 5.5 6 6.5 7 7.5 8 8.5 9 9.5 10
# StochasticallyHeated: 0 0 0 0 0 0 0 0 0 0 0 0 0 0 0 0 0 0 0 0 0
# Temperature: -1
# Wavelength  CExt  CAbs  CSca  Albedo G EqEm1 StEm1 EqEm2 StEm2 EqEm3 StEm3 EqEm4 StEm4 EqEm5 StEm5 EqEm6 StEm6 EqEm7 StEm7 EqEm8 StEm8 EqEm9 StEm9 EqEm10 StEm10 EqEm11 StEm11 EqEm12 StEm12 EqEm13 StEm13 EqEm14 StEm14 EqEm15 StEm15 EqEm16 StEm16 EqEm17 StEm17 EqEm18 StEm18 EqEm19 StEm19 EqEm20 StEm20 EqEm21 StEm21
0.05 3.39983e-06 1.19678e-06 2.20305e-06 0.647988 0.855157 0 0 0 0 0 0 0 0 0 0 0 0 0 0 0 0 0 0 0 0 0 0 0 0 0 0 0 0 0 0 0 0 0 0 0 0 0 0 0 0 0 0
0.0525665 3.40144e-06 1.17787e-06 2.22357e-06 0.653714 0.842795 0 0 0 0 0 0 0 0 0 0 0 0 0 0 0 0 0 0 0 0 0 0 0 0 0 0 0 0 0 0 0 0 0 0 0 0 0 0 0 0 0 0
0.0552647 3.40313e-06 1.16375e-06 2.23937e-06 0.658034 0.832538 0 0 0 0 0 0 0 0 0 0 0 0 0 0 0 0 0 0 0 0 0 0 0 0 0 0 0 0 0 0 0 0 0 0 0 0 0 0 0 0 0 0
0.0581015 3.40476e-06 1.15768e-06 2.24708e-06 0.659981 0.826258 0 0 0 0 0 0 0 0 0 0 0 0 0 0 0 0 0 0 0 0 0 0 0 0 0 0 0 0 0 0 0 0 0 0 0 0 0 0 0 0 0 0
0.0610839 3.40641e-06 1.14173e-06 2.26469e-06 0.664831 0.817609 0 0 0 0 0 0 0 0 0 0 0 0 0 0 0 0 0 0 0 0 0 0 0 0 0 0 0 0 0 0 0 0 0 0 0 0 0 0 0 0 0 0
0.0642193 3.40843e-06 1.10132e-06 2.30711e-06 0.676884 0.799541 0 0 0 0 0 0 0 0 0 0 0 0 0 0 0 0 0 0 0 0 0 0 0 0 0 0 0 0 0 0 0 0 0 0 0 0 0 0 0 0 0 0
0.0675157 3.41094e-06 1.06154e-06 2.3494e-06 0.688783 0.779804 0 0 0 0 0 0 0 0 0 0 0 0 0 0 0 0 0 0 0 0 0 0 0 0 0 0 0 0 0 0 0 0 0 0 0 0 0 0 0 0 0 0
0.0709813 3.41363e-06 1.0587e-06 2.35493e-06 0.689861 0.772801 0 0 0 0 0 0 0 0 0 0 0 0 0 0 0 0 0 0 0 0 0 0 0 0 0 0 0 0 0 0 0 0 0 0 0 0 0 0 0 0 0 0
0.0746248 3.41622e-06 1.07611e-06 2.34011e-06 0.684999 0.774188 0 0 0 0 0 0 0 0 0 0 0 0 0 0 0 0 0 0 0 0 0 0 0 0 0 0 0 0 0 0 0 0 0 0 0 0 0 0 0 0 0 0
0.0784553 3.41869e-06 1.09985e-06 2.31884e-06 0.678283 0.779087 0 0 0 0 0 0 0 0 0 0 0 0 0 0 0 0 0 0 0 0 0 0 0 0 0 0 0 0 0 0 0 0 0 0 0 0 0 0 0 0 0 0
0.0824824 3.42114e-06 1.12689e-06 2.29425e-06 0.670611 0.784945 0 0 0 0 0 0 0 0 0 0 0 0 0 0 0 0 0 0 0 0 0 0 0 0 0 0 0 0 0 0 0 0 0 0 0 0 0 0 0 0 0 0
0.0867162 3.42363e-06 1.13426e-06 2.28938e-06 0.668698 0.783869 0 0 0 0 0 0 0 0 0 0 0 0 0 0 0 0 0 0 0 0 0 0 0 0 0 0 0 0 0 0 0 0 0 0 0 0 0 0 0 0 0 0
0.0911674 3.42644e-06 1.13067e-06 2.29577e-06 0.670016 0.778804 0 0 0 0 0 0 0 0 0 0 0 0 0 0 0 0 0 0 0 0 0 0 0 0 0 0 0 0 0 0 0 0 0 0 0 0 0 0 0 0 0 0
0.095847 3.4293e-06 1.13743e-06 2.29187e-06 0.66832 0.77708 0 0 0 0 0 0 0 0 0 0 0 0 0 0 0 0 0 0 0 0 0 0 0 0 0 0 0 0 0 0 0 0 0 0 0 0 0 0 0 0 0 0
0.100767 3.43127e-06 1.17894e-06 2.25233e-06 0.656413 0.78839 0 0 0 0 0 0 0 0 0 0 0 0 0 0 0 0 0 0 0 0 0 0 0 0 0 0 0 0 0 0 0 0 0 0 0 0 0 0 0 0 0 0
0.105939 3.43267e-06 1.22013e-06 2.21254e-06 0.644553 0.802856 0 0 0 0 0 0 0 0 0 0 0 0 0 0 0 0 0 0 0 0 0 0 0 0 0 0 0 0 0 0 0 0 0 0 0 0 0 0 0 0 0 0
0.111377 3.43267e-06 1.29363e-06 2.13903e-06 0.623141 0.830473 0 0 0 0 0 0 0 0 0 0 0 0 0 0 0 0 0 0 0 0 0 0 0 0 0 0 0 0 0 0 0 0 0 0 0 0 0 0 0 0 0 0
0.117094 3.43256e-06 1.36836e-06 2.0642e-06 0.601359 0.862456 0 0 0 0 0 0 0 0 0 0 0 0 0 0 0 0 0 0 0 0 0 0 0 0 0 0 0 0 0 0 0 0 0 0 0 0 0 0 0 0 0 0
0.123105 3.43359e-06 1.41705e-06 2.01654e-06 0.587299 0.88485 0 0 0 0 0 0 0 0 0 0 0 0 0 0 0 0 0 0 0 0 0 0 0 0 0 0 0 0 0 0 0 0 0 0 0 0 0 0 0 0 0 0
0.129424 3.43504e-06 1.45873e-06 1.97631e-06 0.575339 0.904602 0 0 0 0 0 0 0 0 0 0 0 0 0 0 0 0 0 0 0 0 0 0 0 0 0 0 0 0 0 0 0 0 0 0 0 0 0 0 0 0 0 0
0.136067 3.43653e-06 1.49238e-06 1.94415e-06 0.565731 0.920615 0 0 0 0 0 0 0 0 0 0 0 0 0 0 0 0 0 0 0 0 0 0 0 0 0 0 0 0 0 0 0 0 0 0 0 0 0 0 0 0 0 0
0.143051 3.43754e-06 1.51862e-06 1.91892e-06 0.558225 0.933103 0 0 0 0 0 0 0 0 0 0 0 0 0 0 0 0 0 0 0 0 0 0 0 0 0 0 0 0 0 0 0 0 0 0 0 0 0 0 0 0 0 0
0.150394 3.43762e-06 1.5332e-06 1.90442e-06 0.553995 0.94115 0 0 0 0 0 0 0 0 0 0 0 0 0 0 0 0 0 0 0 0 0 0 0 0 0 0 0 0 0 0 0 0 0 0 0 0 0 0 0 0 0 0
0.158114 3.43755e-06 1.52719e-06 1.91036e-06 0.555733 0.942025 0 0 0 0 0 0 0 0 0 0 0 0 0 0 0 0 0 0 0 0 0 0 0 0 0 0 0 0 0 0 0 0 0 0 0 0 0 0 0 0 0 0
0.16623 3.43912e-06 1.49007e-06 1.94905e-06 0.56673 0.931396 0 0 0 0 0 0 0 0 0 0 0 0 0 0 0 0 0 0 0 0 0 0 0 0 0 0 0 0 0 0 0 0 0 0 0 0 0 0 0 0 0 0
0.174762 3.44326e-06 1.41892e-06 2.02433e-06 0.587912 0.905362 0 0 0 0 0 0 0 0 0 0 0 0 0 0 0 0 0 0 0 0 0 0 0 0 0 0 0 0 0 0 0 0 0 0 0 0 0 0 0 0 0 0
0.183733 3.44852e-06 1.33041e-06 2.11811e-06 0.614209 0.870235 0 0 0 0 0 0 0 0 0 0 0 0 0 0 0 0 0 0 0 0 0 0 0 0 0 0 0 0 0 0 0 0 0 0 0 0 0 0 0 0 0 0
0.193164 3.45443e-06 1.23914e-06 2.21529e-06 0.641289 0.834102 0 0 0 0 0 0 0 0 0 0 0 0 0 0 0 0 0 0 0 0 0 0 0 0 0 0 0 0 0 0 0 0 0 0 0 0 0 0 0 0 0 0
0.203079 3.46078e-06 1.1605e-06 2.30028e-06 0.664671 0.804274 0 0 0 0 0 0 0 0 0 0 0 0 0 0 0 0 0 0 0 0 0 0 0 0 0 0 0 0 0 0 0 0 0 0 0 0 0 0 0 0 0 0
0.213503 3.46774e-06 1.09359e-06 2.37415e-06 0.684639 0.780056 0 0 0 0 0 0 0 0 0 0 0 0 0 0 0 0 0 0 0 0 0 0 0 0 0 0 0 0 0 0 0 0 0 0 0 0 0 0 0 0 0 0
0.224463 3.47593e-06 1.05079e-06 2.42514e-06 0.697694 0.763382 0 0 0 0 0 0 0 0 0 0 0 0 0 0 0 0 0 0 0 0 0 0 0 0 0 0 0 0 0 0 0 0 0 0 0 0 0 0 0 0 0 0
0.235984 3.48517e-06 1.02913e-06 2.45604e-06 0.704711 0.752217 0 0 0 0 0 0 0 0 0 0 0 0 0 0 0 0 0 0 0 0 0 0 0 0 0 0 0 0 0 0 0 0 0 0 0 0 0 0 0 0 0 0
0.248097 3.49474e-06 1.03979e-06 2.45495e-06 0.702469 0.748616 0 0 0 0 0 0 0 0 0 0 0 0 0 0 0 0 0 0 0 0 0 0 0 0 0 0 0 0 0 0 0 0 0 0 0 0 0 0 0 0 0 0
0.260832 3.50167e-06 1.06966e-06 2.43201e-06 0.694528 0.750656 0 0 0 0 0 0 0 0 0 0 0 0 0 0 0 0 0 0 0 0 0 0 0 0 0 0 0 0 0 0 0 0 0 0 0 0 0 0 0 0 0 0
0.274221 3.5055e-06 1.1031e-06 2.4024e-06 0.685324 0.754609 0 0 0 0 0 0 0 0 0 0 0 0 0 0 0 0 0 0 0 0 0 0 0 0 0 0 0 0 0 0 0 0 0 0 0 0 0 0 0 0 0 0
0.288297 3.5064e-06 1.14401e-06 2.3624e-06 0.673738 0.76371 0 0 0 0 0 0 0 0 0 0 0 0 0 0 0 0 0 0 0 0 0 0 0 0 0 0 0 0 0 0 0 0 0 0 0 0 0 0 0 0 0 0
0.303095 3.50808e-06 1.17232e-06 2.33575e-06 0.665821 0.770687 0 0 0 0 0 0 0 0 0 0 0 0 0 0 0 0 0 0 0 0 0 0 0 0 0 0 0 0 0 0 0 0 0 0 0 0 0 0 0 0 0 0
0.318653 3.51013e-06 1.19563e-06 2.3145e-06 0.659377 0.776838 0 0 0 0 0 0 0 0 0 0 0 0 0 0 0 0 0 0 0 0 0 0 0 0 0 0 0 0 0 0 0 0 0 0 0 0 0 0 0 0 0 0
0.335009 3.51284e-06 1.2145e-06 2.29834e-06 0.654269 0.782146 0 0 0 0 0 0 0 0 0 0 0 0 0 0 0 0 0 0 0 0 0 0 0 0 0 0 0 0 0 0 0 0 0 0 0 0 0 0 0 0 0 0
0.352205 3.51627e-06 1.22815e-06 2.28812e-06 0.650723 0.785897 0 0 0 0 0 0 0 0 0 0 0 0 0 0 0 0 0 0 0 0 0 0 0 0 0 0 0 0 0 0 0 0 0 0 0 0 0 0 0 0 0 0
0.370284 3.52024e-06 1.23777e-06 2.28247e-06 0.648385 0.788212 0 0 0 0 0 0 0 0 0 0 0 0 0 0 0 0 0 0 0 0 0 0 0 0 0 0 0 0 0 0 0 0 0 0 0 0 0 0 0 0 0 0
0.389291 3.52454e-06 1.24385e-06 2.28069e-06 0.647089 0.789091 0 0 0 0 0 0 0 0 0 0 0 0 0 0 0 0 0 0 0 0 0 0 0 0 0 0 0 0 0 0 0 0 0 0 0 0 0 0 0 0 0 0
0.409273 3.52902e-06 1.24892e-06 2.2801e-06 0.646099 0.789608 0 0 0 0 0 0 0 0 0 0 0 0 0 0 0 0 0 0 0 0 0 0 0 0 0 0 0 0 0 0 0 0 0 0 0 0 0 0 0 0 0 0
0.430281 3.5336e-06 1.25355e-06 2.28006e-06 0.645249 0.789962 0 0 0 0 0 0 0 0 0 0 0 0 0 0 0 0 0 0 0 0 0 0 0 0 0 0 0 0 0 0 0 0 0 0 0 0 0 0 0 0 0 0
0.452368 3.53847e-06 1.25832e-06 2.28015e-06 0.64439 0.7905 0 0 0 0 0 0 0 0 0 0 0 0 0 0 0 0 0 0 0 0 0 0 0 0 0 0 0 0 0 0 0 0 0 0 0 0 0 0 0 0 0 0
0.475588 3.54353e-06 1.26289e-06 2.28065e-06 0.643608 0.790983 0 0 0 0 0 0 0 0 0 0 0 0 0 0 0 0 0 0 0 0 0 0 0 0 0 0 0 0 0 0 0 0 0 0 0 0 0 0 0 0 0 0
0.5 3.54893e-06 1.26681e-06 2.28213e-06 0.643045 0.791208 0 0 0 0 0 0 0 0 0 0 0 0 0 0 0 0 0 0 0 0 0 0 0 0 0 0 0 0 0 0 0 0 0 0 0 0 0 0 0 0 0 0
0.525665 3.55465e-06 1.27035e-06 2.2843e-06 0.642623 0.791274 0 0 0 0 0 0 0 0 0 0 0 0 0 0 0 0 0 0 0 0 0 0 0 0 0 0 0 0 0 0 0 0 0 0 0 0 0 0 0 0 0 0
0.552648 3.56056e-06 1.27369e-06 2.28687e-06 0.642279 0.791218 0 0 0 0 0 0 0 0 0 0 0 0 0 0 0 0 0 0 0 0 0 0 0 0 0 0 0 0 0 0 0 0 0 0 0 0 0 0 0 0 0 0
0.581015 3.56694e-06 1.27516e-06 2.29178e-06 0.642506 0.790379 0 0 0 0 0 0 0 0 0 0 0 0 0 0 0 0 0 0 0 0 0 0 0 0 0 0 0 0 0 0 0 0 0 0 0 0 0 0 0 0 0 0
0.610839 3.57351e-06 1.27662e-06 2.29688e-06 0.642753 0.789498 0 0 0 0 0 0 0 0 0 0 0 0 0 0 0 0 0 0 0 0 0 0 0 0 0 0 0 0 0 0 0 0 0 0 0 0 0 0 0 0 0 0
0.642193 3.58027e-06 1.27807e-06 2.3022e-06 0.643025 0.788571 0 0 0 0 0 0 0 0 0 0 0 0 0 0 0 0 0 0 0 0 0 0 0 0 0 0 0 0 0 0 0 0 0 0 0 0 0 0 0 0 0 0
0.675157 3.58729e-06 1.27882e-06 2.30847e-06 0.643514 0.787329 0 0 0 0 0 0 0 0 0 0 0 0 0 0 0 0 0 0 0 0 0 0 0 0 0 0 0 0 0 0 0 0 0 0 0 0 0 0 0 0 0 0
0.709813 3.59453e-06 1.27893e-06 2.31561e-06 0.644202 0.785792 0 0 0 0 0 0 0 0 0 0 0 0 0 0 0 0 0 0 0 0 0 0 0 0 0 0 0 0 0 0 0 0 0 0 0 0 0 0 0 0 0 0
0.746248 3.60196e-06 1.27874e-06 2.32322e-06 0.644987 0.784096 0 0 0 0 0 0 0 0 0 0 0 0 0 0 0 0 0 0 0 0 0 0 0 0 0 0 0 0 0 0 0 0 0 0 0 0 0 0 0 0 0 0
0.784553 3.60956e-06 1.27849e-06 2.33106e-06 0.645803 0.782354 0 0 0 0 0 0 0 0 0 0 0 0 0 0 0 0 0 0 0 0 0 0 0 0 0 0 0 0 0 0 0 0 0 0 0 0 0 0 0 0 0 0
0.824824 3.61729e-06 1.27819e-06 2.3391e-06 0.646644 0.780554 0 0 0 0 0 0 0 0 0 0 0 0 0 0 0 0 0 0 0 0 0 0 0 0 0 0 0 0 0 0 0 0 0 0 0 0 0 0 0 0 0 0
0.867162 3.62517e-06 1.27782e-06 2.34734e-06 0.647513 0.778701 0 0 0 0 0 0 0 0 0 0 0 0 0 0 0 0 0 0 0 0 0 0 0 0 0 0 0 0 0 0 0 0 0 0 0 0 0 0 0 0 0 0
0.911674 3.63315e-06 1.27747e-06 2.35568e-06 0.648384 0.776831 0 0 0 0 0 0 0 0 0 0 0 0 0 0 0 0 0 0 0 0 0 0 0 0 0 0 0 0 0 0 0 0 0 0 0 0 0 0 0 0 0 0
0.95847 3.64122e-06 1.27733e-06 2.36389e-06 0.649202 0.774997 0 0 0 0 0 0 0 0 0 0 0 0 0 0 0 0 0 0 0 0 0 0 0 0 0 0 0 0 0 0 0 0 0 0 0 0 0 0 0 0 0 0
1.00767 3.64942e-06 1.27718e-06 2.37223e-06 0.650031 0.773144 0 0 0 0 0 0 0 0 0 0 0 0 0 0 0 0 0 0 0 0 0 0 0 0 0 0 0 0 0 0 0 0 0 0 0 0 0 0 0 0 0 0
1.05939 3.65768e-06 1.2774e-06 2.38028e-06 0.650761 0.771379 0 0 0 0 0 0 0 0 0 0 0 0 0 0 0 0 0 0 0 0 0 0 0 0 0 0 0 0 0 0 0 0 0 0 0 0 0 0 0 0 0 0
1.11377 3.66592e-06 1.2775e-06 2.38842e-06 0.651521 0.769549 0 0 0 0 0 0 0 0 0 0 0 0 0 0 0 0 0 0 0 0 0 0 0 0 0 0 0 0 0 0 0 0 0 0 0 0 0 0 0 0 0 0
1.17094 3.67402e-06 1.27792e-06 2.3961e-06 0.652175 0.767773 0 0 0 0 0 0 0 0 0 0 0 0 0 0 0 0 0 0 0 0 0 0 0 0 0 0 0 0 0 0 0 0 0 0 0 0 0 0 0 0 0 0
1.23105 3.68299e-06 1.27825e-06 2.40474e-06 0.652931 0.766002 0 0 0 0 0 0 0 0 0 0 0 0 0 0 0 0 0 0 0 0 0 0 0 0 0 0 0 0 0 0 0 0 0 0 0 0 0 0 0 0 0 0
1.29424 3.69379e-06 1.27798e-06 2.41581e-06 0.65402 0.764132 0 0 0 0 0 0 0 0 0 0 0 0 0 0 0 0 0 0 0 0 0 0 0 0 0 0 0 0 0 0 0 0 0 0 0 0 0 0 0 0 0 0
1.36067 3.7018e-06 1.27752e-06 2.42428e-06 0.654893 0.762044 0 0 0 0 0 0 0 0 0 0 0 0 0 0 0 0 0 0 0 0 0 0 0 0 0 0 0 0 0 0 0 0 0 0 0 0 0 0 0 0 0 0
1.43051 3.70697e-06 1.27671e-06 2.43026e-06 0.655593 0.759673 0 0 0 0 0 0 0 0 0 0 0 0 0 0 0 0 0 0 0 0 0 0 0 0 0 0 0 0 0 0 0 0 0 0 0 0 0 0 0 0 0 0
1.50394 3.72446e-06 1.27542e-06 2.44904e-06 0.657556 0.757989 0 0 0 0 0 0 0 0 0 0 0 0 0 0 0 0 0 0 0 0 0 0 0 0 0 0 0 0 0 0 0 0 0 0 0 0 0 0 0 0 0 0
1.58114 3.72657e-06 1.27313e-06 2.45344e-06 0.658365 0.755012 0 0 0 0 0 0 0 0 0 0 0 0 0 0 0 0 0 0 0 0 0 0 0 0 0 0 0 0 0 0 0 0 0 0 0 0 0 0 0 0 0 0
1.6623 3.74054e-06 1.26963e-06 2.47091e-06 0.660576 0.752553 0 0 0 0 0 0 0 0 0 0 0 0 0 0 0 0 0 0 0 0 0 0 0 0 0 0 0 0 0 0 0 0 0 0 0 0 0 0 0 0 0 0
1.74763 3.75173e-06 1.26466e-06 2.48707e-06 0.662912 0.74962 0 0 0 0 0 0 0 0 0 0 0 0 0 0 0 0 0 0 0 0 0 0 0 0 0 0 0 0 0 0 0 0 0 0 0 0 0 0 0 0 0 0
1.83733 3.75678e-06 1.25881e-06 2.49796e-06 0.664921 0.745901 0 0 0 0 0 0 0 0 0 0 0 0 0 0 0 0 0 0 0 0 0 0 0 0 0 0 0 0 0 0 0 0 0 0 0 0 0 0 0 0 0 0
1.93164 3.77133e-06 1.25206e-06 2.51927e-06 0.668005 0.742569 0 0 0 0 0 0 0 0 0 0 0 0 0 0 0 0 0 0 0 0 0 0 0 0 0 0 0 0 0 0 0 0 0 0 0 0 0 0 0 0 0 0
2.03079 3.78527e-06 1.24476e-06 2.54051e-06 0.671157 0.73924 0 0 0 0 0 0 0 0 0 0 0 0 0 0 0 0 0 0 0 0 0 0 0 0 0 0 0 0 0 0 0 0 0 0 0 0 0 0 0 0 0 0
2.13503 3.77687e-06 1.23427e-06 2.54259e-06 0.673202 0.733928 0 0 0 0 0 0 0 0 0 0 0 0 0 0 0 0 0 0 0 0 0 0 0 0 0 0 0 0 0 0 0 0 0 0 0 0 0 0 0 0 0 0
2.24463 3.82846e-06 1.22464e-06 2.60382e-06 0.680121 0.732433 0 0 0 0 0 0 0 0 0 0 0 0 0 0 0 0 0 0 0 0 0 0 0 0 0 0 0 0 0 0 0 0 0 0 0 0 0 0 0 0 0 0
2.35984 3.78155e-06 1.21625e-06 2.5653e-06 0.678373 0.723867 0 0 0 0 0 0 0 0 0 0 0 0 0 0 0 0 0 0 0 0 0 0 0 0 0 0 0 0 0 0 0 0 0 0 0 0 0 0 0 0 0 0
2.48097 3.83666e-06 1.20587e-06 2.63078e-06 0.685697 0.723662 0 0 0 0 0 0 0 0 0 0 0 0 0 0 0 0 0 0 0 0 0 0 0 0 0 0 0 0 0 0 0 0 0 0 0 0 0 0 0 0 0 0
2.60832 3.86124e-06 1.19097e-06 2.67027e-06 0.691559 0.718517 0 0 0 0 0 0 0 0 0 0 0 0 0 0 0 0 0 0 0 0 0 0 0 0 0 0 0 0 0 0 0 0 0 0 0 0 0 0 0 0 0 0
2.74221 3.7995e-06 1.1814e-06 2.6181e-06 0.689065 0.707486 0 0 0 0 0 0 0 0 0 0 0 0 0 0 0 0 0 0 0 0 0 0 0 0 0 0 0 0 0 0 0 0 0 0 0 0 0 0 0 0 0 0
2.88297 3.8775e-06 1.162e-06 2.7155e-06 0.700321 0.71025 0 0 0 0 0 0 0 0 0 0 0 0 0 0 0 0 0 0 0 0 0 0 0 0 0 0 0 0 0 0 0 0 0 0 0 0 0 0 0 0 0 0
3.03095 3.91044e-06 1.16019e-06 2.75025e-06 0.70331 0.707038 0 0 0 0 0 0 0 0 0 0 0 0 0 0 0 0 0 0 0 0 0 0 0 0 0 0 0 0 0 0 0 0 0 0 0 0 0 0 0 0 0 0
3.18653 3.83749e-06 1.14276e-06 2.69472e-06 0.70221 0.694242 0 0 0 0 0 0 0 0 0 0 0 0 0 0 0 0 0 0 0 0 0 0 0 0 0 0 0 0 0 0 0 0 0 0 0 0 0 0 0 0 0 0
3.35009 3.86697e-06 1.1301e-06 2.73686e-06 0.707754 0.690358 0 0 0 0 0 0 0 0 0 0 0 0 0 0 0 0 0 0 0 0 0 0 0 0 0 0 0 0 0 0 0 0 0 0 0 0 0 0 0 0 0 0
3.52205 3.98012e-06 1.13053e-06 2.8496e-06 0.715957 0.693067 0 0 0 0 0 0 0 0 0 0 0 0 0 0 0 0 0 0 0 0 0 0 0 0 0 0 0 0 0 0 0 0 0 0 0 0 0 0 0 0 0 0
3.70284 3.96566e-06 1.12156e-06 2.8441e-06 0.717181 0.685531 0 0 0 0 0 0 0 0 0 0 0 0 0 0 0 0 0 0 0 0 0 0 0 0 0 0 0 0 0 0 0 0 0 0 0 0 0 0 0 0 0 0
3.89291 3.86173e-06 1.10547e-06 2.75626e-06 0.713737 0.668893 0 0 0 0 0 0 0 0 0 0 0 0 0 0 0 0 0 0 0 0 0 0 0 0 0 0 0 0 0 0 0 0 0 0 0 0 0 0 0 0 0 0
4.09273 3.86476e-06 1.09154e-06 2.77322e-06 0.717565 0.663071 0 0 0 0 0 0 0 0 0 0 0 0 0 0 0 0 0 0 0 0 0 0 0 0 0 0 0 0 0 0 0 0 0 0 0 0 0 0 0 0 0 0
4.30281 3.99187e-06 1.07655e-06 2.91532e-06 0.730315 0.672597 0 0 0 0 0 0 0 0 0 0 0 0 0 0 0 0 0 0 0 0 0 0 0 0 0 0 0 0 0 0 0 0 0 0 0 0 0 0 0 0 0 0
4.52368 4.06078e-06 1.06401e-06 2.99677e-06 0.737978 0.670714 0 0 0 0 0 0 0 0 0 0 0 0 0 0 0 0 0 0 0 0 0 0 0 0 0 0 0 0 0 0 0 0 0 0 0 0 0 0 0 0 0 0
4.75588 3.99616e-06 1.06307e-06 2.93309e-06 0.733977 0.652411 0 0 0 0 0 0 0 0 0 0 0 0 0 0 0 0 0 0 0 0 0 0 0 0 0 0 0 0 0 0 0 0 0 0 0 0 0 0 0 0 0 0
5 3.90913e-06 1.07028e-06 2.83885e-06 0.726211 0.640875 0 0 0 0 0 0 0 0 0 0 0 0 0 0 0 0 0 0 0 0 0 0 0 0 0 0 0 0 0 0 0 0 0 0 0 0 0 0 0 0 0 0
5.25665 3.92284e-06 1.04546e-06 2.87738e-06 0.733494 0.643451 0 0 0 0 0 0 0 0 0 0 0 0 0 0 0 0 0 0 0 0 0 0 0 0 0 0 0 0 0 0 0 0 0 0 0 0 0 0 0 0 0 0
5.52648 4.01252e-06 1.00261e-06 3.00991e-06 0.75013 0.648947 0 0 0 0 0 0 0 0 0 0 0 0 0 0 0 0 0 0 0 0 0 0 0 0 0 0 0 0 0 0 0 0 0 0 0 0 0 0 0 0 0 0
5.81015 4.18058e-06 1.0316e-06 3.14898e-06 0.75324 0.652467 0 0 0 0 0 0 0 0 0 0 0 0 0 0 0 0 0 0 0 0 0 0 0 0 0 0 0 0 0 0 0 0 0 0 0 0 0 0 0 0 0 0
6.10839 4.1984e-06 1.01339e-06 3.185e-06 0.758624 0.640489 0 0 0 0 0 0 0 0 0 0 0 0 0 0 0 0 0 0 0 0 0 0 0 0 0 0 0 0 0 0 0 0 0 0 0 0 0 0 0 0 0 0
6.42193 4.18047e-06 1.01407e-06 3.16641e-06 0.757428 0.637838 0 0 0 0 0 0 0 0 0 0 0 0 0 0 0 0 0 0 0 0 0 0 0 0 0 0 0 0 0 0 0 0 0 0 0 0 0 0 0 0 0 0
6.75157 4.00175e-06 9.73065e-07 3.02868e-06 0.75684 0.597287 0 0 0 0 0 0 0 0 0 0 0 0 0 0 0 0 0 0 0 0 0 0 0 0 0 0 0 0 0 0 0 0 0 0 0 0 0 0 0 0 0 0
7.09813 3.89646e-06 1.0131e-06 2.88335e-06 0.739993 0.573427 0 0 0 0 0 0 0 0 0 0 0 0 0 0 0 0 0 0 0 0 0 0 0 0 0 0 0 0 0 0 0 0 0 0 0 0 0 0 0 0 0 0
7.46248 3.97464e-06 9.44613e-07 3.03002e-06 0.76234 0.580042 0 0 0 0 0 0 0 0 0 0 0 0 0 0 0 0 0 0 0 0 0 0 0 0 0 0 0 0 0 0 0 0 0 0 0 0 0 0 0 0 0 0
7.84553 4.04451e-06 9.99163e-07 3.04535e-06 0.752958 0.59163 0 0 0 0 0 0 0 0 0 0 0 0 0 0 0 0 0 0 0 0 0 0 0 0 0 0 0 0 0 0 0 0 0 0 0 0 0 0 0 0 0 0
8.24824 4.32939e-06 9.55115e-07 3.37428e-06 0.779388 0.617473 0 0 0 0 0 0 0 0 0 0 0 0 0 0 0 0 0 0 0 0 0 0 0 0 0 0 0 0 0 0 0 0 0 0 0 0 0 0 0 0 0 0
8.67162 4.40601e-06 1.01305e-06 3.39295e-06 0.770074 0.618061 0 0 0 0 0 0 0 0 0 0 0 0 0 0 0 0 0 0 0 0 0 0 0 0 0 0 0 0 0 0 0 0 0 0 0 0 0 0 0 0 0 0
9.11674 4.49927e-06 9.80591e-07 3.51868e-06 0.782055 0.634816 0 0 0 0 0 0 0 0 0 0 0 0 0 0 0 0 0 0 0 0 0 0 0 0 0 0 0 0 0 0 0 0 0 0 0 0 0 0 0 0 0 0
9.5847 4.43109e-06 1.05419e-06 3.3769e-06 0.762093 0.604521 0 0 0 0 0 0 0 0 0 0 0 0 0 0 0 0 0 0 0 0 0 0 0 0 0 0 0 0 0 0 0 0 0 0 0 0 0 0 0 0 0 0
10.0767 4.21368e-06 9.99328e-07 3.21435e-06 0.762837 0.61114 0 0 0 0 0 0 0 0 0 0 0 0 0 0 0 0 0 0 0 0 0 0 0 0 0 0 0 0 0 0 0 0 0 0 0 0 0 0 0 0 0 0
10.5939 4.10781e-06 1.08288e-06 3.02493e-06 0.736384 0.563553 0 0 0 0 0 0 0 0 0 0 0 0 0 0 0 0 0 0 0 0 0 0 0 0 0 0 0 0 0 0 0 0 0 0 0 0 0 0 0 0 0 0
11.1377 3.92719e-06 1.03662e-06 2.89057e-06 0.736039 0.516974 0 0 0 0 0 0 0 0 0 0 0 0 0 0 0 0 0 0 0 0 0 0 0 0 0 0 0 0 0 0 0 0 0 0 0 0 0 0 0 0 0 0
11.7094 3.99656e-06 1.10897e-06 2.88758e-06 0.722518 0.515383 0 0 0 0 0 0 0 0 0 0 0 0 0 0 0 0 0 0 0 0 0 0 0 0 0 0 0 0 0 0 0 0 0 0 0 0 1.4013e-45 0 2.8026e-45 0 9.80909e-45 0
12.3105 4.06227e-06 1.11568e-06 2.94659e-06 0.725356 0.498619 0 0 0 0 0 0 0 0 0 0 0 0 0 0 0 0 0 0 0 0 0 0 0 0 0 0 0 0 1.4013e-45 0 5.60519e-45 0 2.24208e-44 0 7.28675e-44 0 2.20004e-43 0 6.10966e-43 0 1.6185e-42 0
12.9424 4.23778e-06 1.13314e-06 3.10464e-06 0.732609 0.5056 0 0 0 0 0 0 0 0 0 0 0 0 0 0 0 0 0 0 0 0 0 0 2.8026e-45 0 1.26117e-44 0 6.44597e-44 0 2.77457e-43 0 1.03836e-42 0 3.5565e-42 0 1.12104e-41 0 3.18347e-41 0 8.40387e-41 0 2.12319e-40 0
13.6067 4.41218e-06 1.17064e-06 3.24155e-06 0.734681 0.508078 0 0 0 0 0 0 0 0 0 0 0 0 0 0 0 0 0 0 7.00649e-45 0 6.30584e-44 0 4.06377e-43 0 2.20564e-42 0 9.85393e-42 0 3.99342e-41 0 1.3995e-40 0 4.51259e-40 0 1.3451e-39 0 3.62987e-39 0 9.1386e-39 0 2.20666e-38 0
14.3051 4.57898e-06 1.12978e-06 3.4492e-06 0.753268 0.531977 0 0 0 0 0 0 0 0 0 0 0 0 0 0 8.40779e-45 0 1.16308e-43 0 1.20652e-42 0 8.91506e-42 0 5.29481e-41 0 2.64757e-40 0 1.0997e-39 0 4.16234e-39 0 1.37208e-38 0 4.17834e-38 0 1.1808e-37 0 3.03571e-37 0 7.30586e-37 0 1.6898e-36 0
15.0394 4.84739e-06 1.18183e-06 3.66556e-06 0.756193 0.546936 0 0 0 0 0 0 0 0 0 0 1.4013e-45 0 6.30584e-44 0 1.34525e-42 0 1.72556e-41 0 1.59451e-40 0 1.0687e-39 0 5.81823e-39 0 2.68942e-38 0 1.04205e-37 0 3.69598e-37 0 1.14942e-36 0 3.31505e-36 0 8.905e-36 0 2.18624e-35 0 5.04065e-35 0 1.1191e-34 0
15.8114 4.91254e-06 1.21546e-06 3.69708e-06 0.752579 0.545265 0 0 0 0 0 0 0 0 2.8026e-45 0 2.55036e-43 0 9.3943e-42 0 1.7222e-40 0 1.94952e-39 0 1.61609e-38 0 9.87091e-38 0 4.94721e-37 0 2.1221e-36 0 7.69619e-36 0 2.56609e-35 0 7.55027e-35 0 2.06783e-34 0 5.29305e-34 0 1.24373e-33 0 2.75297e-33 0 5.87858e-33 0
16.623 4.80343e-06 1.1728e-06 3.63063e-06 0.755841 0.538232 0 0 0 0 0 0 1.4013e-45 0 4.18988e-43 0 3.28745e-41 0 1.01475e-39 0 1.61388e-38 0 1.6228e-37 0 1.21326e-36 0 6.78384e-36 0 3.14269e-35 0 1.25554e-34 0 4.27586e-34 0 1.34426e-33 0 3.75225e-33 0 9.78321e-33 0 2.3919e-32 0 5.39073e-32 0 1.14782e-31 0 2.36189e-31 0
17.4762 4.71635e-06 1.16205e-06 3.5543e-06 0.753612 0.532532 0 0 0 0 0 0 1.8357e-43 0 5.32732e-41 0 3.3823e-39 0 8.83066e-38 0 1.227e-36 0 1.10229e-35 0 7.47013e-35 0 3.84019e-34 0 1.65071e-33 0 6.16354e-33 0 1.97715e-32 0 5.87776e-32 0 1.56046e-31 0 3.8826e-31 0 9.08715e-31 0 1.96835e-30 0 4.03929e-30 0 8.02396e-30 0
18.3733 4.60335e-06 1.17618e-06 3.42717e-06 0.744494 0.522588 0 0 0 0 7.00649e-45 0 2.45914e-41 0 5.39999e-39 0 2.79947e-37 0 6.2328e-36 0 7.61615e-35 0 6.1466e-34 0 3.79397e-33 0 1.80054e-32 0 7.20774e-32 0 2.52362e-31 0 7.64746e-31 0 2.1557e-30 0 5.45665e-30 0 1.29858e-29 0 2.91569e-29 0 6.08172e-29 0 1.205e-28 0 2.31482e-28 0
19.3164 4.44636e-06 1.17477e-06 3.27159e-06 0.73579 0.50664 0 0 0 0 9.711e-43 0 2.52471e-39 0 4.26093e-37 0 1.82167e-35 0 3.48564e-34 0 3.76929e-33 0 2.74714e-32 0 1.55148e-31 0 6.82394e-31 0 2.55282e-30 0 8.40763e-30 0 2.41356e-29 0 6.46777e-29 0 1.56459e-28 0 3.56909e-28 0 7.70337e-28 0 1.55016e-27 0 2.97056e-27 0 5.52746e-27 0
