# 7.0795e-05 0 132 : grain size, compostion index, size index
# Heating and cooling timescale: 0.000407317 5.18747e+06
# Ratio of heating to cooling to determine stochastic cutoff: 100
# Equilibrium emission is recorded even for those grains in the stochastic regime.
# Emission spectrum was computed for: 
# Type: IRSF
# Scales: 0.25 0.5 1 1.5 2 2.5 3 3.5 4 4.5 5 5.5 6 6.5 7 7.5 8 8.5 9 9.5 10
# StochasticallyHeated: 0 0 0 0 0 0 0 0 0 0 0 0 0 0 0 0 0 0 0 0 0
# Temperature: -1
# Wavelength  CExt  CAbs  CSca  Albedo G EqEm1 StEm1 EqEm2 StEm2 EqEm3 StEm3 EqEm4 StEm4 EqEm5 StEm5 EqEm6 StEm6 EqEm7 StEm7 EqEm8 StEm8 EqEm9 StEm9 EqEm10 StEm10 EqEm11 StEm11 EqEm12 StEm12 EqEm13 StEm13 EqEm14 StEm14 EqEm15 StEm15 EqEm16 StEm16 EqEm17 StEm17 EqEm18 StEm18 EqEm19 StEm19 EqEm20 StEm20 EqEm21 StEm21
0.05 8.56648e-09 3.24275e-09 5.32373e-09 0.621461 0.00576547 0 0 0 0 0 0 0 0 0 0 0 0 0 0 0 0 0 0 0 0 0 0 0 0 0 0 0 0 0 0 0 0 0 0 0 0 0 0 0 0 0 0
0.0525665 9.46849e-09 3.5842e-09 5.8843e-09 0.621461 0.00637255 0 0 0 0 0 0 0 0 0 0 0 0 0 0 0 0 0 0 0 0 0 0 0 0 0 0 0 0 0 0 0 0 0 0 0 0 0 0 0 0 0 0
0.0552647 1.04655e-08 3.9616e-09 6.50388e-09 0.621461 0.00704355 0 0 0 0 0 0 0 0 0 0 0 0 0 0 0 0 0 0 0 0 0 0 0 0 0 0 0 0 0 0 0 0 0 0 0 0 0 0 0 0 0 0
0.0581015 1.15674e-08 4.37873e-09 7.18871e-09 0.621461 0.0077852 0 0 0 0 0 0 0 0 0 0 0 0 0 0 0 0 0 0 0 0 0 0 0 0 0 0 0 0 0 0 0 0 0 0 0 0 0 0 0 0 0 0
0.0610839 1.27854e-08 4.83979e-09 7.94565e-09 0.621461 0.00860494 0 0 0 0 0 0 0 0 0 0 0 0 0 0 0 0 0 0 0 0 0 0 0 0 0 0 0 0 0 0 0 0 0 0 0 0 0 0 0 0 0 0
0.0642193 1.41317e-08 5.3494e-09 8.78228e-09 0.621461 0.009511 0 0 0 0 0 0 0 0 0 0 0 0 0 0 0 0 0 0 0 0 0 0 0 0 0 0 0 0 0 0 0 0 0 0 0 0 0 0 0 0 0 0
0.0675157 1.56197e-08 5.91266e-09 9.70702e-09 0.621461 0.0105125 0 0 0 0 0 0 0 0 0 0 0 0 0 0 0 0 0 0 0 0 0 0 0 0 0 0 0 0 0 0 0 0 0 0 0 0 0 0 0 0 0 0
0.0709813 1.72644e-08 6.53524e-09 1.07291e-08 0.621461 0.0116194 0 0 0 0 0 0 0 0 0 0 0 0 0 0 0 0 0 0 0 0 0 0 0 0 0 0 0 0 0 0 0 0 0 0 0 0 0 0 0 0 0 0
0.0746248 1.90822e-08 7.22337e-09 1.18588e-08 0.621461 0.0128428 0 0 0 0 0 0 0 0 0 0 0 0 0 0 0 0 0 0 0 0 0 0 0 0 0 0 0 0 0 0 0 0 0 0 0 0 0 0 0 0 0 0
0.0784553 2.10915e-08 7.98395e-09 1.31075e-08 0.621461 0.0141951 0 0 0 0 0 0 0 0 0 0 0 0 0 0 0 0 0 0 0 0 0 0 0 0 0 0 0 0 0 0 0 0 0 0 0 0 0 0 0 0 0 0
0.0824824 2.33123e-08 8.82462e-09 1.44877e-08 0.621461 0.0156898 0 0 0 0 0 0 0 0 0 0 0 0 0 0 0 0 0 0 0 0 0 0 0 0 0 0 0 0 0 0 0 0 0 0 0 0 0 0 0 0 0 0
0.0867162 2.5767e-08 9.75382e-09 1.60132e-08 0.621461 0.0173419 0 0 0 0 0 0 0 0 0 0 0 0 0 0 0 0 0 0 0 0 0 0 0 0 0 0 0 0 0 0 0 0 0 0 0 0 0 0 0 0 0 0
0.0911674 2.84801e-08 1.07808e-08 1.76993e-08 0.621461 0.0191679 0 0 0 0 0 0 0 0 0 0 0 0 0 0 0 0 0 0 0 0 0 0 0 0 0 0 0 0 0 0 0 0 0 0 0 0 0 0 0 0 0 0
0.095847 3.14789e-08 1.1916e-08 1.95629e-08 0.621461 0.0211862 0 0 0 0 0 0 0 0 0 0 0 0 0 0 0 0 0 0 0 0 0 0 0 0 0 0 0 0 0 0 0 0 0 0 0 0 0 0 0 0 0 0
0.100767 3.42551e-08 1.3067e-08 2.11881e-08 0.618538 0.0235692 0 0 0 0 0 0 0 0 0 0 0 0 0 0 0 0 0 0 0 0 0 0 0 0 0 0 0 0 0 0 0 0 0 0 0 0 0 0 0 0 0 0
0.105939 3.42266e-08 1.36193e-08 2.06073e-08 0.602084 0.0256046 0 0 0 0 0 0 0 0 0 0 0 0 0 0 0 0 0 0 0 0 0 0 0 0 0 0 0 0 0 0 0 0 0 0 0 0 0 0 0 0 0 0
0.111377 3.42725e-08 1.37707e-08 2.05018e-08 0.5982 0.0289403 0 0 0 0 0 0 0 0 0 0 0 0 0 0 0 0 0 0 0 0 0 0 0 0 0 0 0 0 0 0 0 0 0 0 0 0 0 0 0 0 0 0
0.117094 3.42485e-08 1.42394e-08 2.00091e-08 0.584233 0.0274507 0 0 0 0 0 0 0 0 0 0 0 0 0 0 0 0 0 0 0 0 0 0 0 0 0 0 0 0 0 0 0 0 0 0 0 0 0 0 0 0 0 0
0.123105 3.42799e-08 1.48045e-08 1.94755e-08 0.56813 0.0236555 0 0 0 0 0 0 0 0 0 0 0 0 0 0 0 0 0 0 0 0 0 0 0 0 0 0 0 0 0 0 0 0 0 0 0 0 0 0 0 0 0 0
0.129424 3.43458e-08 1.52602e-08 1.90856e-08 0.555689 0.0199126 0 0 0 0 0 0 0 0 0 0 0 0 0 0 0 0 0 0 0 0 0 0 0 0 0 0 0 0 0 0 0 0 0 0 0 0 0 0 0 0 0 0
0.136067 3.44166e-08 1.56366e-08 1.878e-08 0.545666 0.0168557 0 0 0 0 0 0 0 0 0 0 0 0 0 0 0 0 0 0 0 0 0 0 0 0 0 0 0 0 0 0 0 0 0 0 0 0 0 0 0 0 0 0
0.143051 3.44726e-08 1.59596e-08 1.8513e-08 0.537035 0.0143876 0 0 0 0 0 0 0 0 0 0 0 0 0 0 0 0 0 0 0 0 0 0 0 0 0 0 0 0 0 0 0 0 0 0 0 0 0 0 0 0 0 0
0.150394 3.44912e-08 1.62225e-08 1.82686e-08 0.529661 0.0122986 0 0 0 0 0 0 0 0 0 0 0 0 0 0 0 0 0 0 0 0 0 0 0 0 0 0 0 0 0 0 0 0 0 0 0 0 0 0 0 0 0 0
0.158114 3.44364e-08 1.63799e-08 1.80565e-08 0.524344 0.01055 0 0 0 0 0 0 0 0 0 0 0 0 0 0 0 0 0 0 0 0 0 0 0 0 0 0 0 0 0 0 0 0 0 0 0 0 0 0 0 0 0 0
0.16623 3.43e-08 1.6344e-08 1.7956e-08 0.523499 0.00908216 0 0 0 0 0 0 0 0 0 0 0 0 0 0 0 0 0 0 0 0 0 0 0 0 0 0 0 0 0 0 0 0 0 0 0 0 0 0 0 0 0 0
0.174762 3.41769e-08 1.60689e-08 1.8108e-08 0.529831 0.00782097 0 0 0 0 0 0 0 0 0 0 0 0 0 0 0 0 0 0 0 0 0 0 0 0 0 0 0 0 0 0 0 0 0 0 0 0 0 0 0 0 0 0
0.183733 3.42155e-08 1.55264e-08 1.86892e-08 0.546219 0.00667218 0 0 0 0 0 0 0 0 0 0 0 0 0 0 0 0 0 0 0 0 0 0 0 0 0 0 0 0 0 0 0 0 0 0 0 0 0 0 0 0 0 0
0.193164 3.45471e-08 1.47056e-08 1.98415e-08 0.574332 0.00556038 0 0 0 0 0 0 0 0 0 0 0 0 0 0 0 0 0 0 0 0 0 0 0 0 0 0 0 0 0 0 0 0 0 0 0 0 0 0 0 0 0 0
0.203079 3.51216e-08 1.37944e-08 2.13272e-08 0.607239 0.00446034 0 0 0 0 0 0 0 0 0 0 0 0 0 0 0 0 0 0 0 0 0 0 0 0 0 0 0 0 0 0 0 0 0 0 0 0 0 0 0 0 0 0
0.213503 3.58255e-08 1.3065e-08 2.27605e-08 0.635317 0.00342932 0 0 0 0 0 0 0 0 0 0 0 0 0 0 0 0 0 0 0 0 0 0 0 0 0 0 0 0 0 0 0 0 0 0 0 0 0 0 0 0 0 0
0.224463 3.656e-08 1.26769e-08 2.38832e-08 0.653259 0.00254317 0 0 0 0 0 0 0 0 0 0 0 0 0 0 0 0 0 0 0 0 0 0 0 0 0 0 0 0 0 0 0 0 0 0 0 0 0 0 0 0 0 0
0.235984 3.71804e-08 1.25811e-08 2.45993e-08 0.661621 0.00182186 0 0 0 0 0 0 0 0 0 0 0 0 0 0 0 0 0 0 0 0 0 0 0 0 0 0 0 0 0 0 0 0 0 0 0 0 0 0 0 0 0 0
0.248097 3.75347e-08 1.26355e-08 2.48992e-08 0.663365 0.00138916 0 0 0 0 0 0 0 0 0 0 0 0 0 0 0 0 0 0 0 0 0 0 0 0 0 0 0 0 0 0 0 0 0 0 0 0 0 0 0 0 0 0
0.260832 3.75349e-08 1.27842e-08 2.47507e-08 0.659405 0.00141961 0 0 0 0 0 0 0 0 0 0 0 0 0 0 0 0 0 0 0 0 0 0 0 0 0 0 0 0 0 0 0 0 0 0 0 0 0 0 0 0 0 0
0.274221 3.72781e-08 1.30823e-08 2.41958e-08 0.649063 0.00187131 0 0 0 0 0 0 0 0 0 0 0 0 0 0 0 0 0 0 0 0 0 0 0 0 0 0 0 0 0 0 0 0 0 0 0 0 0 0 0 0 0 0
0.288297 3.70043e-08 1.35588e-08 2.34455e-08 0.633588 0.00251556 0 0 0 0 0 0 0 0 0 0 0 0 0 0 0 0 0 0 0 0 0 0 0 0 0 0 0 0 0 0 0 0 0 0 0 0 0 0 0 0 0 0
0.303095 3.68785e-08 1.4115e-08 2.27634e-08 0.617255 0.0028362 0 0 0 0 0 0 0 0 0 0 0 0 0 0 0 0 0 0 0 0 0 0 0 0 0 0 0 0 0 0 0 0 0 0 0 0 0 0 0 0 0 0
0.318653 3.68942e-08 1.46309e-08 2.22633e-08 0.603435 0.00297223 0 0 0 0 0 0 0 0 0 0 0 0 0 0 0 0 0 0 0 0 0 0 0 0 0 0 0 0 0 0 0 0 0 0 0 0 0 0 0 0 0 0
0.335009 3.69975e-08 1.50566e-08 2.19409e-08 0.593037 0.00293231 0 0 0 0 0 0 0 0 0 0 0 0 0 0 0 0 0 0 0 0 0 0 0 0 0 0 0 0 0 0 0 0 0 0 0 0 0 0 0 0 0 0
0.352205 3.71481e-08 1.53882e-08 2.17599e-08 0.58576 0.00278811 0 0 0 0 0 0 0 0 0 0 0 0 0 0 0 0 0 0 0 0 0 0 0 0 0 0 0 0 0 0 0 0 0 0 0 0 0 0 0 0 0 0
0.370284 3.73223e-08 1.56383e-08 2.1684e-08 0.580993 0.00261033 0 0 0 0 0 0 0 0 0 0 0 0 0 0 0 0 0 0 0 0 0 0 0 0 0 0 0 0 0 0 0 0 0 0 0 0 0 0 0 0 0 0
0.389291 3.75099e-08 1.58258e-08 2.1684e-08 0.578089 0.00243645 0 0 0 0 0 0 0 0 0 0 0 0 0 0 0 0 0 0 0 0 0 0 0 0 0 0 0 0 0 0 0 0 0 0 0 0 0 0 0 0 0 0
0.409273 3.77031e-08 1.59743e-08 2.17288e-08 0.576314 0.00226652 0 0 0 0 0 0 0 0 0 0 0 0 0 0 0 0 0 0 0 0 0 0 0 0 0 0 0 0 0 0 0 0 0 0 0 0 0 0 0 0 0 0
0.430281 3.7897e-08 1.61033e-08 2.17937e-08 0.575076 0.00210471 0 0 0 0 0 0 0 0 0 0 0 0 0 0 0 0 0 0 0 0 0 0 0 0 0 0 0 0 0 0 0 0 0 0 0 0 0 0 0 0 0 0
0.452368 3.80892e-08 1.62268e-08 2.18624e-08 0.573979 0.00193723 0 0 0 0 0 0 0 0 0 0 0 0 0 0 0 0 0 0 0 0 0 0 0 0 0 0 0 0 0 0 0 0 0 0 0 0 0 0 0 0 0 0
0.475588 3.82835e-08 1.63552e-08 2.19283e-08 0.572787 0.00177642 0 0 0 0 0 0 0 0 0 0 0 0 0 0 0 0 0 0 0 0 0 0 0 0 0 0 0 0 0 0 0 0 0 0 0 0 0 0 0 0 0 0
0.5 3.84804e-08 1.6492e-08 2.19883e-08 0.571417 0.00162159 0 0 0 0 0 0 0 0 0 0 0 0 0 0 0 0 0 0 0 0 0 0 0 0 0 0 0 0 0 0 0 0 0 0 0 0 0 0 0 0 0 0
0.525665 3.8682e-08 1.66362e-08 2.20458e-08 0.569925 0.0014751 0 0 0 0 0 0 0 0 0 0 0 0 0 0 0 0 0 0 0 0 0 0 0 0 0 0 0 0 0 0 0 0 0 0 0 0 0 0 0 0 0 0
0.552648 3.88916e-08 1.67879e-08 2.21037e-08 0.568342 0.00134175 0 0 0 0 0 0 0 0 0 0 0 0 0 0 0 0 0 0 0 0 0 0 0 0 0 0 0 0 0 0 0 0 0 0 0 0 0 0 0 0 0 0
0.581015 3.91084e-08 1.69419e-08 2.21665e-08 0.566796 0.00121775 0 0 0 0 0 0 0 0 0 0 0 0 0 0 0 0 0 0 0 0 0 0 0 0 0 0 0 0 0 0 0 0 0 0 0 0 0 0 0 0 0 0
0.610839 3.93355e-08 1.70983e-08 2.22372e-08 0.565322 0.00110516 0 0 0 0 0 0 0 0 0 0 0 0 0 0 0 0 0 0 0 0 0 0 0 0 0 0 0 0 0 0 0 0 0 0 0 0 0 0 0 0 0 0
0.642193 3.95693e-08 1.72502e-08 2.23192e-08 0.564052 0.00100302 0 0 0 0 0 0 0 0 0 0 0 0 0 0 0 0 0 0 0 0 0 0 0 0 0 0 0 0 0 0 0 0 0 0 0 0 0 0 0 0 0 0
0.675157 3.98149e-08 1.74006e-08 2.24143e-08 0.562962 0.000910957 0 0 0 0 0 0 0 0 0 0 0 0 0 0 0 0 0 0 0 0 0 0 0 0 0 0 0 0 0 0 0 0 0 0 0 0 0 0 0 0 0 0
0.709813 4.00682e-08 1.75463e-08 2.25219e-08 0.562088 0.00082817 0 0 0 0 0 0 0 0 0 0 0 0 0 0 0 0 0 0 0 0 0 0 0 0 0 0 0 0 0 0 0 0 0 0 0 0 0 0 0 0 0 0
0.746248 4.03229e-08 1.76799e-08 2.26431e-08 0.561543 0.000754183 0 0 0 0 0 0 0 0 0 0 0 0 0 0 0 0 0 0 0 0 0 0 0 0 0 0 0 0 0 0 0 0 0 0 0 0 0 0 0 0 0 0
0.784553 4.05921e-08 1.78118e-08 2.27803e-08 0.561201 0.000686995 0 0 0 0 0 0 0 0 0 0 0 0 0 0 0 0 0 0 0 0 0 0 0 0 0 0 0 0 0 0 0 0 0 0 0 0 0 0 0 0 0 0
0.824824 4.08616e-08 1.79371e-08 2.29245e-08 0.561027 0.000626788 0 0 0 0 0 0 0 0 0 0 0 0 0 0 0 0 0 0 0 0 0 0 0 0 0 0 0 0 0 0 0 0 0 0 0 0 0 0 0 0 0 0
0.867162 4.11292e-08 1.80468e-08 2.30823e-08 0.561216 0.000572518 0 0 0 0 0 0 0 0 0 0 0 0 0 0 0 0 0 0 0 0 0 0 0 0 0 0 0 0 0 0 0 0 0 0 0 0 0 0 0 0 0 0
0.911674 4.14062e-08 1.81529e-08 2.32532e-08 0.561589 0.000523427 0 0 0 0 0 0 0 0 0 0 0 0 0 0 0 0 0 0 0 0 0 0 0 0 0 0 0 0 0 0 0 0 0 0 0 0 0 0 0 0 0 0
0.95847 4.16934e-08 1.82639e-08 2.34295e-08 0.561947 0.00047944 0 0 0 0 0 0 0 0 0 0 0 0 0 0 0 0 0 0 0 0 0 0 0 0 0 0 0 0 0 0 0 0 0 0 0 0 0 0 0 0 0 0
1.00767 4.19638e-08 1.8362e-08 2.36019e-08 0.562433 0.0004395 0 0 0 0 0 0 0 0 0 0 0 0 0 0 0 0 0 0 0 0 0 0 0 0 0 0 0 0 0 0 0 0 0 0 0 0 0 0 0 0 0 0
1.05939 4.22214e-08 1.84363e-08 2.37851e-08 0.563343 0.000403275 0 0 0 0 0 0 0 0 0 0 0 0 0 0 0 0 0 0 0 0 0 0 0 0 0 0 0 0 0 0 0 0 0 0 0 0 0 0 0 0 0 0
1.11377 4.2499e-08 1.85154e-08 2.39835e-08 0.564332 0.000370298 0 0 0 0 0 0 0 0 0 0 0 0 0 0 0 0 0 0 0 0 0 0 0 0 0 0 0 0 0 0 0 0 0 0 0 0 0 0 0 0 0 0
1.17094 4.27963e-08 1.86172e-08 2.41791e-08 0.564981 0.000339515 0 0 0 0 0 0 0 0 0 0 0 0 0 0 0 0 0 0 0 0 0 0 0 0 0 0 0 0 0 0 0 0 0 0 0 0 0 0 0 0 0 0
1.23105 4.30664e-08 1.87151e-08 2.43513e-08 0.565436 0.000311294 0 0 0 0 0 0 0 0 0 0 0 0 0 0 0 0 0 0 0 0 0 0 0 0 0 0 0 0 0 0 0 0 0 0 0 0 0 0 0 0 0 0
1.29424 4.32859e-08 1.87751e-08 2.45108e-08 0.566253 0.000285362 0 0 0 0 0 0 0 0 0 0 0 0 0 0 0 0 0 0 0 0 0 0 0 0 0 0 0 0 0 0 0 0 0 0 0 0 0 0 0 0 0 0
1.36067 4.35007e-08 1.88101e-08 2.46906e-08 0.56759 0.000261742 0 0 0 0 0 0 0 0 0 0 0 0 0 0 0 0 0 0 0 0 0 0 0 0 0 0 0 0 0 0 0 0 0 0 0 0 0 0 0 0 0 0
1.43051 4.37763e-08 1.88763e-08 2.48999e-08 0.5688 0.000240209 0 0 0 0 0 0 0 0 0 0 0 0 0 0 0 0 0 0 0 0 0 0 0 0 0 0 0 0 0 0 0 0 0 0 0 0 0 0 0 0 0 0
1.50394 4.40978e-08 1.89956e-08 2.51021e-08 0.569239 0.000220279 0 0 0 0 0 0 0 0 0 0 0 0 0 0 0 0 0 0 0 0 0 0 0 0 0 0 0 0 0 0 0 0 0 0 0 0 0 0 0 0 0 0
1.58114 4.43861e-08 1.91326e-08 2.52535e-08 0.568951 0.000201732 0 0 0 0 0 0 0 0 0 0 0 0 0 0 0 0 0 0 0 0 0 0 0 0 0 0 0 0 0 0 0 0 0 0 0 0 0 0 0 0 0 0
1.6623 4.45712e-08 1.92275e-08 2.53437e-08 0.568613 0.000184534 0 0 0 0 0 0 0 0 0 0 0 0 0 0 0 0 0 0 0 0 0 0 0 0 0 0 0 0 0 0 0 0 0 0 0 0 0 0 0 0 0 0
1.74763 4.46694e-08 1.9254e-08 2.54154e-08 0.568966 0.000169005 0 0 0 0 0 0 0 0 0 0 0 0 0 0 0 0 0 0 0 0 0 0 0 0 0 0 0 0 0 0 0 0 0 0 0 0 0 0 0 0 0 0
1.83733 4.47794e-08 1.9249e-08 2.55305e-08 0.570138 0.000154804 0 0 0 0 0 0 0 0 0 0 0 0 0 0 0 0 0 0 0 0 0 0 0 0 0 0 0 0 0 0 0 0 0 0 0 0 0 0 0 0 0 0
1.93164 4.49988e-08 1.92828e-08 2.5716e-08 0.571481 0.000141793 0 0 0 0 0 0 0 0 0 0 0 0 0 0 0 0 0 0 0 0 0 0 0 0 0 0 0 0 0 0 0 0 0 0 0 0 0 0 0 0 0 0
2.03079 4.53556e-08 1.94085e-08 2.59471e-08 0.572082 0.000129725 0 0 0 0 0 0 0 0 0 0 0 0 0 0 0 0 0 0 0 0 0 0 0 0 0 0 0 0 0 0 0 0 0 0 0 0 0 0 0 0 0 0
2.13503 4.57724e-08 1.96229e-08 2.61495e-08 0.571294 0.000118657 0 0 0 0 0 0 0 0 0 0 0 0 0 0 0 0 0 0 0 0 0 0 0 0 0 0 0 0 0 0 0 0 0 0 0 0 0 0 0 0 0 0
2.24463 4.61254e-08 1.98753e-08 2.62501e-08 0.569103 0.000108569 0 0 0 0 0 0 0 0 0 0 0 0 0 0 0 0 0 0 0 0 0 0 0 0 0 0 0 0 0 0 0 0 0 0 0 0 0 0 0 0 0 0
2.35984 4.62977e-08 2.00919e-08 2.62058e-08 0.566029 9.92926e-05 0 0 0 0 0 0 0 0 0 0 0 0 0 0 0 0 0 0 0 0 0 0 0 0 0 0 0 0 0 0 0 0 0 0 0 0 0 0 0 0 0 0
2.48097 4.62465e-08 2.02139e-08 2.60326e-08 0.562909 9.07218e-05 0 0 0 0 0 0 0 0 0 0 0 0 0 0 0 0 0 0 0 0 0 0 0 0 0 0 0 0 0 0 0 0 0 0 0 0 0 0 0 0 0 0
2.60832 4.60261e-08 2.02276e-08 2.57984e-08 0.560518 8.27967e-05 0 0 0 0 0 0 0 0 0 0 0 0 0 0 0 0 0 0 0 0 0 0 0 0 0 0 0 0 0 0 0 0 0 0 0 0 0 0 0 0 0 0
2.74221 4.57639e-08 2.01653e-08 2.55986e-08 0.559362 7.55862e-05 0 0 0 0 0 0 0 0 0 0 0 0 0 0 0 0 0 0 0 0 0 0 0 0 0 0 0 0 0 0 0 0 0 0 0 0 0 0 0 0 0 0
2.88297 4.5603e-08 2.00961e-08 2.55069e-08 0.559325 6.90729e-05 0 0 0 0 0 0 0 0 0 0 0 0 0 0 0 0 0 0 0 0 0 0 0 0 0 0 0 0 0 0 0 0 0 0 0 0 0 0 0 0 0 0
3.03095 4.56442e-08 2.0091e-08 2.55532e-08 0.559834 6.31538e-05 0 0 0 0 0 0 0 0 0 0 0 0 0 0 0 0 0 0 0 0 0 0 0 0 0 0 0 0 0 0 0 0 0 0 0 0 0 0 0 0 0 0
3.18653 4.59177e-08 2.02025e-08 2.57153e-08 0.560029 5.76567e-05 0 0 0 0 0 0 0 0 0 0 0 0 0 0 0 0 0 0 0 0 0 0 0 0 0 0 0 0 0 0 0 0 0 0 0 0 0 0 0 0 0 0
3.35009 4.63804e-08 2.04528e-08 2.59276e-08 0.559021 5.2603e-05 0 0 0 0 0 0 0 0 0 0 0 0 0 0 0 0 0 0 0 0 0 0 0 0 0 0 0 0 0 0 0 0 0 0 0 0 0 0 0 0 0 0
3.52205 4.6953e-08 2.08448e-08 2.61082e-08 0.55605 4.80102e-05 0 0 0 0 0 0 0 0 0 0 0 0 0 0 0 0 0 0 0 0 0 0 0 0 0 0 0 0 0 0 0 0 0 0 0 0 0 0 0 0 0 0
3.70284 4.75368e-08 2.13562e-08 2.61806e-08 0.550744 4.38066e-05 0 0 0 0 0 0 0 0 0 0 0 0 0 0 0 0 0 0 0 0 0 0 0 0 0 0 0 0 0 0 0 0 0 0 0 0 0 0 0 0 0 0
3.89291 4.80411e-08 2.19554e-08 2.60857e-08 0.542987 3.9926e-05 0 0 0 0 0 0 0 0 0 0 0 0 0 0 0 0 0 0 0 0 0 0 0 0 0 0 0 0 0 0 0 0 0 0 0 0 0 0 0 0 0 0
4.09273 4.83925e-08 2.2604e-08 2.57885e-08 0.532903 3.62643e-05 0 0 0 0 0 0 0 0 0 0 0 0 0 0 0 0 0 0 0 0 0 0 0 0 0 0 0 0 0 0 0 0 0 0 0 0 0 0 0 0 0 0
4.30281 4.85468e-08 2.32552e-08 2.52916e-08 0.520973 3.29535e-05 0 0 0 0 0 0 0 0 0 0 0 0 0 0 0 0 0 0 0 0 0 0 0 0 0 0 0 0 0 0 0 0 0 0 0 0 0 0 0 0 0 0
4.52368 4.84544e-08 2.38417e-08 2.46127e-08 0.507955 2.99416e-05 0 0 0 0 0 0 0 0 0 0 0 0 0 0 0 0 0 0 0 0 0 0 0 0 0 0 0 0 0 0 0 0 0 0 0 0 0 0 0 0 0 0
4.75588 4.80417e-08 2.42796e-08 2.37621e-08 0.494614 2.71796e-05 0 0 0 0 0 0 0 0 0 0 0 0 0 0 0 0 0 0 0 0 0 0 0 0 0 0 0 0 0 0 0 0 0 0 0 0 0 0 0 0 0 0
5 4.71979e-08 2.44729e-08 2.27249e-08 0.481482 2.45398e-05 0 0 0 0 0 0 0 0 0 0 0 0 0 0 0 0 0 0 0 0 0 0 0 0 0 0 0 0 0 0 0 0 0 0 0 0 0 0 0 0 0 0
5.25665 4.57672e-08 2.43282e-08 2.1439e-08 0.468436 2.21678e-05 0 0 0 0 0 0 0 0 0 0 0 0 0 0 0 0 0 0 0 0 0 0 0 0 0 0 0 0 0 0 0 0 0 0 0 0 0 0 0 0 0 0
5.52648 4.36729e-08 2.38326e-08 1.98403e-08 0.454293 2.00489e-05 0 0 0 0 0 0 0 0 0 0 0 0 0 0 0 0 0 0 0 0 0 0 0 0 0 0 0 0 0 0 0 0 0 0 0 0 0 0 0 0 0 0
5.81015 4.09932e-08 2.30816e-08 1.79116e-08 0.43694 1.8115e-05 0 0 0 0 0 0 0 0 0 0 0 0 0 0 0 0 0 0 0 0 0 0 0 0 0 0 0 0 0 0 0 0 0 0 1.4013e-45 0 7.00649e-45 0 1.82169e-44 0 4.90454e-44 0
6.10839 3.79875e-08 2.22622e-08 1.57253e-08 0.413961 1.63023e-05 0 0 0 0 0 0 0 0 0 0 0 0 0 0 0 0 0 0 0 0 0 0 0 0 0 0 1.4013e-45 0 8.40779e-45 0 3.22299e-44 0 1.13505e-43 0 3.58732e-43 0 1.02435e-42 0 2.79279e-42 0 7.27834e-42 0
6.42193 3.52558e-08 2.17409e-08 1.35149e-08 0.383338 1.48144e-05 0 0 0 0 0 0 0 0 0 0 0 0 0 0 0 0 0 0 0 0 2.8026e-45 0 1.54143e-44 0 7.84727e-44 0 3.53127e-43 0 1.39709e-42 0 4.91856e-42 0 1.5937e-41 0 4.77492e-41 0 1.29536e-40 0 3.36132e-40 0 8.35954e-40 0
6.75157 3.25895e-08 2.12925e-08 1.1297e-08 0.346645 1.32279e-05 0 0 0 0 0 0 0 0 0 0 0 0 0 0 0 0 5.60519e-45 0 5.60519e-44 0 3.9937e-43 0 2.29953e-42 0 1.11838e-41 0 4.65497e-41 0 1.72124e-40 0 5.69762e-40 0 1.74309e-39 0 4.95032e-39 0 1.27907e-38 0 3.16806e-38 0 7.53612e-38 0
7.09813 3.03462e-08 2.10376e-08 9.30868e-09 0.306749 1.18448e-05 0 0 0 0 0 0 0 0 0 0 0 0 4.2039e-45 0 8.12753e-44 0 9.34666e-43 0 8.04065e-42 0 5.20793e-41 0 2.75218e-40 0 1.23907e-39 0 4.81048e-39 0 1.66873e-38 0 5.21023e-38 0 1.50929e-37 0 4.07336e-37 0 1.00482e-36 0 2.38097e-36 0 5.42916e-36 0
7.46248 2.81907e-08 2.06255e-08 7.56514e-09 0.268356 1.05694e-05 0 0 0 0 0 0 0 0 0 0 2.38221e-44 0 6.97847e-43 0 1.12664e-41 0 1.14438e-40 0 8.86855e-40 0 5.24372e-39 0 2.55475e-38 0 1.06872e-37 0 3.88325e-37 0 1.26771e-36 0 3.74409e-36 0 1.0297e-35 0 2.64752e-35 0 6.24922e-35 0 1.41971e-34 0 3.10958e-34 0
7.84553 2.57595e-08 1.96918e-08 6.06769e-09 0.235552 9.34187e-06 0 0 0 0 0 0 0 0 5.88545e-44 0 3.3407e-42 0 8.33562e-41 0 1.17477e-39 0 1.06561e-38 0 7.47239e-38 0 4.05102e-37 0 1.82682e-36 0 7.12636e-36 0 2.43131e-35 0 7.49165e-35 0 2.09866e-34 0 5.49357e-34 0 1.34883e-33 0 3.05306e-33 0 6.66362e-33 0 1.40471e-32 0
8.24824 2.2859e-08 1.80513e-08 4.80776e-09 0.210322 8.19911e-06 0 0 0 0 0 0 4.2039e-44 0 7.58943e-42 0 3.49889e-40 0 7.45991e-39 0 9.23959e-38 0 7.52557e-37 0 4.79848e-36 0 2.39534e-35 0 1.0036e-34 0 3.66327e-34 0 1.17712e-33 0 3.43317e-33 0 9.1457e-33 0 2.28416e-32 0 5.36764e-32 0 1.16745e-31 0 2.4528e-31 0 4.9857e-31 0
8.67162 1.95908e-08 1.5817e-08 3.77377e-09 0.19263 7.20916e-06 0 0 0 0 2.8026e-45 0 5.0671e-42 0 7.17833e-40 0 2.74507e-38 0 5.04056e-37 0 5.52125e-36 0 4.0593e-35 0 2.36446e-34 0 1.0912e-33 0 4.26304e-33 0 1.46074e-32 0 4.43377e-32 0 1.2273e-31 0 3.11672e-31 0 7.44386e-31 0 1.6778e-30 0 3.51332e-30 0 7.11871e-30 0 1.39773e-29 0
9.11674 1.62734e-08 1.33255e-08 2.94792e-09 0.181149 6.32492e-06 0 0 0 0 4.18988e-43 0 4.61354e-40 0 5.13146e-38 0 1.6425e-36 0 2.6165e-35 0 2.54991e-34 0 1.70073e-33 0 9.08979e-33 0 3.89312e-32 0 1.42304e-31 0 4.59154e-31 0 1.32013e-30 0 3.477e-30 0 8.43703e-30 0 1.93121e-29 0 4.18349e-29 0 8.44979e-29 0 1.65408e-28 0 3.14247e-28 0
9.5847 1.32347e-08 1.09321e-08 2.3026e-09 0.173982 5.52644e-06 0 0 0 0 4.11197e-41 0 3.21477e-38 0 2.84087e-36 0 7.67756e-35 0 1.06842e-33 0 9.31681e-33 0 5.66425e-32 0 2.78946e-31 0 1.11281e-30 0 3.81818e-30 0 1.16348e-29 0 3.17703e-29 0 7.98133e-29 0 1.85466e-28 0 4.07704e-28 0 8.50478e-28 0 1.65983e-27 0 3.14435e-27 0 5.78948e-27 0
10.0767 1.06508e-08 8.84602e-09 1.80476e-09 0.169448 4.78203e-06 0 0 2.24208e-44 0 3.11131e-39 0 1.75708e-36 0 1.24758e-34 0 2.87034e-33 0 3.51253e-32 0 2.75566e-31 0 1.53401e-30 0 6.9888e-30 0 2.60593e-29 0 8.41896e-29 0 2.4296e-28 0 6.3168e-28 0 1.51712e-27 0 3.38321e-27 0 7.15662e-27 0 1.44024e-26 0 2.72056e-26 0 4.99549e-26 0 8.92776e-26 0
10.5939 8.54733e-09 7.12641e-09 1.42092e-09 0.166241 4.06995e-06 0 0 2.42144e-42 0 1.85517e-37 0 7.68911e-35 0 4.43369e-33 0 8.75266e-32 0 9.47812e-31 0 6.72433e-30 0 3.4423e-29 0 1.45636e-28 0 5.09241e-28 0 1.55365e-27 0 4.25751e-27 0 1.05647e-26 0 2.43109e-26 0 5.21321e-26 0 1.06316e-25 0 2.06775e-25 0 3.78646e-25 0 6.74944e-25 0 1.17252e-24 0
11.1377 6.8427e-09 5.72039e-09 1.12231e-09 0.164015 3.40803e-06 1.4013e-45 0 1.99507e-40 0 8.82434e-36 0 2.72507e-33 0 1.28912e-31 0 2.2e-30 0 2.12076e-29 0 1.36733e-28 0 6.4632e-28 0 2.54849e-27 0 8.3829e-27 0 2.42199e-26 0 6.31829e-26 0 1.49979e-25 0 3.31362e-25 0 6.84591e-25 0 1.34838e-24 0 2.53867e-24 0 4.51352e-24 0 7.82156e-24 0 1.32262e-23 0
11.7094 5.94972e-09 5.0403e-09 9.09416e-10 0.15285 2.82232e-06 1.56945e-43 0 1.42134e-38 0 3.72904e-34 0 8.70434e-32 0 3.41095e-30 0 5.06812e-29 0 4.37392e-28 0 2.57475e-27 0 1.12817e-26 0 4.16023e-26 0 1.29116e-25 0 3.54211e-25 0 8.81775e-25 0 2.00659e-24 0 4.26503e-24 0 8.50482e-24 0 1.62059e-23 0 2.95836e-23 0 5.11397e-23 0 8.62736e-23 0 1.42194e-22 0
12.3105 4.69283e-09 3.9738e-09 7.19037e-10 0.15322 2.20615e-06 1.39822e-41 0 7.2228e-37 0 1.15307e-32 0 2.0624e-30 0 6.75663e-29 0 8.79997e-28 0 6.83603e-27 0 3.69046e-26 0 1.5045e-25 0 5.20553e-25 0 1.52867e-24 0 3.99205e-24 0 9.50502e-24 0 2.07788e-23 0 4.25691e-23 0 8.20734e-23 0 1.51545e-22 0 2.68631e-22 0 4.52124e-22 0 7.43512e-22 0 1.1959e-21 0
