# 7.33679e-05 1 73 : grain size, compostion index, size index
# Heating and cooling timescale: 0.000914221 2.16873e+08
# Ratio of heating to cooling to determine stochastic cutoff: 100
# Equilibrium emission is recorded even for those grains in the stochastic regime.
# Emission spectrum was computed for: 
# Type: ISRF
# Scales: 0.25 0.5 1 1.5 2 2.5 3 3.5 4 4.5 5 5.5 6 6.5 7 7.5 8 8.5 9 9.5 10
# StochasticallyHeated: 0 0 0 0 0 0 0 0 0 0 0 0 0 0 0 0 0 0 0 0 0
# Temperature: -1
# Wavelength  CExt  CAbs  CSca  Albedo G EqEm1 StEm1 EqEm2 StEm2 EqEm3 StEm3 EqEm4 StEm4 EqEm5 StEm5 EqEm6 StEm6 EqEm7 StEm7 EqEm8 StEm8 EqEm9 StEm9 EqEm10 StEm10 EqEm11 StEm11 EqEm12 StEm12 EqEm13 StEm13 EqEm14 StEm14 EqEm15 StEm15 EqEm16 StEm16 EqEm17 StEm17 EqEm18 StEm18 EqEm19 StEm19 EqEm20 StEm20 EqEm21 StEm21
0.05 3.49632e-08 1.48021e-08 2.01611e-08 0.576637 0.932106 0 0 0 0 0 0 0 0 0 0 0 0 0 0 0 0 0 0 0 0 0 0 0 0 0 0 0 0 0 0 0 0 0 0 0 0 0 0 0 0 0 0
0.0525665 3.50316e-08 1.47089e-08 2.03227e-08 0.580125 0.926449 0 0 0 0 0 0 0 0 0 0 0 0 0 0 0 0 0 0 0 0 0 0 0 0 0 0 0 0 0 0 0 0 0 0 0 0 0 0 0 0 0 0
0.0552647 3.51087e-08 1.45282e-08 2.05805e-08 0.586194 0.917855 0 0 0 0 0 0 0 0 0 0 0 0 0 0 0 0 0 0 0 0 0 0 0 0 0 0 0 0 0 0 0 0 0 0 0 0 0 0 0 0 0 0
0.0581015 3.52108e-08 1.42468e-08 2.0964e-08 0.595386 0.904562 0 0 0 0 0 0 0 0 0 0 0 0 0 0 0 0 0 0 0 0 0 0 0 0 0 0 0 0 0 0 0 0 0 0 0 0 0 0 0 0 0 0
0.0610839 3.534e-08 1.39857e-08 2.13543e-08 0.604253 0.88969 0 0 0 0 0 0 0 0 0 0 0 0 0 0 0 0 0 0 0 0 0 0 0 0 0 0 0 0 0 0 0 0 0 0 0 0 0 0 0 0 0 0
0.0642193 3.548e-08 1.38407e-08 2.16393e-08 0.609902 0.877602 0 0 0 0 0 0 0 0 0 0 0 0 0 0 0 0 0 0 0 0 0 0 0 0 0 0 0 0 0 0 0 0 0 0 0 0 0 0 0 0 0 0
0.0675157 3.56224e-08 1.38055e-08 2.18169e-08 0.612449 0.869068 0 0 0 0 0 0 0 0 0 0 0 0 0 0 0 0 0 0 0 0 0 0 0 0 0 0 0 0 0 0 0 0 0 0 0 0 0 0 0 0 0 0
0.0709813 3.57642e-08 1.38584e-08 2.19058e-08 0.612506 0.863666 0 0 0 0 0 0 0 0 0 0 0 0 0 0 0 0 0 0 0 0 0 0 0 0 0 0 0 0 0 0 0 0 0 0 0 0 0 0 0 0 0 0
0.0746248 3.59016e-08 1.39828e-08 2.19188e-08 0.610524 0.860992 0 0 0 0 0 0 0 0 0 0 0 0 0 0 0 0 0 0 0 0 0 0 0 0 0 0 0 0 0 0 0 0 0 0 0 0 0 0 0 0 0 0
0.0784553 3.60261e-08 1.41826e-08 2.18435e-08 0.606324 0.861496 0 0 0 0 0 0 0 0 0 0 0 0 0 0 0 0 0 0 0 0 0 0 0 0 0 0 0 0 0 0 0 0 0 0 0 0 0 0 0 0 0 0
0.0824824 3.61241e-08 1.44818e-08 2.16422e-08 0.599109 0.86662 0 0 0 0 0 0 0 0 0 0 0 0 0 0 0 0 0 0 0 0 0 0 0 0 0 0 0 0 0 0 0 0 0 0 0 0 0 0 0 0 0 0
0.0867162 3.61955e-08 1.46251e-08 2.15705e-08 0.595943 0.869337 0 0 0 0 0 0 0 0 0 0 0 0 0 0 0 0 0 0 0 0 0 0 0 0 0 0 0 0 0 0 0 0 0 0 0 0 0 0 0 0 0 0
0.0911674 3.63211e-08 1.45843e-08 2.17368e-08 0.598461 0.863041 0 0 0 0 0 0 0 0 0 0 0 0 0 0 0 0 0 0 0 0 0 0 0 0 0 0 0 0 0 0 0 0 0 0 0 0 0 0 0 0 0 0
0.095847 3.64481e-08 1.46684e-08 2.17797e-08 0.597554 0.859729 0 0 0 0 0 0 0 0 0 0 0 0 0 0 0 0 0 0 0 0 0 0 0 0 0 0 0 0 0 0 0 0 0 0 0 0 0 0 0 0 0 0
0.100767 3.65508e-08 1.4798e-08 2.17528e-08 0.595138 0.859056 0 0 0 0 0 0 0 0 0 0 0 0 0 0 0 0 0 0 0 0 0 0 0 0 0 0 0 0 0 0 0 0 0 0 0 0 0 0 0 0 0 0
0.105939 3.66233e-08 1.50119e-08 2.16114e-08 0.590101 0.86249 0 0 0 0 0 0 0 0 0 0 0 0 0 0 0 0 0 0 0 0 0 0 0 0 0 0 0 0 0 0 0 0 0 0 0 0 0 0 0 0 0 0
0.111377 3.66868e-08 1.52192e-08 2.14677e-08 0.58516 0.867039 0 0 0 0 0 0 0 0 0 0 0 0 0 0 0 0 0 0 0 0 0 0 0 0 0 0 0 0 0 0 0 0 0 0 0 0 0 0 0 0 0 0
0.117094 3.67593e-08 1.53786e-08 2.13807e-08 0.581641 0.869791 0 0 0 0 0 0 0 0 0 0 0 0 0 0 0 0 0 0 0 0 0 0 0 0 0 0 0 0 0 0 0 0 0 0 0 0 0 0 0 0 0 0
0.123105 3.68376e-08 1.55101e-08 2.13275e-08 0.57896 0.871412 0 0 0 0 0 0 0 0 0 0 0 0 0 0 0 0 0 0 0 0 0 0 0 0 0 0 0 0 0 0 0 0 0 0 0 0 0 0 0 0 0 0
0.129424 3.69211e-08 1.5619e-08 2.13021e-08 0.576963 0.872036 0 0 0 0 0 0 0 0 0 0 0 0 0 0 0 0 0 0 0 0 0 0 0 0 0 0 0 0 0 0 0 0 0 0 0 0 0 0 0 0 0 0
0.136067 3.70087e-08 1.5702e-08 2.13067e-08 0.575721 0.871474 0 0 0 0 0 0 0 0 0 0 0 0 0 0 0 0 0 0 0 0 0 0 0 0 0 0 0 0 0 0 0 0 0 0 0 0 0 0 0 0 0 0
0.143051 3.70974e-08 1.5741e-08 2.13564e-08 0.575685 0.868871 0 0 0 0 0 0 0 0 0 0 0 0 0 0 0 0 0 0 0 0 0 0 0 0 0 0 0 0 0 0 0 0 0 0 0 0 0 0 0 0 0 0
0.150394 3.71638e-08 1.58511e-08 2.13127e-08 0.573479 0.869575 0 0 0 0 0 0 0 0 0 0 0 0 0 0 0 0 0 0 0 0 0 0 0 0 0 0 0 0 0 0 0 0 0 0 0 0 0 0 0 0 0 0
0.158114 3.72346e-08 1.60703e-08 2.11643e-08 0.568404 0.875296 0 0 0 0 0 0 0 0 0 0 0 0 0 0 0 0 0 0 0 0 0 0 0 0 0 0 0 0 0 0 0 0 0 0 0 0 0 0 0 0 0 0
0.16623 3.73292e-08 1.63269e-08 2.10023e-08 0.562624 0.882401 0 0 0 0 0 0 0 0 0 0 0 0 0 0 0 0 0 0 0 0 0 0 0 0 0 0 0 0 0 0 0 0 0 0 0 0 0 0 0 0 0 0
0.174762 3.74421e-08 1.65779e-08 2.08642e-08 0.55724 0.88883 0 0 0 0 0 0 0 0 0 0 0 0 0 0 0 0 0 0 0 0 0 0 0 0 0 0 0 0 0 0 0 0 0 0 0 0 0 0 0 0 0 0
0.183733 3.759e-08 1.68173e-08 2.07728e-08 0.552614 0.89456 0 0 0 0 0 0 0 0 0 0 0 0 0 0 0 0 0 0 0 0 0 0 0 0 0 0 0 0 0 0 0 0 0 0 0 0 0 0 0 0 0 0
0.193164 3.77726e-08 1.69761e-08 2.07965e-08 0.550571 0.897977 0 0 0 0 0 0 0 0 0 0 0 0 0 0 0 0 0 0 0 0 0 0 0 0 0 0 0 0 0 0 0 0 0 0 0 0 0 0 0 0 0 0
0.203079 3.74925e-08 1.68501e-08 2.06424e-08 0.550573 0.893524 0 0 0 0 0 0 0 0 0 0 0 0 0 0 0 0 0 0 0 0 0 0 0 0 0 0 0 0 0 0 0 0 0 0 0 0 0 0 0 0 0 0
0.213503 3.86942e-08 1.63104e-08 2.23838e-08 0.57848 0.888437 0 0 0 0 0 0 0 0 0 0 0 0 0 0 0 0 0 0 0 0 0 0 0 0 0 0 0 0 0 0 0 0 0 0 0 0 0 0 0 0 0 0
0.224463 3.71487e-08 1.57693e-08 2.13794e-08 0.575508 0.871507 0 0 0 0 0 0 0 0 0 0 0 0 0 0 0 0 0 0 0 0 0 0 0 0 0 0 0 0 0 0 0 0 0 0 0 0 0 0 0 0 0 0
0.235984 3.90288e-08 1.56397e-08 2.33891e-08 0.599278 0.877663 0 0 0 0 0 0 0 0 0 0 0 0 0 0 0 0 0 0 0 0 0 0 0 0 0 0 0 0 0 0 0 0 0 0 0 0 0 0 0 0 0 0
0.248097 3.89325e-08 1.57613e-08 2.31712e-08 0.595162 0.875315 0 0 0 0 0 0 0 0 0 0 0 0 0 0 0 0 0 0 0 0 0 0 0 0 0 0 0 0 0 0 0 0 0 0 0 0 0 0 0 0 0 0
0.260832 3.71524e-08 1.56331e-08 2.15193e-08 0.579218 0.860439 0 0 0 0 0 0 0 0 0 0 0 0 0 0 0 0 0 0 0 0 0 0 0 0 0 0 0 0 0 0 0 0 0 0 0 0 0 0 0 0 0 0
0.274221 3.88726e-08 1.57096e-08 2.31629e-08 0.595869 0.867726 0 0 0 0 0 0 0 0 0 0 0 0 0 0 0 0 0 0 0 0 0 0 0 0 0 0 0 0 0 0 0 0 0 0 0 0 0 0 0 0 0 0
0.288297 4.07014e-08 1.5495e-08 2.52064e-08 0.6193 0.874834 0 0 0 0 0 0 0 0 0 0 0 0 0 0 0 0 0 0 0 0 0 0 0 0 0 0 0 0 0 0 0 0 0 0 0 0 0 0 0 0 0 0
0.303095 3.95836e-08 1.54459e-08 2.41377e-08 0.609791 0.865548 0 0 0 0 0 0 0 0 0 0 0 0 0 0 0 0 0 0 0 0 0 0 0 0 0 0 0 0 0 0 0 0 0 0 0 0 0 0 0 0 0 0
0.318653 3.7583e-08 1.54172e-08 2.21658e-08 0.589784 0.846388 0 0 0 0 0 0 0 0 0 0 0 0 0 0 0 0 0 0 0 0 0 0 0 0 0 0 0 0 0 0 0 0 0 0 0 0 0 0 0 0 0 0
0.335009 3.78776e-08 1.53552e-08 2.25224e-08 0.59461 0.837302 0 0 0 0 0 0 0 0 0 0 0 0 0 0 0 0 0 0 0 0 0 0 0 0 0 0 0 0 0 0 0 0 0 0 0 0 0 0 0 0 0 0
0.352205 4.04805e-08 1.51863e-08 2.52942e-08 0.624849 0.843204 0 0 0 0 0 0 0 0 0 0 0 0 0 0 0 0 0 0 0 0 0 0 0 0 0 0 0 0 0 0 0 0 0 0 0 0 0 0 0 0 0 0
0.370284 4.28947e-08 1.4946e-08 2.79487e-08 0.651565 0.849623 0 0 0 0 0 0 0 0 0 0 0 0 0 0 0 0 0 0 0 0 0 0 0 0 0 0 0 0 0 0 0 0 0 0 0 0 0 0 0 0 0 0
0.389291 4.28658e-08 1.45758e-08 2.829e-08 0.659966 0.842748 0 0 0 0 0 0 0 0 0 0 0 0 0 0 0 0 0 0 0 0 0 0 0 0 0 0 0 0 0 0 0 0 0 0 0 0 0 0 0 0 0 0
0.409273 4.04639e-08 1.42794e-08 2.61845e-08 0.647109 0.816206 0 0 0 0 0 0 0 0 0 0 0 0 0 0 0 0 0 0 0 0 0 0 0 0 0 0 0 0 0 0 0 0 0 0 0 0 0 0 0 0 0 0
0.430281 3.78108e-08 1.43262e-08 2.34846e-08 0.621109 0.792769 0 0 0 0 0 0 0 0 0 0 0 0 0 0 0 0 0 0 0 0 0 0 0 0 0 0 0 0 0 0 0 0 0 0 0 0 0 0 0 0 0 0
0.452368 3.68903e-08 1.42705e-08 2.26197e-08 0.613163 0.777198 0 0 0 0 0 0 0 0 0 0 0 0 0 0 0 0 0 0 0 0 0 0 0 0 0 0 0 0 0 0 0 0 0 0 0 0 0 0 0 0 0 0
0.475588 3.80493e-08 1.41327e-08 2.39166e-08 0.628568 0.781733 0 0 0 0 0 0 0 0 0 0 0 0 0 0 0 0 0 0 0 0 0 0 0 0 0 0 0 0 0 0 0 0 0 0 0 0 0 0 0 0 0 0
0.5 4.00268e-08 1.38295e-08 2.61973e-08 0.654494 0.801241 0 0 0 0 0 0 0 0 0 0 0 0 0 0 0 0 0 0 0 0 0 0 0 0 0 0 0 0 0 0 0 0 0 0 0 0 0 0 0 0 0 0
0.525665 4.34142e-08 1.36952e-08 2.97191e-08 0.684547 0.824666 0 0 0 0 0 0 0 0 0 0 0 0 0 0 0 0 0 0 0 0 0 0 0 0 0 0 0 0 0 0 0 0 0 0 0 0 0 0 0 0 0 0
0.552648 4.75885e-08 1.39845e-08 3.3604e-08 0.706138 0.828801 0 0 0 0 0 0 0 0 0 0 0 0 0 0 0 0 0 0 0 0 0 0 0 0 0 0 0 0 0 0 0 0 0 0 0 0 0 0 0 0 0 0
0.581015 4.8094e-08 1.38556e-08 3.42383e-08 0.711905 0.838361 0 0 0 0 0 0 0 0 0 0 0 0 0 0 0 0 0 0 0 0 0 0 0 0 0 0 0 0 0 0 0 0 0 0 0 0 0 0 0 0 0 0
0.610839 4.80543e-08 1.33331e-08 3.47211e-08 0.72254 0.817487 0 0 0 0 0 0 0 0 0 0 0 0 0 0 0 0 0 0 0 0 0 0 0 0 0 0 0 0 0 0 0 0 0 0 0 0 0 0 0 0 0 0
0.642193 4.5881e-08 1.35109e-08 3.23701e-08 0.705523 0.80509 0 0 0 0 0 0 0 0 0 0 0 0 0 0 0 0 0 0 0 0 0 0 0 0 0 0 0 0 0 0 0 0 0 0 0 0 0 0 0 0 0 0
0.675157 4.28495e-08 1.30041e-08 2.98454e-08 0.696517 0.750837 0 0 0 0 0 0 0 0 0 0 0 0 0 0 0 0 0 0 0 0 0 0 0 0 0 0 0 0 0 0 0 0 0 0 0 0 0 0 0 0 0 0
0.709813 3.92197e-08 1.31067e-08 2.6113e-08 0.665812 0.701205 0 0 0 0 0 0 0 0 0 0 0 0 0 0 0 0 0 0 0 0 0 0 0 0 0 0 0 0 0 0 0 0 0 0 0 0 0 0 0 0 0 0
0.746248 3.76474e-08 1.29254e-08 2.4722e-08 0.656672 0.632983 0 0 0 0 0 0 0 0 0 0 0 0 0 0 0 0 0 0 0 0 0 0 0 0 0 0 0 0 0 0 0 0 0 0 0 0 0 0 0 0 0 0
0.784553 3.4762e-08 1.33756e-08 2.13864e-08 0.615223 0.529914 0 0 0 0 0 0 0 0 0 0 0 0 0 0 0 0 0 0 0 0 0 0 0 0 0 0 0 0 0 0 0 0 0 0 0 0 0 0 0 0 0 0
0.824824 3.55585e-08 1.20605e-08 2.3498e-08 0.660827 0.521994 0 0 0 0 0 0 0 0 0 0 0 0 0 0 0 0 0 0 0 0 0 0 0 0 0 0 0 0 0 0 0 0 0 0 0 0 0 0 0 0 0 0
0.867162 3.65264e-08 1.31879e-08 2.33386e-08 0.63895 0.492302 0 0 0 0 0 0 0 0 0 0 0 0 0 0 0 0 0 0 0 0 0 0 0 0 0 0 0 0 0 0 0 0 0 0 0 0 0 0 0 0 0 0
0.911674 3.59363e-08 1.14004e-08 2.45359e-08 0.682761 0.479061 0 0 0 0 0 0 0 0 0 0 0 0 0 0 0 0 0 0 0 0 0 0 0 0 0 0 0 0 0 0 0 0 0 0 0 0 0 0 0 0 0 0
0.95847 4.2328e-08 1.10748e-08 3.12532e-08 0.738358 0.538768 0 0 0 0 0 0 0 0 0 0 0 0 0 0 0 0 0 0 0 0 0 0 0 0 0 0 0 0 0 0 0 0 0 0 0 0 0 0 0 0 0 0
1.00767 4.75814e-08 1.2548e-08 3.50334e-08 0.736284 0.551731 0 0 0 0 0 0 0 0 0 0 0 0 0 0 0 0 0 0 0 0 0 0 0 0 0 0 0 0 0 0 0 0 0 0 0 0 0 0 0 0 0 0
1.05939 4.72591e-08 1.05061e-08 3.6753e-08 0.777691 0.583375 0 0 0 0 0 0 0 0 0 0 0 0 0 0 0 0 0 0 0 0 0 0 0 0 0 0 0 0 0 0 0 0 0 0 0 0 0 0 0 0 0 0
1.11377 5.47096e-08 9.76588e-09 4.49437e-08 0.821496 0.635531 0 0 0 0 0 0 0 0 0 0 0 0 0 0 0 0 0 0 0 0 0 0 0 0 0 0 0 0 0 0 0 0 0 0 0 0 0 0 0 0 0 0
1.17094 6.27565e-08 1.08106e-08 5.19459e-08 0.827737 0.643074 0 0 0 0 0 0 0 0 0 0 0 0 0 0 0 0 0 0 0 0 0 0 0 0 0 0 0 0 0 0 0 0 0 0 0 0 0 0 0 0 0 0
1.23105 6.23577e-08 1.03406e-08 5.2017e-08 0.834172 0.632156 0 0 0 0 0 0 0 0 0 0 0 0 0 0 0 0 0 0 0 0 0 0 0 0 0 0 0 0 0 0 0 0 0 0 0 0 0 0 0 0 0 0
1.29424 6.27903e-08 8.70865e-09 5.40816e-08 0.861306 0.671553 0 0 0 0 0 0 0 0 0 0 0 0 0 0 0 0 0 0 0 0 0 0 0 0 0 0 0 0 0 0 0 0 0 0 0 0 0 0 0 0 0 0
1.36067 6.9142e-08 8.59532e-09 6.05467e-08 0.875686 0.699864 0 0 0 0 0 0 0 0 0 0 0 0 0 0 0 0 0 0 0 0 0 0 0 0 0 0 0 0 0 0 0 0 0 0 0 0 0 0 0 0 0 0
1.43051 7.45798e-08 9.29172e-09 6.52881e-08 0.875412 0.697869 0 0 0 0 0 0 0 0 0 0 0 0 0 0 0 0 0 0 0 0 0 0 0 0 0 0 0 0 0 0 0 0 0 0 0 0 0 0 0 0 0 0
1.50394 7.1943e-08 8.96883e-09 6.29741e-08 0.875334 0.672436 0 0 0 0 0 0 0 0 0 0 0 0 0 0 0 0 0 0 0 0 0 0 0 0 0 0 0 0 0 0 0 0 0 0 0 0 0 0 0 0 0 0
1.58114 6.68586e-08 7.58075e-09 5.92778e-08 0.886615 0.659944 0 0 0 0 0 0 0 0 0 0 0 0 0 0 0 0 0 0 0 0 0 0 0 0 0 0 0 0 0 0 0 0 0 0 0 0 0 0 0 0 0 0
1.6623 6.66738e-08 6.94506e-09 5.97287e-08 0.895835 0.673235 0 0 0 0 0 0 0 0 0 0 0 0 0 0 0 0 0 0 0 0 0 0 0 0 0 0 0 0 0 0 0 0 0 0 0 0 0 0 0 0 0 0
1.74763 6.90203e-08 7.09646e-09 6.19238e-08 0.897183 0.691586 0 0 0 0 0 0 0 0 0 0 0 0 0 0 0 0 0 0 0 0 0 0 0 0 0 0 0 0 0 0 0 0 0 0 0 0 0 0 0 0 0 0
1.83733 6.96723e-08 7.48064e-09 6.21917e-08 0.892631 0.699049 0 0 0 0 0 0 0 0 0 0 0 0 0 0 0 0 0 0 0 0 0 0 0 0 0 0 0 0 0 0 0 0 0 0 0 0 0 0 0 0 0 0
1.93164 6.53772e-08 7.34481e-09 5.80324e-08 0.887655 0.686075 0 0 0 0 0 0 0 0 0 0 0 0 0 0 0 0 0 0 0 0 0 0 0 0 0 0 0 0 0 0 0 0 0 0 0 0 0 0 0 0 0 0
2.03079 5.81318e-08 6.50575e-09 5.16261e-08 0.888086 0.652444 0 0 0 0 0 0 0 0 0 0 0 0 0 0 0 0 0 0 0 0 0 0 0 0 0 0 0 0 0 0 0 0 0 0 0 0 0 0 0 0 0 0
2.13503 5.24625e-08 5.63637e-09 4.68262e-08 0.892564 0.614193 0 0 0 0 0 0 0 0 0 0 0 0 0 0 0 0 0 0 0 0 0 0 0 0 0 0 0 0 0 0 0 0 0 0 0 0 0 0 0 0 0 0
2.24463 4.93138e-08 5.14837e-09 4.41654e-08 0.8956 0.586704 0 0 0 0 0 0 0 0 0 0 0 0 0 0 0 0 0 0 0 0 0 0 0 0 0 0 0 0 0 0 0 0 0 0 0 0 0 0 0 0 0 0
2.35984 4.76275e-08 5.02581e-09 4.26017e-08 0.894477 0.5748 0 0 0 0 0 0 0 0 0 0 0 0 0 0 0 0 0 0 0 0 0 0 0 0 0 0 0 0 0 0 0 0 0 0 0 0 0 0 0 0 0 0
2.48097 4.60146e-08 5.12448e-09 4.08902e-08 0.888634 0.577512 0 0 0 0 0 0 0 0 0 0 0 0 0 0 0 0 0 0 0 0 0 0 0 0 0 0 0 0 0 0 0 0 0 0 0 0 0 0 0 0 0 0
2.60832 4.32386e-08 5.23876e-09 3.79999e-08 0.878841 0.588992 0 0 0 0 0 0 0 0 0 0 0 0 0 0 0 0 0 0 0 0 0 0 0 0 0 0 0 0 0 0 0 0 0 0 0 0 0 0 0 0 0 0
2.74221 3.88505e-08 5.1671e-09 3.36834e-08 0.867 0.598711 0 0 0 0 0 0 0 0 0 0 0 0 0 0 0 0 0 0 0 0 0 0 0 0 0 0 0 0 0 0 0 0 0 0 0 0 0 0 0 0 0 0
2.88297 3.34657e-08 4.84998e-09 2.86158e-08 0.855076 0.595016 0 0 0 0 0 0 0 0 0 0 0 0 0 0 0 0 0 0 0 0 0 0 0 0 0 0 0 0 0 0 0 0 0 0 0 0 0 0 0 0 0 0
3.03095 2.82744e-08 4.38772e-09 2.38866e-08 0.844816 0.570707 0 0 0 0 0 0 0 0 0 0 0 0 0 0 0 0 0 0 0 0 0 0 0 0 0 0 0 0 0 0 0 0 0 0 0 0 0 0 0 0 0 0
3.18653 2.39146e-08 3.92379e-09 1.99908e-08 0.835925 0.528344 0 0 0 0 0 0 0 0 0 0 0 0 0 0 0 0 0 0 0 0 0 0 0 0 0 0 0 0 0 0 0 0 0 0 0 0 0 0 0 0 0 0
3.35009 2.03986e-08 3.51897e-09 1.68797e-08 0.82749 0.476283 0 0 0 0 0 0 0 0 0 0 0 0 0 0 0 0 0 0 0 0 0 0 0 0 0 0 0 0 0 0 0 0 0 0 0 0 0 0 0 0 0 0
3.52205 1.75156e-08 3.17666e-09 1.43389e-08 0.818638 0.422511 0 0 0 0 0 0 0 0 0 0 0 0 0 0 0 0 0 0 0 0 0 0 0 0 0 0 0 0 0 0 0 0 0 0 0 0 0 0 0 0 0 0
3.70284 1.50939e-08 2.89937e-09 1.21945e-08 0.807911 0.372294 0 0 0 0 0 0 0 0 0 0 0 0 0 0 0 0 0 0 0 0 0 0 0 0 0 0 0 0 0 0 0 0 0 0 0 0 0 0 0 0 0 0
3.89291 1.29903e-08 2.67047e-09 1.03198e-08 0.794425 0.327586 0 0 0 0 0 0 0 0 0 0 0 0 0 0 0 0 0 0 0 0 0 0 0 0 0 0 0 0 0 0 0 0 0 0 0 0 0 0 0 0 0 0
4.09273 1.11359e-08 2.47702e-09 8.65884e-09 0.777564 0.288641 0 0 0 0 0 0 0 0 0 0 0 0 0 0 0 0 0 0 0 0 0 0 0 0 0 0 0 0 0 0 0 0 0 0 0 0 0 0 0 0 0 0
4.30281 9.49559e-09 2.30205e-09 7.19355e-09 0.757567 0.255014 0 0 0 0 0 0 0 0 0 0 0 0 0 0 0 0 0 0 0 0 0 0 0 0 0 0 0 0 0 0 0 0 0 0 0 0 0 0 0 0 0 0
4.52368 8.06479e-09 2.14873e-09 5.91606e-09 0.733566 0.226038 0 0 0 0 0 0 0 0 0 0 0 0 0 0 0 0 0 0 0 0 0 0 0 0 0 0 0 0 0 0 0 0 0 0 0 0 0 0 0 0 0 0
4.75588 6.82878e-09 2.01537e-09 4.81341e-09 0.704871 0.200887 0 0 0 0 0 0 0 0 0 0 0 0 0 0 0 0 0 0 0 0 0 0 0 0 0 0 0 0 0 0 0 0 0 0 0 0 0 0 0 0 0 0
5 5.77199e-09 1.90353e-09 3.86846e-09 0.670213 0.178881 0 0 0 0 0 0 0 0 0 0 0 0 0 0 0 0 0 0 0 0 0 0 0 0 0 0 0 0 0 0 0 0 0 0 0 0 0 0 0 0 0 0
5.25665 4.88914e-09 1.81603e-09 3.07311e-09 0.628558 0.159557 0 0 0 0 0 0 0 0 0 0 0 0 0 0 0 0 0 0 0 0 0 0 0 0 0 0 0 0 0 0 0 0 0 0 0 0 0 0 0 0 0 0
5.52648 4.16442e-09 1.74883e-09 2.41559e-09 0.580055 0.1425 0 0 0 0 0 0 0 0 0 0 0 0 0 0 0 0 0 0 0 0 0 0 0 0 0 0 0 0 0 0 0 0 0 0 0 0 0 0 0 0 0 0
5.81015 3.5767e-09 1.70731e-09 1.86939e-09 0.522657 0.127275 0 0 0 0 0 0 0 0 0 0 0 0 0 0 0 0 0 0 0 0 0 0 0 0 0 0 0 0 0 0 0 0 0 0 0 0 0 0 0 0 0 0
6.10839 3.1077e-09 1.6831e-09 1.4246e-09 0.458409 0.113656 0 0 0 0 0 0 0 0 0 0 0 0 0 0 0 0 0 0 0 0 0 0 0 0 0 0 0 0 0 0 0 0 0 0 0 0 0 0 0 0 0 0
6.42193 2.71727e-09 1.65355e-09 1.06373e-09 0.391469 0.10141 0 0 0 0 0 0 0 0 0 0 0 0 0 0 0 0 0 0 0 0 0 0 0 0 0 0 0 0 0 0 0 0 0 0 0 0 0 0 0 0 0 0
6.75157 2.36686e-09 1.60406e-09 7.62792e-10 0.322281 0.0902059 0 0 0 0 0 0 0 0 0 0 0 0 0 0 0 0 0 0 0 0 0 0 0 0 0 0 0 0 0 0 0 0 0 0 1.4013e-45 0 4.2039e-45 0 1.12104e-44 0 2.52234e-44 0
7.09813 2.07681e-09 1.57223e-09 5.04588e-10 0.242963 0.0797741 0 0 0 0 0 0 0 0 0 0 0 0 0 0 0 0 0 0 0 0 0 0 0 0 0 0 2.8026e-45 0 8.40779e-45 0 2.66247e-44 0 7.84727e-44 0 2.20004e-43 0 5.8294e-43 0 1.43493e-42 0 3.28464e-42 0
7.46248 2.13019e-09 1.85219e-09 2.77999e-10 0.130505 0.0698189 0 0 0 0 0 0 0 0 0 0 0 0 0 0 0 0 0 0 0 0 4.2039e-45 0 2.10195e-44 0 9.80909e-44 0 3.78351e-43 0 1.28919e-42 0 4.02173e-42 0 1.15411e-41 0 3.06072e-41 0 7.74526e-41 0 1.82345e-40 0 4.00743e-40 0
7.84553 3.53418e-09 3.40016e-09 1.34023e-10 0.037922 0.0606437 0 0 0 0 0 0 0 0 0 0 0 0 0 0 2.8026e-45 0 2.52234e-44 0 1.82169e-43 0 1.10142e-42 0 5.19882e-42 0 2.20326e-41 0 7.96484e-41 0 2.55534e-40 0 7.53854e-40 0 2.05466e-39 0 5.19571e-39 0 1.25651e-38 0 2.83708e-38 0 5.99992e-38 0
8.24824 6.88943e-09 6.73122e-09 1.58208e-10 0.0229639 0.0528896 0 0 0 0 0 0 0 0 0 0 1.4013e-45 0 5.04467e-44 0 7.04853e-43 0 6.48801e-42 0 4.3593e-41 0 2.41452e-40 0 1.056e-39 0 4.17063e-39 0 1.41603e-38 0 4.29164e-38 0 1.20094e-37 0 3.11684e-37 0 7.53265e-37 0 1.74479e-36 0 3.78599e-36 0 7.7192e-36 0
8.67162 1.03203e-08 1.00386e-08 2.81696e-10 0.0272953 0.0464268 0 0 0 0 0 0 0 0 9.80909e-45 0 4.80645e-43 0 9.96603e-42 0 1.2135e-40 0 1.00301e-39 0 6.14121e-39 0 3.12872e-38 0 1.27324e-37 0 4.70245e-37 0 1.5041e-36 0 4.31831e-36 0 1.1492e-35 0 2.84685e-35 0 6.59001e-35 0 1.46511e-34 0 3.06112e-34 0 6.02793e-34 0
9.11674 1.51871e-08 1.46372e-08 5.49858e-10 0.0362057 0.0398565 0 0 0 0 0 0 1.54143e-44 0 2.10195e-42 0 8.31334e-41 0 1.48601e-39 0 1.60151e-38 0 1.19403e-37 0 6.69177e-37 0 3.14869e-36 0 1.1965e-35 0 4.14594e-35 0 1.25291e-34 0 3.41661e-34 0 8.66805e-34 0 2.05427e-33 0 4.56437e-33 0 9.75943e-33 0 1.96703e-32 0 3.74739e-32 0
9.5847 1.81738e-08 1.73445e-08 8.29316e-10 0.0456324 0.0352263 0 0 0 0 2.8026e-45 0 2.61342e-42 0 2.76588e-40 0 9.13909e-39 0 1.41909e-37 0 1.36177e-36 0 9.2043e-36 0 4.74211e-35 0 2.06882e-34 0 7.36542e-34 0 2.40191e-33 0 6.87709e-33 0 1.7857e-32 0 4.32906e-32 0 9.83631e-32 0 2.10198e-31 0 4.3307e-31 0 8.43494e-31 0 1.55716e-30 0
10.0767 1.7211e-08 1.63689e-08 8.42099e-10 0.0489279 0.0327942 0 0 0 0 3.53127e-43 0 2.69807e-40 0 2.27464e-38 0 6.33601e-37 0 8.60534e-36 0 7.39458e-35 0 4.55283e-34 0 2.16521e-33 0 8.79054e-33 0 2.94148e-32 0 9.05442e-32 0 2.46265e-31 0 6.10344e-31 0 1.41704e-30 0 3.09327e-30 0 6.3696e-30 0 1.26682e-29 0 2.38838e-29 0 4.27913e-29 0
10.5939 1.51599e-08 1.43627e-08 7.97252e-10 0.0525894 0.0315925 0 0 0 0 3.68401e-41 0 2.03462e-38 0 1.38138e-36 0 3.27093e-35 0 3.91118e-34 0 3.02583e-33 0 1.70479e-32 0 7.51323e-32 0 2.8486e-31 0 8.98609e-31 0 2.61834e-30 0 6.78191e-30 0 1.60797e-29 0 3.58283e-29 0 7.5285e-29 0 1.49654e-28 0 2.87813e-28 0 5.26082e-28 0 9.16096e-28 0
11.1377 1.22032e-08 1.1559e-08 6.44206e-10 0.0527897 0.0320605 0 0 3.64338e-44 0 2.75654e-39 0 1.11851e-36 0 6.18063e-35 0 1.25397e-33 0 1.32834e-32 0 9.29962e-32 0 4.81542e-31 0 1.97396e-30 0 7.01268e-30 0 2.09152e-29 0 5.78417e-29 0 1.43017e-28 0 3.25093e-28 0 6.96574e-28 0 1.41158e-27 0 2.71341e-27 0 5.05443e-27 0 8.97069e-27 0 1.52038e-26 0
11.7094 9.82381e-09 9.31326e-09 5.10543e-10 0.05197 0.0322178 0 0 3.70503e-42 0 1.63489e-37 0 4.94785e-35 0 2.2477e-33 0 3.93703e-32 0 3.7166e-31 0 2.36612e-30 0 1.13067e-29 0 4.3264e-29 0 1.44475e-28 0 4.08508e-28 0 1.075e-27 0 2.54308e-27 0 5.55354e-27 0 1.14649e-26 0 2.24457e-26 0 4.17913e-26 0 7.55182e-26 0 1.30329e-25 0 2.15269e-25 0
12.3105 7.66681e-09 7.27468e-09 3.92131e-10 0.0511466 0.0321948 2.8026e-45 0 2.87598e-40 0 7.52812e-36 0 1.7238e-33 0 6.49967e-32 0 9.89947e-31 0 8.37502e-30 0 4.87111e-29 0 2.15656e-28 0 7.72855e-28 0 2.4333e-27 0 6.5398e-27 0 1.64156e-26 0 3.72349e-26 0 7.82705e-26 0 1.55966e-25 0 2.95492e-25 0 5.33727e-25 0 9.36999e-25 0 1.57455e-24 0 2.5378e-24 0
12.9424 5.9115e-09 5.62035e-09 2.9115e-10 0.0492515 0.0309963 3.39114e-43 0 1.74251e-38 0 2.77571e-34 0 4.87482e-32 0 1.53956e-30 0 2.05292e-29 0 1.56484e-28 0 8.35176e-28 0 3.43847e-27 0 1.15781e-26 0 3.44679e-26 0 8.82714e-26 0 2.11835e-25 0 4.61663e-25 0 9.35879e-25 0 1.80315e-24 0 3.3113e-24 0 5.81079e-24 0 9.92479e-24 0 1.62605e-23 0 2.56042e-23 0
13.6067 4.61325e-09 4.40637e-09 2.06882e-10 0.0448451 0.0282831 2.82151e-41 0 8.55314e-37 0 8.49489e-33 0 1.15918e-30 0 3.09302e-29 0 3.6344e-28 0 2.50877e-27 0 1.23384e-26 0 4.74068e-26 0 1.50442e-25 0 4.24634e-25 0 1.03868e-24 0 2.38834e-24 0 5.01077e-24 0 9.81331e-24 0 1.83114e-23 0 3.26438e-23 0 5.5733e-23 0 9.27359e-23 0 1.48317e-22 0 2.28425e-22 0
