# 9.08e-07 1 31 : grain size, compostion index, size index
# Heating and cooling timescale: 480.141 3200.72
# Ratio of heating to cooling to determine stochastic cutoff: 100
# Equilibrium emission is recorded even for those grains in the stochastic regime.
# Emission spectrum was computed for: 
# Type: ISRF
# Scales: 0.25 0.5 1 1.5 2 2.5 3 3.5 4 4.5 5 5.5 6 6.5 7 7.5 8 8.5 9 9.5 10
# StochasticallyHeated: 1 1 1 1 1 1 1 1 1 1 1 1 1 1 1 1 1 1 1 1 1
# Temperature: -1
# Wavelength  CExt  CAbs  CSca  Albedo G EqEm1 StEm1 EqEm2 StEm2 EqEm3 StEm3 EqEm4 StEm4 EqEm5 StEm5 EqEm6 StEm6 EqEm7 StEm7 EqEm8 StEm8 EqEm9 StEm9 EqEm10 StEm10 EqEm11 StEm11 EqEm12 StEm12 EqEm13 StEm13 EqEm14 StEm14 EqEm15 StEm15 EqEm16 StEm16 EqEm17 StEm17 EqEm18 StEm18 EqEm19 StEm19 EqEm20 StEm20 EqEm21 StEm21
0.05 2.48909e-12 2.12719e-12 3.61902e-13 0.145395 0.235577 0 0 0 0 0 0 0 0 0 0 0 0 0 0 0 0 0 0 0 0 0 0 0 0 0 0 0 0 0 0 0 0 0 0 0 0 0 0 0 0 0 0
0.0525665 2.57976e-12 2.21502e-12 3.6475e-13 0.141389 0.211649 0 0 0 0 0 0 0 0 0 0 0 0 0 0 0 0 0 0 0 0 0 0 0 0 0 0 0 0 0 0 0 0 0 0 0 0 0 0 0 0 0 0
0.0552647 2.69858e-12 2.32086e-12 3.77713e-13 0.139968 0.189565 0 0 0 0 0 0 0 0 0 0 0 0 0 0 0 0 0 0 0 0 0 0 0 0 0 0 0 0 0 0 0 0 0 0 0 0 0 0 0 0 0 0
0.0581015 2.92747e-12 2.51005e-12 4.17422e-13 0.142588 0.169527 0 0 0 0 0 0 0 0 0 0 0 0 0 0 0 0 0 0 0 0 0 0 0 0 0 0 0 0 0 0 0 0 0 0 0 0 0 0 0 0 0 0
0.0610839 3.2944e-12 2.81333e-12 4.81071e-13 0.146027 0.151432 0 0 0 0 0 0 0 0 0 0 0 0 0 0 0 0 0 0 0 0 0 0 0 0 0 0 0 0 0 0 0 0 0 0 0 0 0 0 0 0 0 0
0.0642193 3.71337e-12 3.16768e-12 5.45684e-13 0.146951 0.134725 0 0 0 0 0 0 0 0 0 0 0 0 0 0 0 0 0 0 0 0 0 0 0 0 0 0 0 0 0 0 0 0 0 0 0 0 0 0 0 0 0 0
0.0675157 4.1017e-12 3.50517e-12 5.96528e-13 0.145434 0.119269 0 0 0 0 0 0 0 0 0 0 0 0 0 0 0 0 0 0 0 0 0 0 0 0 0 0 0 0 0 0 0 0 0 0 0 0 0 0 0 0 0 0
0.0709813 4.39479e-12 3.77026e-12 6.24536e-13 0.142108 0.105419 0 0 0 0 0 0 0 0 0 0 0 0 0 0 0 0 0 0 0 0 0 0 0 0 0 0 0 0 0 0 0 0 0 0 0 0 0 0 0 0 0 0
0.0746248 4.5319e-12 3.90954e-12 6.22359e-13 0.137328 0.0937085 0 0 0 0 0 0 0 0 0 0 0 0 0 0 0 0 0 0 0 0 0 0 0 0 0 0 0 0 0 0 0 0 0 0 0 0 0 0 0 0 0 0
0.0784553 4.44577e-12 3.86448e-12 5.81298e-13 0.130753 0.0846609 0 0 0 0 0 0 0 0 0 0 0 0 0 0 0 0 0 0 0 0 0 0 0 0 0 0 0 0 0 0 0 0 0 0 0 0 0 0 0 0 0 0
0.0824824 4.09057e-12 3.59399e-12 4.9658e-13 0.121396 0.0784867 0 0 0 0 0 0 0 0 0 0 0 0 0 0 0 0 0 0 0 0 0 0 0 0 0 0 0 0 0 0 0 0 0 0 0 0 0 0 0 0 0 0
0.0867162 3.79891e-12 3.38811e-12 4.10803e-13 0.108137 0.0711488 0 0 0 0 0 0 0 0 0 0 0 0 0 0 0 0 0 0 0 0 0 0 0 0 0 0 0 0 0 0 0 0 0 0 0 0 0 0 0 0 0 0
0.0911674 3.69518e-12 3.31331e-12 3.81865e-13 0.103341 0.0640047 0 0 0 0 0 0 0 0 0 0 0 0 0 0 0 0 0 0 0 0 0 0 0 0 0 0 0 0 0 0 0 0 0 0 0 0 0 0 0 0 0 0
0.095847 3.37468e-12 3.03316e-12 3.4152e-13 0.101201 0.0600229 0 0 0 0 0 0 0 0 0 0 0 0 0 0 0 0 0 0 0 0 0 0 0 0 0 0 0 0 0 0 0 0 0 0 0 0 0 0 0 0 0 0
0.100767 2.96133e-12 2.6721e-12 2.89232e-13 0.0976696 0.0573095 0 0 0 0 0 0 0 0 0 0 0 0 0 0 0 0 0 0 0 0 0 0 0 0 0 0 0 0 0 0 0 0 0 0 0 0 0 0 0 0 0 0
0.105939 2.45987e-12 2.2299e-12 2.29973e-13 0.0934899 0.0559541 0 0 0 0 0 0 0 0 0 0 0 0 0 0 0 0 0 0 0 0 0 0 0 0 0 0 0 0 0 0 0 0 0 0 0 0 0 0 0 0 0 0
0.111377 2.0619e-12 1.88314e-12 1.78758e-13 0.0866957 0.0533457 0 0 0 0 0 0 0 0 0 0 0 0 0 0 0 0 0 0 0 0 0 0 0 0 0 0 0 0 0 0 0 0 0 0 0 0 0 0 0 0 0 0
0.117094 1.74859e-12 1.60724e-12 1.4135e-13 0.0808366 0.0503072 0 0 0 0 0 0 0 0 0 0 0 0 0 0 0 0 0 0 0 0 0 0 0 0 0 0 0 0 0 0 0 0 0 0 0 0 0 0 0 0 0 0
0.123105 1.48867e-12 1.37575e-12 1.12922e-13 0.0758545 0.0471967 0 0 0 0 0 0 0 0 0 0 0 0 0 0 0 0 0 0 0 0 0 0 0 0 0 0 0 0 0 0 0 0 0 0 0 0 0 0 0 0 0 0
0.129424 1.26687e-12 1.1758e-12 9.10695e-14 0.0718855 0.0441933 0 0 0 0 0 0 0 0 0 0 0 0 0 0 0 0 0 0 0 0 0 0 0 0 0 0 0 0 0 0 0 0 0 0 0 0 0 0 0 0 0 0
0.136067 1.07263e-12 9.9825e-13 7.4381e-14 0.0693445 0.0414531 0 0 0 0 0 0 0 0 0 0 0 0 0 0 0 0 0 0 0 0 0 0 0 0 0 0 0 0 0 0 0 0 0 0 0 0 0 0 0 0 0 0
0.143051 8.82341e-13 8.20344e-13 6.19979e-14 0.0702652 0.0393692 0 0 0 0 0 0 0 0 0 0 0 0 0 0 0 0 0 0 0 0 0 0 0 0 0 0 0 0 0 0 0 0 0 0 0 0 0 0 0 0 0 0
0.150394 6.30836e-13 5.81196e-13 4.96398e-14 0.0786889 0.0375881 0 0 0 0 0 0 0 0 0 0 0 0 0 0 0 0 0 0 0 0 0 0 0 0 0 0 0 0 0 0 0 0 0 0 0 0 0 0 0 0 0 0
0.158114 4.15103e-13 3.77464e-13 3.76388e-14 0.0906735 0.034414 0 0 0 0 0 0 0 0 0 0 0 0 0 0 0 0 0 0 0 0 0 0 0 0 0 0 0 0 0 0 0 0 0 0 0 0 0 0 0 0 0 0
0.16623 2.70475e-13 2.42386e-13 2.80889e-14 0.10385 0.0306013 0 0 0 0 0 0 0 0 0 0 0 0 0 0 0 0 0 0 0 0 0 0 0 0 0 0 0 0 0 0 0 0 0 0 0 0 0 0 0 0 0 0
0.174762 1.82925e-13 1.61888e-13 2.10365e-14 0.115001 0.0269975 0 0 0 0 0 0 0 0 0 0 0 0 0 0 0 0 0 0 0 0 0 0 0 0 0 0 0 0 0 0 0 0 0 0 0 0 0 0 0 0 0 0
0.183733 1.22505e-13 1.06684e-13 1.58212e-14 0.129147 0.023816 0 0 0 0 0 0 0 0 0 0 0 0 0 0 0 0 0 0 0 0 0 0 0 0 0 0 0 0 0 0 0 0 0 0 0 0 0 0 0 0 0 0
0.193164 8.38071e-14 7.18024e-14 1.20047e-14 0.143242 0.02107 0 0 0 0 0 0 0 0 0 0 0 0 0 0 0 0 0 0 0 0 0 0 0 0 0 0 0 0 0 0 0 0 0 0 0 0 0 0 0 0 0 0
0.203079 5.86087e-14 4.94241e-14 9.18457e-15 0.15671 0.0187008 0 0 0 0 0 0 0 0 0 0 0 0 0 0 0 0 0 0 0 0 0 0 0 0 0 0 0 0 0 0 0 0 0 0 0 0 0 0 0 0 0 0
0.213503 4.32642e-14 3.62029e-14 7.06138e-15 0.163215 0.0166342 0 0 0 0 0 0 0 0 0 0 0 0 0 0 0 0 0 0 0 0 0 0 0 0 0 0 0 0 0 0 0 0 0 0 0 0 0 0 0 0 0 0
0.224463 3.57313e-14 3.02584e-14 5.47299e-15 0.15317 0.014839 0 0 0 0 0 0 0 0 0 0 0 0 0 0 0 0 0 0 0 0 0 0 0 0 0 0 0 0 0 0 0 0 0 0 0 0 0 0 0 0 0 0
0.235984 3.28186e-14 2.85293e-14 4.28933e-15 0.130698 0.0132828 0 0 0 0 0 0 0 0 0 0 0 0 0 0 0 0 0 0 0 0 0 0 0 0 0 0 0 0 0 0 0 0 0 0 0 0 0 0 0 0 0 0
0.248097 3.15683e-14 2.81742e-14 3.39407e-15 0.107515 0.0119226 0 0 0 0 0 0 0 0 0 0 0 0 0 0 0 0 0 0 0 0 0 0 0 0 0 0 0 0 0 0 0 0 0 0 0 0 0 0 0 0 0 0
0.260832 3.00205e-14 2.73192e-14 2.70127e-15 0.0899811 0.0107188 0 0 0 0 0 0 0 0 0 0 0 0 0 0 0 0 0 0 0 0 0 0 0 0 0 0 0 0 0 0 0 0 0 0 0 0 0 0 0 0 0 0
0.274221 2.8466e-14 2.63075e-14 2.1585e-15 0.0758272 0.0096467 0 0 0 0 0 0 0 0 0 0 0 0 0 0 0 0 0 0 0 0 0 0 0 0 0 0 0 0 0 0 0 0 0 0 0 0 0 0 0 0 0 0
0.288297 2.69868e-14 2.52545e-14 1.73232e-15 0.0641916 0.0086915 0 0 0 0 0 0 0 0 0 0 0 0 0 0 0 0 0 0 0 0 0 0 0 0 0 0 0 0 0 0 0 0 0 0 0 0 0 0 0 0 0 0
0.303095 2.56122e-14 2.4218e-14 1.39418e-15 0.0544343 0.00783612 0 0 0 0 0 0 0 0 0 0 0 0 0 0 0 0 0 0 0 0 0 0 0 0 0 0 0 0 0 0 0 0 0 0 0 0 0 0 0 0 0 0
0.318653 2.43137e-14 2.31895e-14 1.12413e-15 0.0462346 0.00706791 0 0 0 0 0 0 0 0 0 0 0 0 0 0 0 0 0 0 0 0 0 0 0 0 0 0 0 0 0 0 0 0 0 0 0 0 0 0 0 0 0 0
0.335009 2.30902e-14 2.21816e-14 9.08575e-16 0.039349 0.00637858 0 0 0 0 0 0 0 0 0 0 0 0 0 0 0 0 0 0 0 0 0 0 0 0 0 0 0 0 0 0 0 0 0 0 0 0 0 0 0 0 0 0
0.352205 2.19428e-14 2.12072e-14 7.35598e-16 0.0335234 0.00575872 0 0 0 0 0 0 0 0 0 0 0 0 0 0 0 0 0 0 0 0 0 0 0 0 0 0 0 0 0 0 0 0 0 0 0 0 0 0 0 0 0 0
0.370284 2.08565e-14 2.02603e-14 5.96179e-16 0.0285848 0.00520018 0 0 0 0 0 0 0 0 0 0 0 0 0 0 0 0 0 0 0 0 0 0 0 0 0 0 0 0 0 0 0 0 0 0 0 0 0 0 0 0 0 0
0.389291 1.98318e-14 1.93479e-14 4.83871e-16 0.0243988 0.00469713 0 0 0 0 0 0 0 0 0 0 0 0 0 0 0 0 0 0 0 0 0 0 0 0 0 0 0 0 0 0 0 0 0 0 0 0 0 0 0 0 0 0
0.409273 1.88538e-14 1.84604e-14 3.93423e-16 0.020867 0.00424454 0 0 0 0 0 0 0 0 0 0 0 0 0 0 0 0 0 0 0 0 0 0 0 0 0 0 0 0 0 0 0 0 0 0 0 0 0 0 0 0 0 0
0.430281 1.79222e-14 1.76023e-14 3.19982e-16 0.0178539 0.00383572 0 0 0 0 0 0 0 0 0 0 0 0 0 0 0 0 0 0 0 0 0 0 0 0 0 0 0 0 0 0 0 0 0 0 0 0 0 0 0 0 0 0
0.452368 1.70393e-14 1.67787e-14 2.60582e-16 0.015293 0.00346714 0 0 0 0 0 0 0 0 0 0 0 0 0 0 0 0 0 0 0 0 0 0 0 0 0 0 0 0 0 0 0 0 0 0 0 0 0 0 0 0 0 0
0.475588 1.6201e-14 1.59887e-14 2.12295e-16 0.0131038 0.00313417 0 0 0 0 0 0 0 0 0 0 0 0 0 0 0 0 0 0 0 0 0 0 0 0 0 0 0 0 0 0 0 0 0 0 0 0 0 0 0 0 0 0
0.5 1.54104e-14 1.52372e-14 1.73151e-16 0.011236 0.00283395 0 0 0 0 0 0 0 0 0 0 0 0 0 0 0 0 0 0 0 0 0 0 0 0 0 0 0 0 0 0 0 0 0 0 0 0 0 0 0 0 0 0
0.525665 1.46629e-14 1.45217e-14 1.41244e-16 0.00963276 0.00256248 0 0 0 0 0 0 0 0 0 0 0 0 0 0 0 0 0 0 0 0 0 0 0 0 0 0 0 0 0 0 0 0 0 0 0 0 0 0 0 0 0 0
0.552648 1.39567e-14 1.38415e-14 1.1519e-16 0.00825334 0.0023168 0 0 0 0 0 0 0 0 0 0 0 0 0 0 0 0 0 0 0 0 0 0 0 0 0 0 0 0 0 0 0 0 0 0 0 0 0 0 0 0 0 0
0.581015 1.32806e-14 1.31865e-14 9.41229e-17 0.00708726 0.00209558 0 0 0 0 0 0 0 0 0 0 0 0 0 0 0 0 0 0 0 0 0 0 0 0 0 0 0 0 0 0 0 0 0 0 0 0 0 0 0 0 0 0
0.610839 1.26419e-14 1.2565e-14 7.69205e-17 0.00608457 0.00189556 0 0 0 0 0 0 0 0 0 0 0 0 0 0 0 0 0 0 0 0 0 0 0 0 0 0 0 0 0 0 0 0 0 0 0 0 0 0 0 0 0 0
0.642193 1.20376e-14 1.19748e-14 6.28405e-17 0.00522035 0.00171444 0 0 0 0 0 0 0 0 0 0 0 0 0 0 0 0 0 0 0 0 0 0 0 0 0 0 0 0 0 0 0 0 0 0 0 0 0 0 0 0 0 0
0.675157 1.14661e-14 1.14148e-14 5.13487e-17 0.00447829 0.00155065 0 0 0 0 0 0 0 0 0 0 0 0 0 0 0 0 0 0 0 0 0 0 0 0 0 0 0 0 0 0 0 0 0 0 0 0 0 0 0 0 0 0
0.709813 1.09265e-14 1.08845e-14 4.20004e-17 0.00384392 0.00140286 0 0 0 0 0 0 0 0 0 0 0 0 0 0 0 0 0 0 0 0 0 0 0 0 0 0 0 0 0 0 0 0 0 0 0 0 0 0 0 0 0 0
0.746248 1.04158e-14 1.03814e-14 3.43513e-17 0.00329801 0.00126911 0 0 0 0 0 0 0 0 0 0 0 0 0 0 0 0 0 0 0 0 0 0 0 0 0 0 0 0 0 0 0 0 0 0 0 0 0 0 0 0 0 0
0.784553 9.93142e-15 9.90333e-15 2.80868e-17 0.00282808 0.001148 0 0 0 0 0 0 0 0 0 0 0 0 0 0 0 0 0 0 0 0 0 0 0 0 0 0 0 0 0 0 0 0 0 0 0 0 0 0 0 0 0 0
0.824824 9.46729e-15 9.44432e-15 2.29739e-17 0.00242666 0.00103854 0 0 0 0 0 0 0 0 0 0 0 0 0 0 0 0 0 0 0 0 0 0 0 0 0 0 0 0 0 0 0 0 0 0 0 0 0 0 0 0 0 0
0.867162 9.02451e-15 9.0057e-15 1.88077e-17 0.00208406 0.000939706 0 0 0 0 0 0 0 0 0 0 0 0 0 0 0 0 0 0 0 0 0 0 0 0 0 0 0 0 0 0 0 0 0 0 0 0 0 0 0 0 0 0
0.911674 8.60291e-15 8.58751e-15 1.53936e-17 0.00178935 0.00085022 0 0 0 0 0 0 0 0 0 0 0 0 0 0 0 0 0 0 0 0 0 0 0 0 0 0 0 0 0 0 0 0 0 0 0 0 0 0 0 0 0 0
0.95847 8.19924e-15 8.18664e-15 1.25979e-17 0.00153648 0.000769216 0 0 0 0 0 0 0 0 0 0 0 0 0 0 0 0 0 0 0 0 0 0 0 0 0 0 0 0 0 0 0 0 0 0 0 0 0 0 0 0 0 0
1.00767 7.81659e-15 7.80628e-15 1.03126e-17 0.00131933 0.00069598 0 0 0 0 0 0 0 0 0 0 0 0 0 0 0 0 0 0 0 0 0 0 0 0 0 0 0 0 0 0 0 0 0 0 0 0 0 0 0 0 0 0
1.05939 7.45551e-15 7.44707e-15 8.44271e-18 0.00113241 0.000629736 0 0 0 0 0 0 0 0 0 0 0 0 0 0 0 0 0 0 0 0 0 0 0 0 0 0 0 0 0 0 0 0 0 0 0 0 0 0 0 0 0 0
1.11377 7.11237e-15 7.10546e-15 6.90998e-18 0.000971544 0.000569746 0 0 0 0 0 0 0 0 0 0 0 0 0 0 0 0 0 0 0 0 0 0 0 0 0 0 0 0 0 0 0 0 0 0 0 0 0 0 0 0 0 0
1.17094 6.78477e-15 6.77912e-15 5.65324e-18 0.000833226 0.000515419 0 0 0 0 0 0 0 0 0 0 0 0 0 0 0 0 0 0 0 0 0 0 0 0 0 0 0 0 0 0 0 0 0 0 0 0 0 0 0 0 0 0
1.23105 6.47338e-15 6.46875e-15 4.6274e-18 0.000714835 0.000466339 0 0 0 0 0 0 0 0 0 0 0 0 0 0 0 0 0 0 0 0 0 0 0 0 0 0 0 0 0 0 0 0 0 0 0 0 0 0 0 0 0 0
1.29424 6.19266e-15 6.18887e-15 3.78629e-18 0.000611415 0.000421892 0 0 0 0 0 0 0 0 0 0 0 0 0 0 0 0 0 0 0 0 0 0 0 0 0 0 0 0 0 0 0 0 0 0 0 0 0 0 0 0 0 0
1.36067 5.92933e-15 5.92623e-15 3.09928e-18 0.000522704 0.000381704 0 0 0 0 0 0 0 0 0 0 0 0 0 0 0 0 0 0 0 0 0 0 0 0 0 0 0 0 0 0 0 0 0 0 0 0 0 0 0 0 0 0
1.43051 5.67883e-15 5.67629e-15 2.53505e-18 0.000446403 0.000345286 0 0 0 0 0 0 0 0 0 0 0 0 0 0 0 0 0 0 0 0 0 0 0 0 0 0 0 0 0 0 0 0 0 0 0 0 0 0 0 0 0 0
1.50394 5.44052e-15 5.43845e-15 2.07501e-18 0.000381399 0.000312401 0 0 0 0 0 0 0 0 0 0 0 0 0 0 0 0 0 0 0 0 0 0 0 0 0 0 0 0 0 0 0 0 0 0 0 0 0 0 0 0 0 0
1.58114 5.21244e-15 5.21075e-15 1.69796e-18 0.000325752 0.000282625 0 0 0 0 0 0 0 0 0 0 0 0 0 0 0 0 0 0 0 0 0 0 0 0 0 0 0 0 0 0 0 0 0 0 0 0 0 0 0 0 0 0
1.6623 4.99391e-15 4.99252e-15 1.38827e-18 0.000277993 0.000255635 0 0 0 0 0 0 0 0 0 0 0 0 0 0 0 0 0 0 0 0 0 0 0 0 0 0 0 0 0 0 0 0 0 0 0 0 0 0 0 0 0 0
1.74763 4.78817e-15 4.78704e-15 1.13534e-18 0.000237113 0.000231238 0 0 0 0 0 0 0 0 0 0 0 0 0 0 0 0 0 0 0 0 0 0 0 0 0 0 0 0 0 0 0 0 0 0 0 0 0 0 0 0 0 0
1.83733 4.60032e-15 4.59939e-15 9.28278e-19 0.000201786 0.000209161 0 0 0 0 0 0 0 0 0 0 0 0 0 0 0 0 0 0 0 0 0 0 0 0 0 0 0 0 0 0 0 0 0 0 0 0 0 0 0 0 0 0
1.93164 4.42482e-15 4.42406e-15 7.58659e-19 0.000171455 0.00018917 0 0 0 0 0 0 0 0 0 0 0 0 0 0 0 0 0 0 0 0 0 0 0 0 0 0 0 0 0 0 0 0 0 0 0 0 0 0 0 0 0 0
2.03079 4.25911e-15 4.25849e-15 6.19941e-19 0.000145556 0.00017108 0 0 0 0 0 0 0 0 0 0 0 0 0 0 0 0 0 0 0 0 0 0 0 0 0 0 0 0 0 0 0 0 0 0 0 0 0 0 0 0 0 0
2.13503 4.10213e-15 4.10162e-15 5.06607e-19 0.000123498 0.000154728 0 0 0 0 0 0 0 0 0 0 0 0 0 0 0 0 0 0 0 0 0 0 0 0 0 0 0 0 0 0 0 0 0 0 0 0 0 0 0 0 0 0
2.24463 3.95592e-15 3.95551e-15 4.13727e-19 0.000104584 0.000139918 0 0 0 0 0 0 0 0 0 0 0 0 0 0 0 0 0 0 0 0 0 0 0 0 0 0 0 0 0 0 0 0 0 0 0 0 0 0 0 0 0 0
2.35984 3.81625e-15 3.81591e-15 3.37707e-19 8.8492e-05 0.000126508 0 0 0 0 0 0 0 0 0 0 0 0 0 0 0 0 0 0 0 0 0 0 0 0 0 0 0 0 0 0 0 0 0 0 0 0 0 0 0 0 0 0
2.48097 3.68426e-15 3.68398e-15 2.75391e-19 7.4748e-05 0.000114359 0 0 0 0 0 0 0 0 0 0 0 0 0 0 0 0 0 0 0 0 0 0 0 0 0 0 0 0 0 0 0 0 0 0 0 0 0 0 0 0 0 0
2.60832 3.56215e-15 3.56193e-15 2.24641e-19 6.30633e-05 0.000103389 0 0 0 0 0 0 0 0 0 0 0 0 0 0 0 0 0 0 0 0 0 0 0 0 0 0 0 0 0 0 0 0 0 0 0 0 0 0 0 0 0 0
2.74221 3.44626e-15 3.44608e-15 1.83153e-19 5.31453e-05 9.34582e-05 0 0 0 0 0 0 0 0 0 0 0 0 0 0 0 0 0 0 0 0 0 0 0 0 0 0 0 0 0 0 0 0 0 0 0 0 0 0 0 0 0 0
2.88297 3.33869e-15 3.33854e-15 1.49072e-19 4.46497e-05 8.44486e-05 0 0 0 0 0 0 0 0 0 0 0 0 0 0 0 0 0 0 0 0 0 0 0 0 0 0 0 0 0 0 0 0 0 0 0 0 0 0 0 0 0 0
3.03095 3.23705e-15 3.23693e-15 1.21314e-19 3.74767e-05 7.63074e-05 0 0 0 0 0 0 0 0 0 0 0 0 0 0 0 0 0 0 0 0 0 0 0 0 0 0 0 0 0 0 0 0 0 0 0 0 0 0 0 0 0 0
3.18653 3.14832e-15 3.14822e-15 9.8676e-20 3.13425e-05 6.89444e-05 0 0 0 0 0 0 0 0 0 0 0 0 0 0 0 0 0 0 0 0 0 0 0 0 0 0 0 0 0 0 0 0 0 0 0 0 0 0 0 0 0 0
3.35009 3.06442e-15 3.06434e-15 8.01566e-20 2.61572e-05 6.22735e-05 0 0 0 0 0 0 0 0 0 0 0 0 0 0 0 0 0 0 0 0 0 0 0 0 0 0 0 0 0 0 0 0 0 0 0 0 0 0 0 0 0 0
3.52205 2.97339e-15 2.97332e-15 6.49975e-20 2.18597e-05 5.6227e-05 0 0 0 0 0 0 0 0 0 0 0 0 0 0 0 0 0 0 0 0 0 0 0 0 0 0 0 0 0 0 0 0 0 0 0 0 0 0 0 0 0 0
3.70284 2.88371e-15 2.88366e-15 5.26741e-20 1.82661e-05 5.07649e-05 0 0 0 0 0 0 0 0 0 0 0 0 0 0 0 0 0 0 0 0 0 0 0 0 0 0 0 0 0 0 0 0 0 0 0 0 0 0 0 0 0 0
3.89291 2.79704e-15 2.797e-15 4.26019e-20 1.5231e-05 4.58148e-05 0 0 0 0 0 0 0 0 0 0 0 0 0 0 0 0 0 0 0 0 0 0 0 0 0 0 0 0 0 0 0 0 0 0 0 0 0 0 0 0 0 0
4.09273 2.71495e-15 2.71492e-15 3.43621e-20 1.26566e-05 4.13248e-05 0 0 0 0 0 0 0 0 0 0 0 0 0 0 0 0 0 0 0 0 0 0 0 0 0 0 0 0 0 0 0 0 0 0 0 0 0 0 0 0 0 0
4.30281 2.629e-15 2.62898e-15 2.76378e-20 1.05127e-05 3.72555e-05 0 0 0 0 0 0 0 0 0 0 0 0 0 0 0 0 0 0 0 0 0 0 0 0 0 0 0 0 0 1.4013e-45 0 1.4013e-45 0 2.8026e-45 0 2.8026e-45 0 5.60519e-45 0 7.00649e-45 0 9.80909e-45
4.52368 2.54987e-15 2.54984e-15 2.21701e-20 8.69462e-06 3.35725e-05 0 0 0 0 0 0 0 0 0 0 0 0 0 0 0 0 0 1.4013e-45 0 2.8026e-45 0 4.2039e-45 0 8.40779e-45 0 1.4013e-44 0 2.38221e-44 0 3.92364e-44 0 6.16571e-44 0 9.52883e-44 0 1.41531e-43 0 2.05991e-43 0 2.95674e-43 0 4.17587e-43
4.75588 2.48122e-15 2.4812e-15 1.77105e-20 7.13782e-06 3.02307e-05 0 0 0 0 0 0 0 0 0 1.4013e-45 0 2.8026e-45 0 8.40779e-45 0 2.10195e-44 0 4.62428e-44 0 9.3887e-44 0 1.77965e-43 0 3.19496e-43 0 5.46506e-43 0 9.01035e-43 0 1.43353e-42 0 2.22386e-42 0 3.35331e-42 0 4.94378e-42 0 7.14382e-42 0 1.01398e-41 0 1.41615e-41
5 2.42968e-15 2.42967e-15 1.40602e-20 5.78684e-06 2.71919e-05 0 0 0 0 0 1.4013e-45 0 7.00649e-45 0 3.36312e-44 0 1.13505e-43 0 3.1249e-43 0 7.45491e-43 0 1.60309e-42 0 3.18095e-42 0 5.91208e-42 0 1.04173e-41 0 1.75555e-41 0 2.84996e-41 0 4.48079e-41 0 6.86496e-41 0 1.02335e-40 0 1.49252e-40 0 2.13492e-40 0 3.00061e-40 0 4.15163e-40
5.25665 2.40166e-15 2.40165e-15 1.10907e-20 4.61793e-06 2.44337e-05 0 0 0 1.4013e-45 0 3.50325e-44 0 2.55036e-43 0 1.11824e-42 0 3.63497e-42 0 9.72081e-42 0 2.26744e-41 0 4.77605e-41 0 9.29944e-41 0 1.69892e-40 0 2.94746e-40 0 4.89677e-40 0 7.84366e-40 0 1.21788e-39 0 1.84384e-39 0 2.7183e-39 0 3.92314e-39 0 5.55601e-39 0 7.73507e-39 0 1.06053e-38
5.52648 2.39388e-15 2.39388e-15 8.69013e-21 3.63014e-06 2.19343e-05 0 2.8026e-45 0 4.62428e-44 0 1.08461e-42 0 7.63287e-42 0 3.21542e-41 0 1.01192e-40 0 2.63535e-40 0 6.00794e-40 0 1.24006e-39 0 2.37102e-39 0 4.26082e-39 0 7.28123e-39 0 1.1929e-38 0 1.88614e-38 0 2.89316e-38 0 4.32977e-38 0 6.31477e-38 0 9.02109e-38 0 1.26524e-37 0 1.74525e-37 0 2.37178e-37
5.81015 2.41828e-15 2.41827e-15 6.72786e-21 2.78209e-06 1.96552e-05 0 8.26766e-44 0 1.4083e-42 0 2.99906e-41 0 2.00383e-40 0 8.12087e-40 0 2.47796e-39 0 6.2886e-39 0 1.40197e-38 0 2.83726e-38 0 5.32977e-38 0 9.42554e-38 0 1.58721e-37 0 2.56531e-37 0 4.00516e-37 0 6.07119e-37 0 8.98414e-37 0 1.29663e-36 0 1.834e-36 0 2.54805e-36 1.4013e-45 3.48325e-36 1.4013e-45 4.69315e-36
6.10839 2.46454e-15 2.46454e-15 5.14215e-21 2.08645e-06 1.75838e-05 0 2.35418e-42 0 3.71036e-41 0 7.27815e-40 0 4.62173e-39 0 1.80399e-38 0 5.34175e-38 0 1.32197e-37 0 2.88386e-37 0 5.72554e-37 0 1.05719e-36 0 1.84069e-36 0 3.05562e-36 0 4.8738e-36 0 7.51638e-36 0 1.12631e-35 1.4013e-45 1.64856e-35 5.60519e-45 2.35511e-35 1.4013e-44 3.2991e-35 3.36312e-44 4.5416e-35 7.56701e-44 6.15432e-35 1.61149e-43 8.22279e-35
6.42193 2.50111e-15 2.50111e-15 3.85896e-21 1.5429e-06 1.56989e-05 0 5.79703e-41 0 8.4879e-40 0 1.53772e-38 0 9.29406e-38 0 3.49771e-37 0 1.00591e-36 0 2.4293e-36 0 5.18872e-36 0 1.01114e-35 0 1.83604e-35 0 3.14864e-35 1.4013e-45 5.15467e-35 5.60519e-45 8.11687e-35 1.96182e-44 1.2369e-34 5.88545e-44 1.83279e-34 1.66755e-43 2.6542e-34 4.30199e-43 3.75427e-34 1.04537e-42 5.20979e-34 2.35418e-42 7.10798e-34 5.12455e-42 9.55021e-34 1.05896e-41 1.26564e-33
6.75157 2.50761e-15 2.50761e-15 2.78876e-21 1.11212e-06 1.39582e-05 0 1.23372e-39 0 1.68184e-38 0 2.82079e-37 0 1.62502e-36 0 5.9025e-36 0 1.65003e-35 0 3.89128e-35 0 8.14242e-35 1.4013e-45 1.55825e-34 5.60519e-45 2.7838e-34 2.94273e-44 4.70405e-34 1.21913e-43 7.59755e-34 4.34403e-43 1.18149e-33 1.38168e-42 1.77959e-33 4.01052e-42 2.60831e-33 1.07003e-41 3.73834e-33 2.635e-41 5.23685e-33 6.1311e-41 7.20087e-33 1.32674e-40 9.73926e-33 2.77957e-40 1.29774e-32 5.54473e-40 1.70621e-32
7.09813 2.5478e-15 2.5478e-15 1.86763e-21 7.33035e-07 1.23197e-05 0 2.33975e-38 0 2.97596e-37 0 4.63148e-36 0 2.54666e-35 0 8.93678e-35 0 2.43031e-34 1.4013e-45 5.6005e-34 9.80909e-45 1.14872e-33 7.84727e-44 2.15995e-33 4.41409e-43 3.79814e-33 2.04169e-42 6.32661e-33 7.91734e-42 1.00845e-32 2.66205e-41 1.54926e-32 7.99735e-41 2.30724e-32 2.2047e-40 3.34596e-32 5.6064e-40 4.74746e-32 1.32116e-39 6.58817e-32 2.94988e-39 8.97853e-32 6.1473e-39 1.2041e-31 1.24222e-38 1.59151e-31 2.39584e-38 2.07633e-31
7.46248 3.13936e-15 3.13936e-15 1.05236e-21 3.35213e-07 1.07229e-05 0 4.75642e-37 0 5.65539e-36 0 8.1848e-35 0 4.30132e-34 0 1.45972e-33 5.60519e-45 3.86462e-33 9.66896e-44 8.70792e-33 9.05239e-43 1.75173e-32 6.27361e-42 3.23781e-32 3.23798e-41 5.60649e-32 1.39055e-40 9.20925e-32 5.04707e-40 1.44925e-31 1.59946e-39 2.20024e-31 4.55386e-39 3.24078e-31 1.19476e-38 4.65144e-31 2.90286e-38 6.53532e-31 6.56029e-38 8.98648e-31 1.40844e-37 1.21411e-30 2.83172e-37 1.61483e-30 5.52902e-37 2.11766e-30 1.03271e-36 2.74202e-30
7.84553 6.10143e-15 6.10143e-15 5.25962e-22 8.62031e-08 9.20223e-06 0 1.35466e-35 0 1.50834e-34 0 2.03421e-33 0 1.02304e-32 3.22299e-44 3.36064e-32 8.81417e-43 8.66848e-32 1.19685e-41 1.911e-31 1.0098e-40 3.77234e-31 6.36686e-40 6.85726e-31 3.03335e-39 1.16973e-30 1.21319e-38 1.89546e-30 4.13474e-38 2.94589e-30 1.23858e-37 4.42119e-30 3.35077e-37 6.44252e-30 8.38677e-37 9.15426e-30 1.95126e-36 1.27396e-29 4.23763e-36 1.73621e-29 8.76473e-36 2.32594e-29 1.7031e-35 3.06883e-29 3.21848e-35 3.99367e-29 5.83089e-35 5.13337e-29
8.24824 1.26925e-14 1.26925e-14 6.42726e-22 5.06381e-08 7.9083e-06 0 3.6852e-34 0 3.84884e-33 0 4.84656e-32 6.72623e-44 2.33543e-31 4.55983e-42 7.43291e-31 1.07459e-40 1.86928e-30 1.28552e-39 4.03426e-30 9.77409e-39 7.81866e-30 5.63272e-38 1.39838e-29 2.48664e-37 2.35086e-29 9.29454e-37 3.75935e-29 2.98364e-36 5.77224e-29 8.47146e-36 8.5663e-29 2.18311e-35 1.2353e-28 5.22484e-35 1.73814e-28 1.16651e-34 2.39652e-28 2.43923e-34 3.23784e-28 4.8692e-34 4.30203e-28 9.15956e-34 5.63178e-28 1.67799e-33 7.27449e-28 2.95306e-33 9.28391e-28
