# 6.3096e-05 1 130 : grain size, compostion index, size index
# Heating and cooling timescale: 0.000853175 4.05547e+07
# Ratio of heating to cooling to determine stochastic cutoff: 100
# Equilibrium emission is recorded even for those grains in the stochastic regime.
# Emission spectrum was computed for: 
# Type: IRSF
# Scales: 0.25 0.5 1 1.5 2 2.5 3 3.5 4 4.5 5 5.5 6 6.5 7 7.5 8 8.5 9 9.5 10
# StochasticallyHeated: 0 0 0 0 0 0 0 0 0 0 0 0 0 0 0 0 0 0 0 0 0
# Temperature: -1
# Wavelength  CExt  CAbs  CSca  Albedo G EqEm1 StEm1 EqEm2 StEm2 EqEm3 StEm3 EqEm4 StEm4 EqEm5 StEm5 EqEm6 StEm6 EqEm7 StEm7 EqEm8 StEm8 EqEm9 StEm9 EqEm10 StEm10 EqEm11 StEm11 EqEm12 StEm12 EqEm13 StEm13 EqEm14 StEm14 EqEm15 StEm15 EqEm16 StEm16 EqEm17 StEm17 EqEm18 StEm18 EqEm19 StEm19 EqEm20 StEm20 EqEm21 StEm21
0.05 6.73375e-09 2.996e-09 3.73775e-09 0.555077 0.214684 0 0 0 0 0 0 0 0 0 0 0 0 0 0 0 0 0 0 0 0 0 0 0 0 0 0 0 0 0 0 0 0 0 0 0 0 0 0 0 0 0 0
0.0525665 7.44278e-09 3.31147e-09 4.13132e-09 0.555077 0.237289 0 0 0 0 0 0 0 0 0 0 0 0 0 0 0 0 0 0 0 0 0 0 0 0 0 0 0 0 0 0 0 0 0 0 0 0 0 0 0 0 0 0
0.0552647 8.22647e-09 3.66015e-09 4.56633e-09 0.555077 0.262275 0 0 0 0 0 0 0 0 0 0 0 0 0 0 0 0 0 0 0 0 0 0 0 0 0 0 0 0 0 0 0 0 0 0 0 0 0 0 0 0 0 0
0.0581015 9.09268e-09 4.04554e-09 5.04714e-09 0.555077 0.289891 0 0 0 0 0 0 0 0 0 0 0 0 0 0 0 0 0 0 0 0 0 0 0 0 0 0 0 0 0 0 0 0 0 0 0 0 0 0 0 0 0 0
0.0610839 1.00501e-08 4.47152e-09 5.57858e-09 0.555077 0.320415 0 0 0 0 0 0 0 0 0 0 0 0 0 0 0 0 0 0 0 0 0 0 0 0 0 0 0 0 0 0 0 0 0 0 0 0 0 0 0 0 0 0
0.0642193 1.11083e-08 4.94235e-09 6.16597e-09 0.555077 0.354153 0 0 0 0 0 0 0 0 0 0 0 0 0 0 0 0 0 0 0 0 0 0 0 0 0 0 0 0 0 0 0 0 0 0 0 0 0 0 0 0 0 0
0.0675157 1.2278e-08 5.46275e-09 6.81522e-09 0.555077 0.391444 0 0 0 0 0 0 0 0 0 0 0 0 0 0 0 0 0 0 0 0 0 0 0 0 0 0 0 0 0 0 0 0 0 0 0 0 0 0 0 0 0 0
0.0709813 1.35708e-08 6.03795e-09 7.53283e-09 0.555077 0.432661 0 0 0 0 0 0 0 0 0 0 0 0 0 0 0 0 0 0 0 0 0 0 0 0 0 0 0 0 0 0 0 0 0 0 0 0 0 0 0 0 0 0
0.0746248 1.49997e-08 6.67372e-09 8.326e-09 0.555077 0.478218 0 0 0 0 0 0 0 0 0 0 0 0 0 0 0 0 0 0 0 0 0 0 0 0 0 0 0 0 0 0 0 0 0 0 0 0 0 0 0 0 0 0
0.0784553 1.65791e-08 7.37643e-09 9.20269e-09 0.555077 0.528572 0 0 0 0 0 0 0 0 0 0 0 0 0 0 0 0 0 0 0 0 0 0 0 0 0 0 0 0 0 0 0 0 0 0 0 0 0 0 0 0 0 0
0.0824824 1.83248e-08 8.15313e-09 1.01717e-08 0.555077 0.584228 0 0 0 0 0 0 0 0 0 0 0 0 0 0 0 0 0 0 0 0 0 0 0 0 0 0 0 0 0 0 0 0 0 0 0 0 0 0 0 0 0 0
0.0867162 2.02543e-08 9.01162e-09 1.12427e-08 0.555077 0.645744 0 0 0 0 0 0 0 0 0 0 0 0 0 0 0 0 0 0 0 0 0 0 0 0 0 0 0 0 0 0 0 0 0 0 0 0 0 0 0 0 0 0
0.0911674 2.2387e-08 9.9605e-09 1.24265e-08 0.555077 0.713738 0 0 0 0 0 0 0 0 0 0 0 0 0 0 0 0 0 0 0 0 0 0 0 0 0 0 0 0 0 0 0 0 0 0 0 0 0 0 0 0 0 0
0.095847 2.47443e-08 1.10093e-08 1.3735e-08 0.555077 0.788891 0 0 0 0 0 0 0 0 0 0 0 0 0 0 0 0 0 0 0 0 0 0 0 0 0 0 0 0 0 0 0 0 0 0 0 0 0 0 0 0 0 0
0.100767 2.69489e-08 1.19919e-08 1.4957e-08 0.555015 0.858729 0 0 0 0 0 0 0 0 0 0 0 0 0 0 0 0 0 0 0 0 0 0 0 0 0 0 0 0 0 0 0 0 0 0 0 0 0 0 0 0 0 0
0.105939 2.70488e-08 1.20491e-08 1.49997e-08 0.554543 0.862092 0 0 0 0 0 0 0 0 0 0 0 0 0 0 0 0 0 0 0 0 0 0 0 0 0 0 0 0 0 0 0 0 0 0 0 0 0 0 0 0 0 0
0.111377 2.71484e-08 1.21131e-08 1.50353e-08 0.55382 0.866516 0 0 0 0 0 0 0 0 0 0 0 0 0 0 0 0 0 0 0 0 0 0 0 0 0 0 0 0 0 0 0 0 0 0 0 0 0 0 0 0 0 0
0.117094 2.72489e-08 1.2175e-08 1.50739e-08 0.553194 0.869214 0 0 0 0 0 0 0 0 0 0 0 0 0 0 0 0 0 0 0 0 0 0 0 0 0 0 0 0 0 0 0 0 0 0 0 0 0 0 0 0 0 0
0.123105 2.73496e-08 1.22518e-08 1.50978e-08 0.55203 0.870762 0 0 0 0 0 0 0 0 0 0 0 0 0 0 0 0 0 0 0 0 0 0 0 0 0 0 0 0 0 0 0 0 0 0 0 0 0 0 0 0 0 0
0.129424 2.74465e-08 1.2334e-08 1.51125e-08 0.550617 0.871305 0 0 0 0 0 0 0 0 0 0 0 0 0 0 0 0 0 0 0 0 0 0 0 0 0 0 0 0 0 0 0 0 0 0 0 0 0 0 0 0 0 0
0.136067 2.75506e-08 1.24011e-08 1.51495e-08 0.54988 0.87066 0 0 0 0 0 0 0 0 0 0 0 0 0 0 0 0 0 0 0 0 0 0 0 0 0 0 0 0 0 0 0 0 0 0 0 0 0 0 0 0 0 0
0.143051 2.76547e-08 1.24941e-08 1.51606e-08 0.548212 0.868027 0 0 0 0 0 0 0 0 0 0 0 0 0 0 0 0 0 0 0 0 0 0 0 0 0 0 0 0 0 0 0 0 0 0 0 0 0 0 0 0 0 0
0.150394 2.7768e-08 1.26266e-08 1.51414e-08 0.545283 0.868641 0 0 0 0 0 0 0 0 0 0 0 0 0 0 0 0 0 0 0 0 0 0 0 0 0 0 0 0 0 0 0 0 0 0 0 0 0 0 0 0 0 0
0.158114 2.79014e-08 1.27954e-08 1.51061e-08 0.541408 0.874219 0 0 0 0 0 0 0 0 0 0 0 0 0 0 0 0 0 0 0 0 0 0 0 0 0 0 0 0 0 0 0 0 0 0 0 0 0 0 0 0 0 0
0.16623 2.80577e-08 1.29788e-08 1.5079e-08 0.537426 0.881227 0 0 0 0 0 0 0 0 0 0 0 0 0 0 0 0 0 0 0 0 0 0 0 0 0 0 0 0 0 0 0 0 0 0 0 0 0 0 0 0 0 0
0.174762 2.82183e-08 1.31527e-08 1.50656e-08 0.533893 0.88758 0 0 0 0 0 0 0 0 0 0 0 0 0 0 0 0 0 0 0 0 0 0 0 0 0 0 0 0 0 0 0 0 0 0 0 0 0 0 0 0 0 0
0.183733 2.83787e-08 1.32422e-08 1.51365e-08 0.533374 0.89274 0 0 0 0 0 0 0 0 0 0 0 0 0 0 0 0 0 0 0 0 0 0 0 0 0 0 0 0 0 0 0 0 0 0 0 0 0 0 0 0 0 0
0.193164 2.88644e-08 1.30746e-08 1.57897e-08 0.547032 0.894204 0 0 0 0 0 0 0 0 0 0 0 0 0 0 0 0 0 0 0 0 0 0 0 0 0 0 0 0 0 0 0 0 0 0 0 0 0 0 0 0 0 0
0.203079 2.8951e-08 1.31539e-08 1.5797e-08 0.545648 0.887698 0 0 0 0 0 0 0 0 0 0 0 0 0 0 0 0 0 0 0 0 0 0 0 0 0 0 0 0 0 0 0 0 0 0 0 0 0 0 0 0 0 0
0.213503 2.88621e-08 1.32971e-08 1.5565e-08 0.539289 0.874512 0 0 0 0 0 0 0 0 0 0 0 0 0 0 0 0 0 0 0 0 0 0 0 0 0 0 0 0 0 0 0 0 0 0 0 0 0 0 0 0 0 0
0.224463 2.88006e-08 1.34023e-08 1.53983e-08 0.534653 0.860024 0 0 0 0 0 0 0 0 0 0 0 0 0 0 0 0 0 0 0 0 0 0 0 0 0 0 0 0 0 0 0 0 0 0 0 0 0 0 0 0 0 0
0.235984 2.8763e-08 1.35143e-08 1.52487e-08 0.53015 0.854879 0 0 0 0 0 0 0 0 0 0 0 0 0 0 0 0 0 0 0 0 0 0 0 0 0 0 0 0 0 0 0 0 0 0 0 0 0 0 0 0 0 0
0.248097 2.87193e-08 1.36174e-08 1.51018e-08 0.525843 0.858299 0 0 0 0 0 0 0 0 0 0 0 0 0 0 0 0 0 0 0 0 0 0 0 0 0 0 0 0 0 0 0 0 0 0 0 0 0 0 0 0 0 0
0.260832 2.86156e-08 1.36955e-08 1.49201e-08 0.521399 0.858795 0 0 0 0 0 0 0 0 0 0 0 0 0 0 0 0 0 0 0 0 0 0 0 0 0 0 0 0 0 0 0 0 0 0 0 0 0 0 0 0 0 0
0.274221 2.89544e-08 1.37551e-08 1.51993e-08 0.524939 0.848339 0 0 0 0 0 0 0 0 0 0 0 0 0 0 0 0 0 0 0 0 0 0 0 0 0 0 0 0 0 0 0 0 0 0 0 0 0 0 0 0 0 0
0.288297 2.98605e-08 1.38017e-08 1.60588e-08 0.537794 0.839443 0 0 0 0 0 0 0 0 0 0 0 0 0 0 0 0 0 0 0 0 0 0 0 0 0 0 0 0 0 0 0 0 0 0 0 0 0 0 0 0 0 0
0.303095 3.06723e-08 1.38741e-08 1.67983e-08 0.547668 0.83784 0 0 0 0 0 0 0 0 0 0 0 0 0 0 0 0 0 0 0 0 0 0 0 0 0 0 0 0 0 0 0 0 0 0 0 0 0 0 0 0 0 0
0.318653 3.08997e-08 1.39153e-08 1.69844e-08 0.549663 0.839276 0 0 0 0 0 0 0 0 0 0 0 0 0 0 0 0 0 0 0 0 0 0 0 0 0 0 0 0 0 0 0 0 0 0 0 0 0 0 0 0 0 0
0.335009 3.05892e-08 1.39706e-08 1.66186e-08 0.543284 0.833069 0 0 0 0 0 0 0 0 0 0 0 0 0 0 0 0 0 0 0 0 0 0 0 0 0 0 0 0 0 0 0 0 0 0 0 0 0 0 0 0 0 0
0.352205 3.01367e-08 1.39932e-08 1.61434e-08 0.535674 0.818393 0 0 0 0 0 0 0 0 0 0 0 0 0 0 0 0 0 0 0 0 0 0 0 0 0 0 0 0 0 0 0 0 0 0 0 0 0 0 0 0 0 0
0.370284 2.99547e-08 1.40531e-08 1.59016e-08 0.530855 0.795906 0 0 0 0 0 0 0 0 0 0 0 0 0 0 0 0 0 0 0 0 0 0 0 0 0 0 0 0 0 0 0 0 0 0 0 0 0 0 0 0 0 0
0.389291 3.01334e-08 1.40385e-08 1.60948e-08 0.534119 0.784089 0 0 0 0 0 0 0 0 0 0 0 0 0 0 0 0 0 0 0 0 0 0 0 0 0 0 0 0 0 0 0 0 0 0 0 0 0 0 0 0 0 0
0.409273 3.06311e-08 1.40164e-08 1.66147e-08 0.542414 0.784616 0 0 0 0 0 0 0 0 0 0 0 0 0 0 0 0 0 0 0 0 0 0 0 0 0 0 0 0 0 0 0 0 0 0 0 0 0 0 0 0 0 0
0.430281 3.12984e-08 1.40048e-08 1.72936e-08 0.55254 0.797662 0 0 0 0 0 0 0 0 0 0 0 0 0 0 0 0 0 0 0 0 0 0 0 0 0 0 0 0 0 0 0 0 0 0 0 0 0 0 0 0 0 0
0.452368 3.18095e-08 1.39674e-08 1.78421e-08 0.560904 0.813661 0 0 0 0 0 0 0 0 0 0 0 0 0 0 0 0 0 0 0 0 0 0 0 0 0 0 0 0 0 0 0 0 0 0 0 0 0 0 0 0 0 0
0.475588 3.1969e-08 1.38624e-08 1.81066e-08 0.566379 0.827419 0 0 0 0 0 0 0 0 0 0 0 0 0 0 0 0 0 0 0 0 0 0 0 0 0 0 0 0 0 0 0 0 0 0 0 0 0 0 0 0 0 0
0.5 3.18133e-08 1.38167e-08 1.79966e-08 0.565695 0.825604 0 0 0 0 0 0 0 0 0 0 0 0 0 0 0 0 0 0 0 0 0 0 0 0 0 0 0 0 0 0 0 0 0 0 0 0 0 0 0 0 0 0
0.525665 3.14306e-08 1.36016e-08 1.78291e-08 0.567251 0.819149 0 0 0 0 0 0 0 0 0 0 0 0 0 0 0 0 0 0 0 0 0 0 0 0 0 0 0 0 0 0 0 0 0 0 0 0 0 0 0 0 0 0
0.552648 3.09059e-08 1.35758e-08 1.73301e-08 0.560738 0.786482 0 0 0 0 0 0 0 0 0 0 0 0 0 0 0 0 0 0 0 0 0 0 0 0 0 0 0 0 0 0 0 0 0 0 0 0 0 0 0 0 0 0
0.581015 3.06163e-08 1.33093e-08 1.73069e-08 0.565285 0.753023 0 0 0 0 0 0 0 0 0 0 0 0 0 0 0 0 0 0 0 0 0 0 0 0 0 0 0 0 0 0 0 0 0 0 0 0 0 0 0 0 0 0
0.610839 3.06179e-08 1.31838e-08 1.74342e-08 0.56941 0.691243 0 0 0 0 0 0 0 0 0 0 0 0 0 0 0 0 0 0 0 0 0 0 0 0 0 0 0 0 0 0 0 0 0 0 0 0 0 0 0 0 0 0
0.642193 3.09186e-08 1.28534e-08 1.80652e-08 0.584283 0.617454 0 0 0 0 0 0 0 0 0 0 0 0 0 0 0 0 0 0 0 0 0 0 0 0 0 0 0 0 0 0 0 0 0 0 0 0 0 0 0 0 0 0
0.675157 3.20464e-08 1.27858e-08 1.92606e-08 0.601022 0.576761 0 0 0 0 0 0 0 0 0 0 0 0 0 0 0 0 0 0 0 0 0 0 0 0 0 0 0 0 0 0 0 0 0 0 0 0 0 0 0 0 0 0
0.709813 3.3124e-08 1.24681e-08 2.06559e-08 0.623594 0.504251 0 0 0 0 0 0 0 0 0 0 0 0 0 0 0 0 0 0 0 0 0 0 0 0 0 0 0 0 0 0 0 0 0 0 0 0 0 0 0 0 0 0
0.746248 3.51449e-08 1.21423e-08 2.30027e-08 0.654509 0.506151 0 0 0 0 0 0 0 0 0 0 0 0 0 0 0 0 0 0 0 0 0 0 0 0 0 0 0 0 0 0 0 0 0 0 0 0 0 0 0 0 0 0
0.784553 3.72191e-08 1.19576e-08 2.52615e-08 0.678724 0.511688 0 0 0 0 0 0 0 0 0 0 0 0 0 0 0 0 0 0 0 0 0 0 0 0 0 0 0 0 0 0 0 0 0 0 0 0 0 0 0 0 0 0
0.824824 3.90865e-08 1.16489e-08 2.74377e-08 0.701972 0.514091 0 0 0 0 0 0 0 0 0 0 0 0 0 0 0 0 0 0 0 0 0 0 0 0 0 0 0 0 0 0 0 0 0 0 0 0 0 0 0 0 0 0
0.867162 4.14907e-08 1.13841e-08 3.01065e-08 0.725622 0.565809 0 0 0 0 0 0 0 0 0 0 0 0 0 0 0 0 0 0 0 0 0 0 0 0 0 0 0 0 0 0 0 0 0 0 0 0 0 0 0 0 0 0
0.911674 4.35693e-08 1.11033e-08 3.2466e-08 0.745158 0.59057 0 0 0 0 0 0 0 0 0 0 0 0 0 0 0 0 0 0 0 0 0 0 0 0 0 0 0 0 0 0 0 0 0 0 0 0 0 0 0 0 0 0
0.95847 4.51811e-08 1.07971e-08 3.4384e-08 0.761026 0.612361 0 0 0 0 0 0 0 0 0 0 0 0 0 0 0 0 0 0 0 0 0 0 0 0 0 0 0 0 0 0 0 0 0 0 0 0 0 0 0 0 0 0
1.00767 4.64254e-08 1.04282e-08 3.59972e-08 0.775377 0.636246 0 0 0 0 0 0 0 0 0 0 0 0 0 0 0 0 0 0 0 0 0 0 0 0 0 0 0 0 0 0 0 0 0 0 0 0 0 0 0 0 0 0
1.05939 4.70441e-08 1.01456e-08 3.68985e-08 0.784339 0.657835 0 0 0 0 0 0 0 0 0 0 0 0 0 0 0 0 0 0 0 0 0 0 0 0 0 0 0 0 0 0 0 0 0 0 0 0 0 0 0 0 0 0
1.11377 4.73633e-08 1.00164e-08 3.73469e-08 0.78852 0.664047 0 0 0 0 0 0 0 0 0 0 0 0 0 0 0 0 0 0 0 0 0 0 0 0 0 0 0 0 0 0 0 0 0 0 0 0 0 0 0 0 0 0
1.17094 4.73825e-08 1.00773e-08 3.73052e-08 0.78732 0.683187 0 0 0 0 0 0 0 0 0 0 0 0 0 0 0 0 0 0 0 0 0 0 0 0 0 0 0 0 0 0 0 0 0 0 0 0 0 0 0 0 0 0
1.23105 4.65795e-08 9.99557e-09 3.65839e-08 0.785408 0.684992 0 0 0 0 0 0 0 0 0 0 0 0 0 0 0 0 0 0 0 0 0 0 0 0 0 0 0 0 0 0 0 0 0 0 0 0 0 0 0 0 0 0
1.29424 4.50703e-08 9.63515e-09 3.54351e-08 0.786219 0.679174 0 0 0 0 0 0 0 0 0 0 0 0 0 0 0 0 0 0 0 0 0 0 0 0 0 0 0 0 0 0 0 0 0 0 0 0 0 0 0 0 0 0
1.36067 4.3617e-08 9.25844e-09 3.43586e-08 0.787733 0.6722 0 0 0 0 0 0 0 0 0 0 0 0 0 0 0 0 0 0 0 0 0 0 0 0 0 0 0 0 0 0 0 0 0 0 0 0 0 0 0 0 0 0
1.43051 4.21883e-08 9.04905e-09 3.31393e-08 0.785508 0.674759 0 0 0 0 0 0 0 0 0 0 0 0 0 0 0 0 0 0 0 0 0 0 0 0 0 0 0 0 0 0 0 0 0 0 0 0 0 0 0 0 0 0
1.50394 4.06852e-08 9.02154e-09 3.16637e-08 0.77826 0.684799 0 0 0 0 0 0 0 0 0 0 0 0 0 0 0 0 0 0 0 0 0 0 0 0 0 0 0 0 0 0 0 0 0 0 0 0 0 0 0 0 0 0
1.58114 3.8566e-08 8.93403e-09 2.9632e-08 0.768344 0.686684 0 0 0 0 0 0 0 0 0 0 0 0 0 0 0 0 0 0 0 0 0 0 0 0 0 0 0 0 0 0 0 0 0 0 0 0 0 0 0 0 0 0
1.6623 3.58911e-08 8.64331e-09 2.72478e-08 0.759179 0.673632 0 0 0 0 0 0 0 0 0 0 0 0 0 0 0 0 0 0 0 0 0 0 0 0 0 0 0 0 0 0 0 0 0 0 0 0 0 0 0 0 0 0
1.74763 3.32051e-08 8.24241e-09 2.49627e-08 0.751773 0.648447 0 0 0 0 0 0 0 0 0 0 0 0 0 0 0 0 0 0 0 0 0 0 0 0 0 0 0 0 0 0 0 0 0 0 0 0 0 0 0 0 0 0
1.83733 3.08861e-08 7.91004e-09 2.29761e-08 0.743897 0.617912 0 0 0 0 0 0 0 0 0 0 0 0 0 0 0 0 0 0 0 0 0 0 0 0 0 0 0 0 0 0 0 0 0 0 0 0 0 0 0 0 0 0
1.93164 2.89194e-08 7.73582e-09 2.11836e-08 0.732504 0.592976 0 0 0 0 0 0 0 0 0 0 0 0 0 0 0 0 0 0 0 0 0 0 0 0 0 0 0 0 0 0 0 0 0 0 0 0 0 0 0 0 0 0
2.03079 2.71056e-08 7.69581e-09 1.94098e-08 0.71608 0.580527 0 0 0 0 0 0 0 0 0 0 0 0 0 0 0 0 0 0 0 0 0 0 0 0 0 0 0 0 0 0 0 0 0 0 0 0 0 0 0 0 0 0
2.13503 2.52525e-08 7.70372e-09 1.75488e-08 0.694933 0.580118 0 0 0 0 0 0 0 0 0 0 0 0 0 0 0 0 0 0 0 0 0 0 0 0 0 0 0 0 0 0 0 0 0 0 0 0 0 0 0 0 0 0
2.24463 2.33115e-08 7.6699e-09 1.56416e-08 0.670983 0.586178 0 0 0 0 0 0 0 0 0 0 0 0 0 0 0 0 0 0 0 0 0 0 0 0 0 0 0 0 0 0 0 0 0 0 0 0 0 0 0 0 0 0
2.35984 2.13354e-08 7.55488e-09 1.37806e-08 0.6459 0.590044 0 0 0 0 0 0 0 0 0 0 0 0 0 0 0 0 0 0 0 0 0 0 0 0 0 0 0 0 0 0 0 0 0 0 0 0 0 0 0 0 0 0
2.48097 1.94346e-08 7.37468e-09 1.20599e-08 0.620539 0.583329 0 0 0 0 0 0 0 0 0 0 0 0 0 0 0 0 0 0 0 0 0 0 0 0 0 0 0 0 0 0 0 0 0 0 0 0 0 0 0 0 0 0
2.60832 1.77047e-08 7.16504e-09 1.05397e-08 0.595304 0.561115 0 0 0 0 0 0 0 0 0 0 0 0 0 0 0 0 0 0 0 0 0 0 0 0 0 0 0 0 0 0 0 0 0 0 0 0 0 0 0 0 0 0
2.74221 1.61879e-08 6.9668e-09 9.22114e-09 0.56963 0.523808 0 0 0 0 0 0 0 0 0 0 0 0 0 0 0 0 0 0 0 0 0 0 0 0 0 0 0 0 0 0 0 0 0 0 0 0 0 0 0 0 0 0
2.88297 1.48914e-08 6.80645e-09 8.08495e-09 0.542927 0.476248 0 0 0 0 0 0 0 0 0 0 0 0 0 0 0 0 0 0 0 0 0 0 0 0 0 0 0 0 0 0 0 0 0 0 0 0 0 0 0 0 0 0
3.03095 1.38039e-08 6.69505e-09 7.10888e-09 0.51499 0.42537 0 0 0 0 0 0 0 0 0 0 0 0 0 0 0 0 0 0 0 0 0 0 0 0 0 0 0 0 0 0 0 0 0 0 0 0 0 0 0 0 0 0
3.18653 1.28231e-08 6.56265e-09 6.26042e-09 0.488216 0.376368 0 0 0 0 0 0 0 0 0 0 0 0 0 0 0 0 0 0 0 0 0 0 0 0 0 0 0 0 0 0 0 0 0 0 0 0 0 0 0 0 0 0
3.35009 1.19138e-08 6.52673e-09 5.38704e-09 0.452169 0.331903 0 0 0 0 0 0 0 0 0 0 0 0 0 0 0 0 0 0 0 0 0 0 0 0 0 0 0 0 0 0 0 0 0 0 0 0 0 0 0 0 0 0
3.52205 1.14735e-08 6.49052e-09 4.98297e-09 0.434303 0.292827 0 0 0 0 0 0 0 0 0 0 0 0 0 0 0 0 0 0 0 0 0 0 0 0 0 0 0 0 0 0 0 0 0 0 0 0 0 0 0 0 0 0
3.70284 1.02596e-08 5.97968e-09 4.27989e-09 0.417161 0.259005 0 0 0 0 0 0 0 0 0 0 0 0 0 0 0 0 0 0 0 0 0 0 0 0 0 0 0 0 0 0 0 0 0 0 0 0 0 0 0 0 0 0
3.89291 9.40114e-09 5.75059e-09 3.65055e-09 0.38831 0.229739 0 0 0 0 0 0 0 0 0 0 0 0 0 0 0 0 0 0 0 0 0 0 0 0 0 0 0 0 0 0 0 0 0 0 0 0 0 0 0 0 0 0
4.09273 8.64755e-09 5.55302e-09 3.09453e-09 0.357851 0.204339 0 0 0 0 0 0 0 0 0 0 0 0 0 0 0 0 0 0 0 0 0 0 0 0 0 0 0 0 0 0 0 0 0 0 0 0 0 0 0 0 0 0
4.30281 7.99309e-09 5.38473e-09 2.60836e-09 0.326327 0.182198 0 0 0 0 0 0 0 0 0 0 0 0 0 0 0 0 0 0 0 0 0 0 0 0 0 0 0 0 0 0 0 0 0 0 0 0 0 0 0 0 0 0
4.52368 7.43602e-09 5.24675e-09 2.18927e-09 0.294415 0.162824 0 0 0 0 0 0 0 0 0 0 0 0 0 0 0 0 0 0 0 0 0 0 0 0 0 0 0 0 0 0 0 0 0 0 0 0 0 0 0 0 0 0
4.75588 6.96531e-09 5.13251e-09 1.83279e-09 0.263132 0.145719 0 0 0 0 0 0 0 0 0 0 0 0 0 0 0 0 0 0 0 0 0 0 0 0 0 0 0 0 0 0 0 0 0 0 0 0 0 0 0 0 0 0
5 6.56187e-09 5.02919e-09 1.53267e-09 0.233573 0.130509 0 0 0 0 0 0 0 0 0 0 0 0 0 0 0 0 0 0 0 0 0 0 0 0 0 0 0 0 0 0 0 0 0 0 0 0 0 0 0 0 0 0
5.25665 6.20438e-09 4.92457e-09 1.27981e-09 0.206276 0.11693 0 0 0 0 0 0 0 0 0 0 0 0 0 0 0 0 0 0 0 0 0 0 0 0 0 0 0 0 0 0 0 0 0 0 0 0 0 0 0 0 0 0
5.52648 5.88469e-09 4.81848e-09 1.06621e-09 0.181183 0.104804 0 0 0 0 0 0 0 0 0 0 0 0 0 0 0 0 0 0 0 0 0 0 0 0 0 0 0 0 0 0 0 0 0 0 0 0 0 0 0 0 0 0
5.81015 5.59313e-09 4.70758e-09 8.85552e-10 0.158328 0.0938668 0 0 0 0 0 0 0 0 0 0 0 0 0 0 0 0 0 0 0 0 0 0 0 0 0 0 0 0 0 0 0 0 0 0 0 0 0 0 0 0 0 0
6.10839 5.3293e-09 4.59661e-09 7.32687e-10 0.137483 0.0839979 0 0 0 0 0 0 0 0 0 0 0 0 0 0 0 0 0 0 0 0 0 0 0 0 0 0 0 0 0 0 0 0 0 0 0 0 0 0 0 0 1.4013e-45 0
6.42193 5.08697e-09 4.48389e-09 6.03075e-10 0.118553 0.0750377 0 0 0 0 0 0 0 0 0 0 0 0 0 0 0 0 0 0 0 0 0 0 0 0 0 0 0 0 0 0 1.4013e-45 0 5.60519e-45 0 1.54143e-44 0 4.2039e-44 0 1.12104e-43 0 2.73253e-43 0
6.75157 4.87554e-09 4.384e-09 4.91537e-10 0.100817 0.0668132 0 0 0 0 0 0 0 0 0 0 0 0 0 0 0 0 0 0 0 0 0 0 1.4013e-45 0 5.60519e-45 0 2.10195e-44 0 7.70714e-44 0 2.57839e-43 0 7.69313e-43 0 2.17762e-42 0 5.7187e-42 0 1.43549e-41 0 3.362e-41 0
7.09813 4.6546e-09 4.25427e-09 4.00332e-10 0.0860078 0.0591128 0 0 0 0 0 0 0 0 0 0 0 0 0 0 0 0 0 0 4.2039e-45 0 3.08286e-44 0 1.62551e-43 0 7.32879e-43 0 2.82782e-42 0 9.95342e-42 0 3.12756e-41 0 8.83084e-41 0 2.37648e-40 0 5.95246e-40 0 1.42854e-39 0 3.20955e-39 0
7.46248 4.44985e-09 4.1327e-09 3.17151e-10 0.0712723 0.0517134 0 0 0 0 0 0 0 0 0 0 0 0 0 0 8.40779e-45 0 8.68805e-44 0 6.5861e-43 0 4.01052e-42 0 1.9827e-41 0 8.3282e-41 0 3.00779e-40 0 9.95733e-40 0 2.95868e-39 0 7.94114e-39 0 2.03621e-38 0 4.87659e-38 0 1.12138e-37 0 2.42179e-37 0
7.84553 4.24022e-09 4.00106e-09 2.39163e-10 0.0564033 0.0447925 0 0 0 0 0 0 0 0 0 0 2.8026e-45 0 7.84727e-44 0 1.14066e-42 0 1.06891e-41 0 7.39816e-41 0 4.12312e-40 0 1.88546e-39 0 7.38391e-39 0 2.5047e-38 0 7.82111e-38 0 2.2036e-37 0 5.63614e-37 0 1.38024e-36 0 3.1676e-36 0 6.99373e-36 0 1.45468e-35 0
8.24824 4.51634e-09 4.34249e-09 1.7385e-10 0.0384936 0.038917 0 0 0 0 0 0 0 0 9.80909e-45 0 4.86251e-43 0 1.07732e-41 0 1.37811e-40 0 1.15831e-39 0 7.29461e-39 0 3.73832e-38 0 1.58721e-37 0 5.81509e-37 0 1.85834e-36 0 5.48902e-36 0 1.47026e-35 0 3.59195e-35 0 8.42003e-35 0 1.85556e-34 0 3.94147e-34 0 7.91022e-34 0
8.67162 5.31108e-09 5.16174e-09 1.49332e-10 0.0281171 0.0340655 0 0 0 0 0 0 1.12104e-44 0 1.65353e-42 0 6.66121e-41 0 1.26768e-39 0 1.43184e-38 0 1.08466e-37 0 6.24386e-37 0 2.95446e-36 0 1.1689e-35 0 4.01944e-35 0 1.21367e-34 0 3.40019e-34 0 8.67983e-34 0 2.03005e-33 0 4.56485e-33 0 9.67904e-33 0 1.98172e-32 0 3.84416e-32 0
9.11674 7.13308e-09 6.95679e-09 1.76287e-10 0.0247141 0.0291911 0 0 0 0 1.4013e-45 0 2.02347e-42 0 2.40858e-40 0 8.10004e-39 0 1.33499e-37 0 1.33954e-36 0 9.1922e-36 0 4.85808e-35 0 2.13075e-34 0 7.88256e-34 0 2.55193e-33 0 7.30081e-33 0 1.94505e-32 0 4.74314e-32 0 1.06426e-31 0 2.30029e-31 0 4.70167e-31 0 9.29538e-31 0 1.74573e-30 0
9.5847 8.81493e-09 8.56625e-09 2.48679e-10 0.0282111 0.0258419 0 0 0 0 2.97075e-43 0 2.67309e-40 0 2.51905e-38 0 7.13546e-37 0 1.02564e-35 0 9.19552e-35 0 5.74381e-34 0 2.79862e-33 0 1.14199e-32 0 3.96332e-32 0 1.21157e-31 0 3.29279e-31 0 8.36268e-31 0 1.95245e-30 0 4.21138e-30 0 8.76633e-30 0 1.73033e-29 0 3.30895e-29 0 6.02611e-29 0
10.0767 8.80872e-09 8.52669e-09 2.8203e-10 0.0320172 0.0241691 0 0 0 0 3.48012e-41 0 2.24383e-38 0 1.69365e-36 0 4.07482e-35 0 5.14235e-34 0 4.14225e-33 0 2.366e-32 0 1.06704e-31 0 4.06519e-31 0 1.32768e-30 0 3.84317e-30 0 9.94727e-30 0 2.41392e-29 0 5.40727e-29 0 1.12337e-28 0 2.25616e-28 0 4.30788e-28 0 7.98139e-28 0 1.41161e-27 0
10.5939 7.66177e-09 7.40613e-09 2.55642e-10 0.033366 0.0234257 0 0 2.52234e-44 0 2.78113e-39 0 1.30752e-36 0 7.99091e-35 0 1.64604e-33 0 1.83543e-32 0 1.33528e-31 0 7.00491e-31 0 2.93514e-30 0 1.04753e-29 0 3.22911e-29 0 8.8745e-29 0 2.19277e-28 0 5.09581e-28 0 1.09741e-27 0 2.19993e-27 0 4.27042e-27 0 7.9004e-27 0 1.42033e-26 0 2.44305e-26 0
11.1377 6.46801e-09 6.2507e-09 2.17311e-10 0.0335978 0.0238314 0 0 2.79839e-42 0 1.71073e-37 0 5.95577e-35 0 2.97769e-33 0 5.29149e-32 0 5.24494e-31 0 3.46337e-30 0 1.67565e-29 0 6.5468e-29 0 2.19579e-28 0 6.40673e-28 0 1.67595e-27 0 3.96213e-27 0 8.83626e-27 0 1.83298e-26 0 3.55182e-26 0 6.67496e-26 0 1.19835e-25 0 2.09356e-25 0 3.50695e-25 0
11.7094 5.19648e-09 5.02591e-09 1.70569e-10 0.0328239 0.0239753 1.4013e-45 0 2.25089e-40 0 8.03235e-36 0 2.10136e-33 0 8.67948e-32 0 1.34022e-30 0 1.18769e-29 0 7.15214e-29 0 3.20399e-28 0 1.17123e-27 0 3.70292e-27 0 1.02538e-26 0 2.55928e-26 0 5.80152e-26 0 1.24415e-25 0 2.49053e-25 0 4.6726e-25 0 8.51488e-25 0 1.48561e-24 0 2.52567e-24 0 4.12555e-24 0
12.3105 4.13451e-09 4.00766e-09 1.26845e-10 0.0306796 0.0239437 1.77965e-43 0 1.41622e-38 0 3.02934e-34 0 6.03901e-32 0 2.07998e-30 0 2.81e-29 0 2.23857e-28 0 1.23491e-27 0 5.14153e-27 0 1.76424e-26 0 5.27293e-26 0 1.3893e-25 0 3.31615e-25 0 7.22279e-25 0 1.49232e-24 0 2.88776e-24 0 5.25395e-24 0 9.29783e-24 0 1.57872e-23 0 2.61532e-23 0 4.17086e-23 0
12.9424 3.67882e-09 3.58723e-09 9.15934e-11 0.0248975 0.0230149 1.74532e-41 0 7.98303e-37 0 1.04946e-32 0 1.6155e-30 0 4.68116e-29 0 5.56926e-28 0 4.0092e-27 0 2.03475e-26 0 7.90178e-26 0 2.55297e-25 0 7.23311e-25 0 1.81771e-24 0 4.15831e-24 0 8.71931e-24 0 1.7388e-23 0 3.25802e-23 0 5.75689e-23 0 9.90787e-23 0 1.63937e-22 0 2.64968e-22 0 4.13046e-22 0
