# 5.9566e-07 0 49 : grain size, compostion index, size index
# Heating and cooling timescale: 325.571 323.706
# Ratio of heating to cooling to determine stochastic cutoff: 100
# Equilibrium emission is recorded even for those grains in the stochastic regime.
# Emission spectrum was computed for: 
# Type: IRSF
# Scales: 0.25 0.5 1 1.5 2 2.5 3 3.5 4 4.5 5 5.5 6 6.5 7 7.5 8 8.5 9 9.5 10
# StochasticallyHeated: 1 1 1 1 1 1 1 1 1 1 1 1 1 1 1 1 1 1 1 1 1
# Temperature: -1
# Wavelength  CExt  CAbs  CSca  Albedo G EqEm1 StEm1 EqEm2 StEm2 EqEm3 StEm3 EqEm4 StEm4 EqEm5 StEm5 EqEm6 StEm6 EqEm7 StEm7 EqEm8 StEm8 EqEm9 StEm9 EqEm10 StEm10 EqEm11 StEm11 EqEm12 StEm12 EqEm13 StEm13 EqEm14 StEm14 EqEm15 StEm15 EqEm16 StEm16 EqEm17 StEm17 EqEm18 StEm18 EqEm19 StEm19 EqEm20 StEm20 EqEm21 StEm21
0.05 2.34799e-13 2.25636e-13 9.16324e-15 0.0390258 0.0057302 0 0 0 0 0 0 0 0 0 0 0 0 0 0 0 0 0 0 0 0 0 0 0 0 0 0 0 0 0 0 0 0 0 0 0 0 0 0 0 0 0 0
0.0525665 2.59523e-13 2.49395e-13 1.01281e-14 0.0390258 0.00633356 0 0 0 0 0 0 0 0 0 0 0 0 0 0 0 0 0 0 0 0 0 0 0 0 0 0 0 0 0 0 0 0 0 0 0 0 0 0 0 0 0 0
0.0552647 2.86849e-13 2.75655e-13 1.11945e-14 0.0390258 0.00700045 0 0 0 0 0 0 0 0 0 0 0 0 0 0 0 0 0 0 0 0 0 0 0 0 0 0 0 0 0 0 0 0 0 0 0 0 0 0 0 0 0 0
0.0581015 3.17053e-13 3.0468e-13 1.23732e-14 0.0390258 0.00773757 0 0 0 0 0 0 0 0 0 0 0 0 0 0 0 0 0 0 0 0 0 0 0 0 0 0 0 0 0 0 0 0 0 0 0 0 0 0 0 0 0 0
0.0610839 3.50437e-13 3.36761e-13 1.36761e-14 0.0390258 0.0085523 0 0 0 0 0 0 0 0 0 0 0 0 0 0 0 0 0 0 0 0 0 0 0 0 0 0 0 0 0 0 0 0 0 0 0 0 0 0 0 0 0 0
0.0642193 3.87336e-13 3.7222e-13 1.51161e-14 0.0390258 0.00945281 0 0 0 0 0 0 0 0 0 0 0 0 0 0 0 0 0 0 0 0 0 0 0 0 0 0 0 0 0 0 0 0 0 0 0 0 0 0 0 0 0 0
0.0675157 4.28121e-13 4.11413e-13 1.67078e-14 0.0390258 0.0104481 0 0 0 0 0 0 0 0 0 0 0 0 0 0 0 0 0 0 0 0 0 0 0 0 0 0 0 0 0 0 0 0 0 0 0 0 0 0 0 0 0 0
0.0709813 4.732e-13 4.54733e-13 1.8467e-14 0.0390258 0.0115483 0 0 0 0 0 0 0 0 0 0 0 0 0 0 0 0 0 0 0 0 0 0 0 0 0 0 0 0 0 0 0 0 0 0 0 0 0 0 0 0 0 0
0.0746248 5.23026e-13 5.02614e-13 2.04115e-14 0.0390258 0.0127643 0 0 0 0 0 0 0 0 0 0 0 0 0 0 0 0 0 0 0 0 0 0 0 0 0 0 0 0 0 0 0 0 0 0 0 0 0 0 0 0 0 0
0.0784553 5.78098e-13 5.55537e-13 2.25607e-14 0.0390258 0.0141083 0 0 0 0 0 0 0 0 0 0 0 0 0 0 0 0 0 0 0 0 0 0 0 0 0 0 0 0 0 0 0 0 0 0 0 0 0 0 0 0 0 0
0.0824824 6.38969e-13 6.14032e-13 2.49363e-14 0.0390258 0.0155938 0 0 0 0 0 0 0 0 0 0 0 0 0 0 0 0 0 0 0 0 0 0 0 0 0 0 0 0 0 0 0 0 0 0 0 0 0 0 0 0 0 0
0.0867162 7.06249e-13 6.78687e-13 2.75619e-14 0.0390258 0.0172358 0 0 0 0 0 0 0 0 0 0 0 0 0 0 0 0 0 0 0 0 0 0 0 0 0 0 0 0 0 0 0 0 0 0 0 0 0 0 0 0 0 0
0.0911674 7.80614e-13 7.5015e-13 3.04641e-14 0.0390258 0.0190506 0 0 0 0 0 0 0 0 0 0 0 0 0 0 0 0 0 0 0 0 0 0 0 0 0 0 0 0 0 0 0 0 0 0 0 0 0 0 0 0 0 0
0.095847 8.62809e-13 8.29137e-13 3.36718e-14 0.0390258 0.0210566 0 0 0 0 0 0 0 0 0 0 0 0 0 0 0 0 0 0 0 0 0 0 0 0 0 0 0 0 0 0 0 0 0 0 0 0 0 0 0 0 0 0
0.100767 9.11635e-13 8.77295e-13 3.43397e-14 0.0376683 0.023425 0 0 0 0 0 0 0 0 0 0 0 0 0 0 0 0 0 0 0 0 0 0 0 0 0 0 0 0 0 0 0 0 0 0 0 0 0 0 0 0 0 0
0.105939 7.67644e-13 7.44869e-13 2.27754e-14 0.0296693 0.0254475 0 0 0 0 0 0 0 0 0 0 0 0 0 0 0 0 0 0 0 0 0 0 0 0 0 0 0 0 0 0 0 0 0 0 0 0 0 0 0 0 0 0
0.111377 6.51112e-13 6.33348e-13 1.77636e-14 0.0272819 0.0287643 0 0 0 0 0 0 0 0 0 0 0 0 0 0 0 0 0 0 0 0 0 0 0 0 0 0 0 0 0 0 0 0 0 0 0 0 0 0 0 0 0 0
0.117094 5.14728e-13 5.02841e-13 1.18873e-14 0.0230944 0.0272802 0 0 0 0 0 0 0 0 0 0 0 0 0 0 0 0 0 0 0 0 0 0 0 0 0 0 0 0 0 0 0 0 0 0 0 0 0 0 0 0 0 0
0.123105 4.19344e-13 4.11944e-13 7.39955e-15 0.0176455 0.0235081 0 0 0 0 0 0 0 0 0 0 0 0 0 0 0 0 0 0 0 0 0 0 0 0 0 0 0 0 0 0 0 0 0 0 0 0 0 0 0 0 0 0
0.129424 3.51796e-13 3.47091e-13 4.70463e-15 0.0133732 0.0197886 0 0 0 0 0 0 0 0 0 0 0 0 0 0 0 0 0 0 0 0 0 0 0 0 0 0 0 0 0 0 0 0 0 0 0 0 0 0 0 0 0 0
0.136067 3.09021e-13 3.05983e-13 3.03838e-15 0.00983226 0.0167508 0 0 0 0 0 0 0 0 0 0 0 0 0 0 0 0 0 0 0 0 0 0 0 0 0 0 0 0 0 0 0 0 0 0 0 0 0 0 0 0 0 0
0.143051 2.86019e-13 2.84047e-13 1.97111e-15 0.00689154 0.0142979 0 0 0 0 0 0 0 0 0 0 0 0 0 0 0 0 0 0 0 0 0 0 0 0 0 0 0 0 0 0 0 0 0 0 0 0 0 0 0 0 0 0
0.150394 2.77518e-13 2.76233e-13 1.28431e-15 0.00462786 0.0122218 0 0 0 0 0 0 0 0 0 0 0 0 0 0 0 0 0 0 0 0 0 0 0 0 0 0 0 0 0 0 0 0 0 0 0 0 0 0 0 0 0 0
0.158114 2.83485e-13 2.82621e-13 8.63152e-16 0.00304479 0.0104841 0 0 0 0 0 0 0 0 0 0 0 0 0 0 0 0 0 0 0 0 0 0 0 0 0 0 0 0 0 0 0 0 0 0 0 0 0 0 0 0 0 0
0.16623 3.0511e-13 3.04461e-13 6.48776e-16 0.00212637 0.00902537 0 0 0 0 0 0 0 0 0 0 0 0 0 0 0 0 0 0 0 0 0 0 0 0 0 0 0 0 0 0 0 0 0 0 0 0 0 0 0 0 0 0
0.174762 3.44068e-13 3.43475e-13 5.92294e-16 0.00172144 0.007772 0 0 0 0 0 0 0 0 0 0 0 0 0 0 0 0 0 0 0 0 0 0 0 0 0 0 0 0 0 0 0 0 0 0 0 0 0 0 0 0 0 0
0.183733 4.06939e-13 4.06258e-13 6.80498e-16 0.00167224 0.00663035 0 0 0 0 0 0 0 0 0 0 0 0 0 0 0 0 0 0 0 0 0 0 0 0 0 0 0 0 0 0 0 0 0 0 0 0 0 0 0 0 0 0
0.193164 5.12747e-13 5.1175e-13 9.97165e-16 0.00194475 0.00552548 0 0 0 0 0 0 0 0 0 0 0 0 0 0 0 0 0 0 0 0 0 0 0 0 0 0 0 0 0 0 0 0 0 0 0 0 0 0 0 0 0 0
0.203079 6.73344e-13 6.71736e-13 1.60822e-15 0.00238841 0.00443232 0 0 0 0 0 0 0 0 0 0 0 0 0 0 0 0 0 0 0 0 0 0 0 0 0 0 0 0 0 0 0 0 0 0 0 0 0 0 0 0 0 0
0.213503 8.26015e-13 8.23661e-13 2.35367e-15 0.00284943 0.00340779 0 0 0 0 0 0 0 0 0 0 0 0 0 0 0 0 0 0 0 0 0 0 0 0 0 0 0 0 0 0 0 0 0 0 0 0 0 0 0 0 0 0
0.224463 8.02614e-13 7.9993e-13 2.68386e-15 0.0033439 0.00252718 0 0 0 0 0 0 0 0 0 0 0 0 0 0 0 0 0 0 0 0 0 0 0 0 0 0 0 0 0 0 0 0 0 0 0 0 0 0 0 0 0 0
0.235984 6.31232e-13 6.28866e-13 2.36575e-15 0.00374784 0.00181036 0 0 0 0 0 0 0 0 0 0 0 0 0 0 0 0 0 0 0 0 0 0 0 0 0 0 0 0 0 0 0 0 0 0 0 0 0 0 0 0 0 0
0.248097 4.71077e-13 4.69274e-13 1.80345e-15 0.00382835 0.00138043 0 0 0 0 0 0 0 0 0 0 0 0 0 0 0 0 0 0 0 0 0 0 0 0 0 0 0 0 0 0 0 0 0 0 0 0 0 0 0 0 0 0
0.260832 3.62754e-13 3.61458e-13 1.29626e-15 0.00357338 0.00141082 0 0 0 0 0 0 0 0 0 0 0 0 0 0 0 0 0 0 0 0 0 0 0 0 0 0 0 0 0 0 0 0 0 0 0 0 0 0 0 0 0 0
0.274221 2.94147e-13 2.93232e-13 9.15517e-16 0.00311244 0.00185987 0 0 0 0 0 0 0 0 0 0 0 0 0 0 0 0 0 0 0 0 0 0 0 0 0 0 0 0 0 0 0 0 0 0 0 0 0 0 0 0 0 0
0.288297 2.51037e-13 2.50388e-13 6.48851e-16 0.00258469 0.00250014 0 0 0 0 0 0 0 0 0 0 0 0 0 0 0 0 0 0 0 0 0 0 0 0 0 0 0 0 0 0 0 0 0 0 0 0 0 0 0 0 0 0
0.303095 2.23351e-13 2.22883e-13 4.67795e-16 0.00209444 0.00281874 0 0 0 0 0 0 0 0 0 0 0 0 0 0 0 0 0 0 0 0 0 0 0 0 0 0 0 0 0 0 0 0 0 0 0 0 0 0 0 0 0 0
0.318653 1.9756e-13 1.97215e-13 3.45431e-16 0.00174848 0.00295388 0 0 0 0 0 0 0 0 0 0 0 0 0 0 0 0 0 0 0 0 0 0 0 0 0 0 0 0 0 0 0 0 0 0 0 0 0 0 0 0 0 0
0.335009 1.75872e-13 1.75609e-13 2.6206e-16 0.00149006 0.00291416 0 0 0 0 0 0 0 0 0 0 0 0 0 0 0 0 0 0 0 0 0 0 0 0 0 0 0 0 0 0 0 0 0 0 0 0 0 0 0 0 0 0
0.352205 1.57263e-13 1.57059e-13 2.04162e-16 0.00129822 0.00277082 0 0 0 0 0 0 0 0 0 0 0 0 0 0 0 0 0 0 0 0 0 0 0 0 0 0 0 0 0 0 0 0 0 0 0 0 0 0 0 0 0 0
0.370284 1.40752e-13 1.40589e-13 1.62838e-16 0.00115691 0.00259413 0 0 0 0 0 0 0 0 0 0 0 0 0 0 0 0 0 0 0 0 0 0 0 0 0 0 0 0 0 0 0 0 0 0 0 0 0 0 0 0 0 0
0.389291 1.25683e-13 1.25551e-13 1.32219e-16 0.00105201 0.00242132 0 0 0 0 0 0 0 0 0 0 0 0 0 0 0 0 0 0 0 0 0 0 0 0 0 0 0 0 0 0 0 0 0 0 0 0 0 0 0 0 0 0
0.409273 1.11732e-13 1.11624e-13 1.08527e-16 0.000971318 0.00225242 0 0 0 0 0 0 0 0 0 0 0 0 0 0 0 0 0 0 0 0 0 0 0 0 0 0 0 0 0 0 0 0 0 0 0 0 0 0 0 0 0 0
0.430281 9.87965e-14 9.8707e-14 8.95105e-17 0.000906008 0.00209162 0 0 0 0 0 0 0 0 0 0 0 0 0 0 0 0 0 0 0 0 0 0 0 0 0 0 0 0 0 0 0 0 0 0 0 0 0 0 0 0 0 0
0.452368 8.6909e-14 8.68351e-14 7.38845e-17 0.000850137 0.00192517 0 0 0 0 0 0 0 0 0 0 0 0 0 0 0 0 0 0 0 0 0 0 0 0 0 0 0 0 0 0 0 0 0 0 0 0 0 0 0 0 0 0
0.475588 7.61535e-14 7.60925e-14 6.09211e-17 0.000799978 0.00176537 0 0 0 0 0 0 0 0 0 0 0 0 0 0 0 0 0 0 0 0 0 0 0 0 0 0 0 0 0 0 0 0 0 0 0 0 0 0 0 0 0 0
0.5 6.65749e-14 6.65247e-14 5.01652e-17 0.000753515 0.0016115 0 0 0 0 0 0 0 0 0 0 0 0 0 0 0 0 0 0 0 0 0 0 0 0 0 0 0 0 0 0 0 0 0 0 0 0 0 0 0 0 0 0
0.525665 5.81706e-14 5.81293e-14 4.12766e-17 0.000709579 0.00146592 0 0 0 0 0 0 0 0 0 0 0 0 0 0 0 0 0 0 0 0 0 0 0 0 0 0 0 0 0 0 0 0 0 0 0 0 0 0 0 0 0 0
0.552648 5.08882e-14 5.08543e-14 3.39652e-17 0.000667447 0.00133339 0 0 0 0 0 0 0 0 0 0 0 0 0 0 0 0 0 0 0 0 0 0 0 0 0 0 0 0 0 0 0 0 0 0 0 0 0 0 0 0 0 0
0.581015 4.46423e-14 4.46144e-14 2.79738e-17 0.00062662 0.00121017 0 0 0 0 0 0 0 0 0 0 0 0 0 0 0 0 0 0 0 0 0 0 0 0 0 0 0 0 0 0 0 0 0 0 0 0 0 0 0 0 0 0
0.610839 3.93222e-14 3.92991e-14 2.30723e-17 0.000586751 0.00109827 0 0 0 0 0 0 0 0 0 0 0 0 0 0 0 0 0 0 0 0 0 0 0 0 0 0 0 0 0 0 0 0 0 0 0 0 0 0 0 0 0 0
0.642193 3.48184e-14 3.47993e-14 1.90676e-17 0.000547629 0.000996772 0 0 0 0 0 0 0 0 0 0 0 0 0 0 0 0 0 0 0 0 0 0 0 0 0 0 0 0 0 0 0 0 0 0 0 0 0 0 0 0 0 0
0.675157 3.10136e-14 3.09978e-14 1.57925e-17 0.000509214 0.000905279 0 0 0 0 0 0 0 0 0 0 0 0 0 0 0 0 0 0 0 0 0 0 0 0 0 0 0 0 0 0 0 0 0 0 0 0 0 0 0 0 0 0
0.709813 2.77996e-14 2.77865e-14 1.31068e-17 0.000471476 0.000823008 0 0 0 0 0 0 0 0 0 0 0 0 0 0 0 0 0 0 0 0 0 0 0 0 0 0 0 0 0 0 0 0 0 0 0 0 0 0 0 0 0 0
0.746248 2.50815e-14 2.50706e-14 1.08985e-17 0.000434525 0.000749481 0 0 0 0 0 0 0 0 0 0 0 0 0 0 0 0 0 0 0 0 0 0 0 0 0 0 0 0 0 0 0 0 0 0 0 0 0 0 0 0 0 0
0.784553 2.27664e-14 2.27573e-14 9.07755e-18 0.000398726 0.000682712 0 0 0 0 0 0 0 0 0 0 0 0 0 0 0 0 0 0 0 0 0 0 0 0 0 0 0 0 0 0 0 0 0 0 0 0 0 0 0 0 0 0
0.824824 2.07791e-14 2.07715e-14 7.57068e-18 0.000364342 0.00062288 0 0 0 0 0 0 0 0 0 0 0 0 0 0 0 0 0 0 0 0 0 0 0 0 0 0 0 0 0 0 0 0 0 0 0 0 0 0 0 0 0 0
0.867162 1.9073e-14 1.90667e-14 6.31936e-18 0.000331325 0.000568948 0 0 0 0 0 0 0 0 0 0 0 0 0 0 0 0 0 0 0 0 0 0 0 0 0 0 0 0 0 0 0 0 0 0 0 0 0 0 0 0 0 0
0.911674 1.77268e-14 1.77215e-14 5.27747e-18 0.000297711 0.000520164 0 0 0 0 0 0 0 0 0 0 0 0 0 0 0 0 0 0 0 0 0 0 0 0 0 0 0 0 0 0 0 0 0 0 0 0 0 0 0 0 0 0
0.95847 1.6901e-14 1.68966e-14 4.40773e-18 0.000260796 0.00047645 0 0 0 0 0 0 0 0 0 0 0 0 0 0 0 0 0 0 0 0 0 0 0 0 0 0 0 0 0 0 0 0 0 0 0 0 0 0 0 0 0 0
1.00767 1.81543e-14 1.81506e-14 3.68082e-18 0.000202752 0.000436759 0 0 0 0 0 0 0 0 0 0 0 0 0 0 0 0 0 0 0 0 0 0 0 0 0 0 0 0 0 0 0 0 0 0 0 0 0 0 0 0 0 0
1.05939 2.34058e-14 2.34027e-14 3.07226e-18 0.000131261 0.00040076 0 0 0 0 0 0 0 0 0 0 0 0 0 0 0 0 0 0 0 0 0 0 0 0 0 0 0 0 0 0 0 0 0 0 0 0 0 0 0 0 0 0
1.11377 1.48782e-14 1.48756e-14 2.5616e-18 0.000172172 0.000367989 0 0 0 0 0 0 0 0 0 0 0 0 0 0 0 0 0 0 0 0 0 0 0 0 0 0 0 0 0 0 0 0 0 0 0 0 0 0 0 0 0 0
1.17094 1.31371e-14 1.3135e-14 2.13492e-18 0.000162511 0.000337397 0 0 0 0 0 0 0 0 0 0 0 0 0 0 0 0 0 0 0 0 0 0 0 0 0 0 0 0 0 0 0 0 0 0 0 0 0 0 0 0 0 0
1.23105 1.3149e-14 1.31472e-14 1.77705e-18 0.000135147 0.000309352 0 0 0 0 0 0 0 0 0 0 0 0 0 0 0 0 0 0 0 0 0 0 0 0 0 0 0 0 0 0 0 0 0 0 0 0 0 0 0 0 0 0
1.29424 1.21008e-14 1.20993e-14 1.47789e-18 0.000122131 0.000283582 0 0 0 0 0 0 0 0 0 0 0 0 0 0 0 0 0 0 0 0 0 0 0 0 0 0 0 0 0 0 0 0 0 0 0 0 0 0 0 0 0 0
1.36067 1.00983e-14 1.00971e-14 1.2277e-18 0.000121575 0.000260109 0 0 0 0 0 0 0 0 0 0 0 0 0 0 0 0 0 0 0 0 0 0 0 0 0 0 0 0 0 0 0 0 0 0 0 0 0 0 0 0 0 0
1.43051 8.88083e-15 8.87981e-15 1.01847e-18 0.000114682 0.000238711 0 0 0 0 0 0 0 0 0 0 0 0 0 0 0 0 0 0 0 0 0 0 0 0 0 0 0 0 0 0 0 0 0 0 0 0 0 0 0 0 0 0
1.50394 8.00362e-15 8.00277e-15 8.44146e-19 0.000105471 0.000218904 0 0 0 0 0 0 0 0 0 0 0 0 0 0 0 0 0 0 0 0 0 0 0 0 0 0 0 0 0 0 0 0 0 0 0 0 0 0 0 0 0 0
1.58114 7.27284e-15 7.27214e-15 6.99004e-19 9.61116e-05 0.000200474 0 0 0 0 0 0 0 0 0 0 0 0 0 0 0 0 0 0 0 0 0 0 0 0 0 0 0 0 0 0 0 0 0 0 0 0 0 0 0 0 0 0
1.6623 6.62552e-15 6.62494e-15 5.78197e-19 8.72682e-05 0.000183383 0 0 0 0 0 0 0 0 0 0 0 0 0 0 0 0 0 0 0 0 0 0 0 0 0 0 0 0 0 0 0 0 0 0 0 0 0 0 0 0 0 0
1.74763 6.03427e-15 6.03379e-15 4.77858e-19 7.91908e-05 0.000167951 0 0 0 0 0 0 0 0 0 0 0 0 0 0 0 0 0 0 0 0 0 0 0 0 0 0 0 0 0 0 0 0 0 0 0 0 0 0 0 0 0 0
1.83733 5.46985e-15 5.46945e-15 3.94582e-19 7.21377e-05 0.000153838 0 0 0 0 0 0 0 0 0 0 0 0 0 0 0 0 0 0 0 0 0 0 0 0 0 0 0 0 0 0 0 0 0 0 0 0 0 0 0 0 0 0
1.93164 4.96092e-15 4.9606e-15 3.25543e-19 6.56214e-05 0.000140908 0 0 0 0 0 0 0 0 0 0 0 0 0 0 0 0 0 0 0 0 0 0 0 0 0 0 0 0 0 0 0 0 0 0 0 0 0 0 0 0 0 0
2.03079 4.56739e-15 4.56712e-15 2.6837e-19 5.87578e-05 0.000128915 0 0 0 0 0 0 0 0 0 0 0 0 0 0 0 0 0 0 0 0 0 0 0 0 0 1.4013e-45 0 1.4013e-45 0 1.4013e-45 0 2.8026e-45 0 2.8026e-45 0 4.2039e-45 0 5.60519e-45 0 7.00649e-45 0 9.80909e-45
2.13503 4.1798e-15 4.17958e-15 2.21117e-19 5.29013e-05 0.000117917 0 0 0 0 0 0 0 0 0 0 0 0 0 1.4013e-45 0 2.8026e-45 0 4.2039e-45 0 8.40779e-45 0 1.26117e-44 0 1.96182e-44 0 2.94273e-44 0 4.2039e-44 0 6.02558e-44 0 8.26766e-44 0 1.13505e-43 0 1.52742e-43 0 2.01787e-43 0 2.63444e-43 0 3.39114e-43
2.24463 3.81463e-15 3.81445e-15 1.8205e-19 4.77242e-05 0.000107892 0 0 0 0 0 1.4013e-45 0 2.8026e-45 0 9.80909e-45 0 2.38221e-44 0 4.90454e-44 0 9.24857e-44 0 1.61149e-43 0 2.67648e-43 0 4.23192e-43 0 6.43196e-43 0 9.47278e-43 0 1.36206e-42 0 1.91137e-42 0 2.62884e-42 0 3.5565e-42 0 4.73639e-42 0 6.21756e-42 0 8.06167e-42 0 1.03416e-41
2.35984 3.47807e-15 3.47792e-15 1.49813e-19 4.30737e-05 9.86729e-05 0 0 0 2.8026e-45 0 2.66247e-44 0 1.09301e-43 0 3.13891e-43 0 7.31478e-43 0 1.48678e-42 0 2.75355e-42 0 4.749e-42 0 7.74217e-42 0 1.20862e-41 0 1.81832e-41 0 2.65378e-41 0 3.7765e-41 0 5.25333e-41 0 7.16764e-41 0 9.61837e-41 0 1.27159e-40 0 1.65769e-40 0 2.13495e-40 0 2.72049e-40
2.48097 3.16962e-15 3.1695e-15 1.23214e-19 3.88735e-05 9.01557e-05 0 1.12104e-44 0 8.68805e-44 0 7.79122e-43 0 3.08286e-42 0 8.58155e-42 0 1.95369e-41 0 3.89911e-41 0 7.10164e-41 0 1.20688e-40 0 1.9428e-40 0 2.997e-40 0 4.46108e-40 0 6.44715e-40 0 9.0892e-40 0 1.2536e-39 0 1.69671e-39 0 2.25928e-39 0 2.96533e-39 0 3.83939e-39 0 4.91264e-39 0 6.2204e-39
2.60832 2.88776e-15 2.88766e-15 1.01295e-19 3.50772e-05 8.228e-05 0 3.41917e-43 0 2.36259e-42 0 1.97905e-41 0 7.53688e-41 0 2.03938e-40 0 4.54054e-40 0 8.89799e-40 0 1.59473e-39 0 2.67218e-39 0 4.24838e-39 0 6.47903e-39 0 9.54487e-39 0 1.36631e-38 0 1.90896e-38 0 2.61107e-38 0 3.50651e-38 0 4.63441e-38 0 6.04018e-38 0 7.7688e-38 0 9.87775e-38 0 1.2431e-37
2.74221 2.63079e-15 2.63071e-15 8.32467e-20 3.16432e-05 7.51145e-05 0 8.67404e-42 0 5.61332e-41 0 4.39556e-40 0 1.61058e-39 0 4.23888e-39 0 9.23374e-39 0 1.77736e-38 0 3.13611e-38 0 5.18351e-38 0 8.14166e-38 0 1.22796e-37 0 1.79091e-37 0 2.53991e-37 0 3.51787e-37 0 4.77302e-37 0 6.36139e-37 0 8.34712e-37 0 1.08051e-36 0 1.3808e-36 0 1.74488e-36 0 2.18294e-36
2.88297 2.39636e-15 2.39629e-15 6.8373e-20 2.85321e-05 6.86418e-05 0 1.91113e-40 0 1.1668e-39 0 8.57054e-39 0 3.02403e-38 0 7.74572e-38 0 1.65164e-37 0 3.12379e-37 0 5.42873e-37 0 8.85416e-37 0 1.37435e-36 0 2.05067e-36 0 2.96159e-36 0 4.16237e-36 0 5.71655e-36 0 7.69543e-36 0 1.01809e-35 0 1.32657e-35 0 1.70587e-35 0 2.16632e-35 0 2.7212e-35 0 3.3849e-35
3.03095 2.18387e-15 2.18381e-15 5.61509e-20 2.57117e-05 6.27596e-05 0 3.67623e-39 0 2.13086e-38 0 1.47419e-37 0 5.01525e-37 0 1.2511e-36 0 2.61282e-36 0 4.85753e-36 0 8.31781e-36 0 1.33915e-35 0 2.0548e-35 0 3.03403e-35 0 4.34013e-35 0 6.04636e-35 0 8.23615e-35 0 1.10028e-34 0 1.44522e-34 0 1.87038e-34 0 2.38973e-34 0 3.01631e-34 0 3.76694e-34 0 4.65969e-34
3.18653 1.9984e-15 1.99835e-15 4.6092e-20 2.30645e-05 5.72968e-05 0 6.21774e-38 0 3.44248e-37 0 2.25352e-36 0 7.40442e-36 0 1.80063e-35 0 3.6854e-35 0 6.73808e-35 0 1.13734e-34 0 1.80817e-34 0 2.74349e-34 0 4.00991e-34 0 5.68308e-34 0 7.84972e-34 0 1.06077e-33 0 1.4066e-33 0 1.83473e-33 0 2.35885e-33 0 2.99502e-33 0 3.75795e-33 0 4.66671e-33 0 5.74158e-33
3.35009 1.87414e-15 1.8741e-15 3.78241e-20 2.01822e-05 5.22747e-05 0 9.4772e-37 0 5.03866e-36 0 3.1359e-35 0 9.97122e-35 0 2.36651e-34 0 4.75053e-34 0 8.54636e-34 0 1.42266e-33 0 2.23432e-33 0 3.35335e-33 0 4.85313e-33 0 6.81638e-33 0 9.33706e-33 0 1.25204e-32 0 1.64827e-32 0 2.13542e-32 0 2.72791e-32 0 3.4426e-32 0 4.29473e-32 0 5.30409e-32 0 6.49159e-32
3.52205 1.65355e-15 1.65352e-15 3.10331e-20 1.87675e-05 4.77106e-05 0 1.20106e-35 0 6.1575e-35 0 3.65975e-34 0 1.12855e-33 0 2.61733e-33 0 5.15751e-33 0 9.1357e-33 0 1.50054e-32 0 2.32902e-32 0 3.45884e-32 0 4.95821e-32 0 6.90337e-32 0 9.38025e-32 0 1.24843e-31 0 1.63204e-31 0 2.10052e-31 0 2.66669e-31 0 3.34553e-31 0 4.15036e-31 0 5.09855e-31 0 6.2083e-31
3.70284 1.50628e-15 1.50625e-15 2.54548e-20 1.68991e-05 4.35332e-05 0 1.397e-34 0 6.92522e-34 0 3.9459e-33 0 1.18251e-32 0 2.68344e-32 0 5.19542e-32 0 9.06737e-32 0 1.47031e-31 0 2.25639e-31 0 3.31711e-31 0 4.7114e-31 0 6.50456e-31 0 8.76966e-31 0 1.15872e-30 0 1.50453e-30 0 1.92408e-30 0 2.42804e-30 0 3.02874e-30 0 3.73703e-30 0 4.56711e-30 1.4013e-45 5.53375e-30
3.89291 1.37405e-15 1.37403e-15 2.08739e-20 1.51915e-05 3.96769e-05 0 1.45601e-33 0 6.98717e-33 0 3.82783e-32 0 1.11692e-31 0 2.48317e-31 0 4.728e-31 0 8.13578e-31 0 1.30314e-30 0 1.97822e-30 0 2.87992e-30 0 4.05429e-30 0 5.55195e-30 0 7.42915e-30 0 9.74746e-30 0 1.25737e-29 0 1.5981e-29 1.4013e-45 2.00495e-29 5.60519e-45 2.48715e-29 1.68156e-44 3.05271e-29 4.62428e-44 3.71214e-29 1.13505e-43 4.47631e-29
4.09273 1.25475e-15 1.25473e-15 1.71151e-20 1.36403e-05 3.60379e-05 0 1.36893e-32 0 6.35638e-32 0 3.35432e-31 0 9.5445e-31 0 2.08126e-30 0 3.90041e-30 0 6.6219e-30 0 1.04828e-29 0 1.57484e-29 0 2.27128e-29 0 3.17027e-29 0 4.30747e-29 1.4013e-45 5.72218e-29 4.2039e-45 7.45717e-29 1.54143e-44 9.55854e-29 5.1848e-44 1.20766e-28 1.58347e-43 1.50659e-28 4.69435e-43 1.85893e-28 1.22053e-42 2.27006e-28 3.11228e-42 2.74705e-28 7.40166e-42 3.29721e-28
4.30281 1.14744e-15 1.14742e-15 1.40308e-20 1.2228e-05 3.27479e-05 0 1.16996e-31 0 5.24587e-31 0 2.66844e-30 0 7.41257e-30 0 1.58683e-29 0 2.92922e-29 0 4.9095e-29 0 7.6852e-29 0 1.14308e-28 0 1.6338e-28 2.8026e-45 2.26182e-28 1.68156e-44 3.05001e-28 7.56701e-44 4.02347e-28 2.99878e-43 5.20928e-28 1.0818e-42 6.63647e-28 3.47382e-42 8.33654e-28 1.00123e-41 1.03435e-27 2.81465e-41 1.26965e-27 6.98884e-41 1.54283e-27 1.70279e-40 1.85826e-27 3.88245e-40 2.22041e-27
4.52368 1.0513e-15 1.05129e-15 1.15023e-20 1.09409e-05 2.97547e-05 0 9.158e-31 0 3.9525e-30 0 1.93723e-29 0 5.25692e-29 0 1.10555e-28 0 2.01137e-28 0 3.32976e-28 0 5.15637e-28 4.2039e-45 7.59615e-28 3.50325e-44 1.07635e-27 2.2701e-43 1.47834e-27 1.12805e-42 1.97905e-27 4.88493e-42 2.59311e-27 1.81244e-41 3.33625e-27 6.14077e-41 4.22522e-27 1.86319e-40 5.27811e-27 5.09959e-40 6.51432e-27 1.36293e-39 7.95617e-27 3.23726e-39 9.62205e-27 7.55184e-39 1.15367e-26 1.65394e-38 1.3725e-26
4.75588 9.66776e-16 9.66767e-16 9.42835e-21 9.75236e-06 2.701e-05 0 6.61915e-30 0 2.73915e-29 0 1.29185e-28 0 3.42513e-28 0 7.07922e-28 0 1.26994e-27 2.8026e-45 2.07737e-27 3.36312e-44 3.18358e-27 3.3491e-43 4.64661e-27 2.36259e-42 6.52916e-27 1.37089e-41 8.89939e-27 6.30837e-41 1.183e-26 2.54388e-40 1.53997e-26 8.85321e-40 1.96924e-26 2.82602e-39 2.47973e-26 8.1223e-39 3.08098e-26 2.11644e-38 3.78321e-26 5.39138e-38 4.59815e-26 1.22761e-37 5.53528e-26 2.74773e-37 6.60746e-26 5.79188e-37 7.82763e-26
5 8.98284e-16 8.98276e-16 7.72666e-21 8.60158e-06 2.43866e-05 0 4.47001e-29 0 1.76689e-28 0 8.0028e-28 0 2.07266e-27 0 4.21087e-27 7.00649e-45 7.45022e-27 1.70958e-43 1.20458e-26 2.21405e-42 1.82738e-26 1.97471e-41 2.64322e-26 1.26696e-40 3.68404e-26 6.7477e-40 4.98431e-26 2.88208e-39 6.58056e-26 1.08572e-38 8.51211e-26 3.55532e-38 1.08207e-25 1.07236e-37 1.35503e-25 2.92725e-37 1.67479e-25 7.27915e-37 2.04634e-25 1.77152e-36 2.47542e-25 3.87489e-36 2.96659e-25 8.33853e-36 3.52608e-25 1.69482e-35 4.1601e-25
5.25665 9.07959e-16 9.07953e-16 6.33191e-21 6.97378e-06 2.20293e-05 0 3.04795e-28 0 1.14735e-27 0 4.97994e-27 0 1.25926e-26 1.26117e-44 2.51466e-26 5.66125e-43 4.38864e-26 1.11431e-41 7.01469e-26 1.27538e-40 1.05361e-25 1.02236e-39 1.51063e-25 5.99051e-39 2.08883e-25 2.9403e-38 2.80572e-25 1.16992e-37 3.67969e-25 4.1309e-37 4.7305e-25 1.2766e-36 5.97894e-25 3.64844e-36 7.4468e-25 9.48272e-36 9.15732e-25 2.25547e-35 1.11351e-24 5.25587e-35 1.34082e-24 1.10652e-34 1.59987e-24 2.29372e-34 1.89368e-24 4.50334e-34 2.22528e-24
