# 0.00013335 0 143 : grain size, compostion index, size index
# Heating and cooling timescale: 0.000131478 5.29124e+07
# Ratio of heating to cooling to determine stochastic cutoff: 100
# Equilibrium emission is recorded even for those grains in the stochastic regime.
# Emission spectrum was computed for: 
# Type: IRSF
# Scales: 0.25 0.5 1 1.5 2 2.5 3 3.5 4 4.5 5 5.5 6 6.5 7 7.5 8 8.5 9 9.5 10
# StochasticallyHeated: 0 0 0 0 0 0 0 0 0 0 0 0 0 0 0 0 0 0 0 0 0
# Temperature: -1
# Wavelength  CExt  CAbs  CSca  Albedo G EqEm1 StEm1 EqEm2 StEm2 EqEm3 StEm3 EqEm4 StEm4 EqEm5 StEm5 EqEm6 StEm6 EqEm7 StEm7 EqEm8 StEm8 EqEm9 StEm9 EqEm10 StEm10 EqEm11 StEm11 EqEm12 StEm12 EqEm13 StEm13 EqEm14 StEm14 EqEm15 StEm15 EqEm16 StEm16 EqEm17 StEm17 EqEm18 StEm18 EqEm19 StEm19 EqEm20 StEm20 EqEm21 StEm21
0.05 2.95543e-08 1.09452e-08 1.8609e-08 0.629656 0.00576547 0 0 0 0 0 0 0 0 0 0 0 0 0 0 0 0 0 0 0 0 0 0 0 0 0 0 0 0 0 0 0 0 0 0 0 0 0 0 0 0 0 0
0.0525665 3.26662e-08 1.20977e-08 2.05685e-08 0.629656 0.00637255 0 0 0 0 0 0 0 0 0 0 0 0 0 0 0 0 0 0 0 0 0 0 0 0 0 0 0 0 0 0 0 0 0 0 0 0 0 0 0 0 0 0
0.0552647 3.61058e-08 1.33716e-08 2.27342e-08 0.629656 0.00704355 0 0 0 0 0 0 0 0 0 0 0 0 0 0 0 0 0 0 0 0 0 0 0 0 0 0 0 0 0 0 0 0 0 0 0 0 0 0 0 0 0 0
0.0581015 3.99075e-08 1.47795e-08 2.5128e-08 0.629656 0.0077852 0 0 0 0 0 0 0 0 0 0 0 0 0 0 0 0 0 0 0 0 0 0 0 0 0 0 0 0 0 0 0 0 0 0 0 0 0 0 0 0 0 0
0.0610839 4.41096e-08 1.63357e-08 2.77739e-08 0.629656 0.00860494 0 0 0 0 0 0 0 0 0 0 0 0 0 0 0 0 0 0 0 0 0 0 0 0 0 0 0 0 0 0 0 0 0 0 0 0 0 0 0 0 0 0
0.0642193 4.87541e-08 1.80558e-08 3.06983e-08 0.629656 0.009511 0 0 0 0 0 0 0 0 0 0 0 0 0 0 0 0 0 0 0 0 0 0 0 0 0 0 0 0 0 0 0 0 0 0 0 0 0 0 0 0 0 0
0.0675157 5.38877e-08 1.9957e-08 3.39307e-08 0.629656 0.0105125 0 0 0 0 0 0 0 0 0 0 0 0 0 0 0 0 0 0 0 0 0 0 0 0 0 0 0 0 0 0 0 0 0 0 0 0 0 0 0 0 0 0
0.0709813 5.95618e-08 2.20584e-08 3.75035e-08 0.629656 0.0116194 0 0 0 0 0 0 0 0 0 0 0 0 0 0 0 0 0 0 0 0 0 0 0 0 0 0 0 0 0 0 0 0 0 0 0 0 0 0 0 0 0 0
0.0746248 6.58334e-08 2.4381e-08 4.14524e-08 0.629656 0.0128428 0 0 0 0 0 0 0 0 0 0 0 0 0 0 0 0 0 0 0 0 0 0 0 0 0 0 0 0 0 0 0 0 0 0 0 0 0 0 0 0 0 0
0.0784553 7.27653e-08 2.69482e-08 4.58171e-08 0.629656 0.0141951 0 0 0 0 0 0 0 0 0 0 0 0 0 0 0 0 0 0 0 0 0 0 0 0 0 0 0 0 0 0 0 0 0 0 0 0 0 0 0 0 0 0
0.0824824 8.04272e-08 2.97857e-08 5.06414e-08 0.629656 0.0156898 0 0 0 0 0 0 0 0 0 0 0 0 0 0 0 0 0 0 0 0 0 0 0 0 0 0 0 0 0 0 0 0 0 0 0 0 0 0 0 0 0 0
0.0867162 8.88958e-08 3.2922e-08 5.59738e-08 0.629656 0.0173419 0 0 0 0 0 0 0 0 0 0 0 0 0 0 0 0 0 0 0 0 0 0 0 0 0 0 0 0 0 0 0 0 0 0 0 0 0 0 0 0 0 0
0.0911674 9.82561e-08 3.63886e-08 6.18675e-08 0.629656 0.0191679 0 0 0 0 0 0 0 0 0 0 0 0 0 0 0 0 0 0 0 0 0 0 0 0 0 0 0 0 0 0 0 0 0 0 0 0 0 0 0 0 0 0
0.095847 1.08602e-07 4.02201e-08 6.83819e-08 0.629656 0.0211862 0 0 0 0 0 0 0 0 0 0 0 0 0 0 0 0 0 0 0 0 0 0 0 0 0 0 0 0 0 0 0 0 0 0 0 0 0 0 0 0 0 0
0.100767 1.18203e-07 4.41204e-08 7.40829e-08 0.626742 0.0235692 0 0 0 0 0 0 0 0 0 0 0 0 0 0 0 0 0 0 0 0 0 0 0 0 0 0 0 0 0 0 0 0 0 0 0 0 0 0 0 0 0 0
0.105939 1.18166e-07 4.60323e-08 7.21341e-08 0.610445 0.0256046 0 0 0 0 0 0 0 0 0 0 0 0 0 0 0 0 0 0 0 0 0 0 0 0 0 0 0 0 0 0 0 0 0 0 0 0 0 0 0 0 0 0
0.111377 1.18296e-07 4.65082e-08 7.17874e-08 0.606847 0.0289403 0 0 0 0 0 0 0 0 0 0 0 0 0 0 0 0 0 0 0 0 0 0 0 0 0 0 0 0 0 0 0 0 0 0 0 0 0 0 0 0 0 0
0.117094 1.18258e-07 4.81167e-08 7.01412e-08 0.593121 0.0274507 0 0 0 0 0 0 0 0 0 0 0 0 0 0 0 0 0 0 0 0 0 0 0 0 0 0 0 0 0 0 0 0 0 0 0 0 0 0 0 0 0 0
0.123105 1.18327e-07 4.99982e-08 6.8329e-08 0.577458 0.0236555 0 0 0 0 0 0 0 0 0 0 0 0 0 0 0 0 0 0 0 0 0 0 0 0 0 0 0 0 0 0 0 0 0 0 0 0 0 0 0 0 0 0
0.129424 1.18478e-07 5.14653e-08 6.70126e-08 0.565613 0.0199126 0 0 0 0 0 0 0 0 0 0 0 0 0 0 0 0 0 0 0 0 0 0 0 0 0 0 0 0 0 0 0 0 0 0 0 0 0 0 0 0 0 0
0.136067 1.1864e-07 5.26467e-08 6.5993e-08 0.556247 0.0168557 0 0 0 0 0 0 0 0 0 0 0 0 0 0 0 0 0 0 0 0 0 0 0 0 0 0 0 0 0 0 0 0 0 0 0 0 0 0 0 0 0 0
0.143051 1.18782e-07 5.36457e-08 6.51359e-08 0.548367 0.0143876 0 0 0 0 0 0 0 0 0 0 0 0 0 0 0 0 0 0 0 0 0 0 0 0 0 0 0 0 0 0 0 0 0 0 0 0 0 0 0 0 0 0
0.150394 1.1886e-07 5.44653e-08 6.43952e-08 0.541772 0.0122986 0 0 0 0 0 0 0 0 0 0 0 0 0 0 0 0 0 0 0 0 0 0 0 0 0 0 0 0 0 0 0 0 0 0 0 0 0 0 0 0 0 0
0.158114 1.18817e-07 5.49826e-08 6.38346e-08 0.537251 0.01055 0 0 0 0 0 0 0 0 0 0 0 0 0 0 0 0 0 0 0 0 0 0 0 0 0 0 0 0 0 0 0 0 0 0 0 0 0 0 0 0 0 0
0.16623 1.18642e-07 5.49293e-08 6.37126e-08 0.537016 0.00908216 0 0 0 0 0 0 0 0 0 0 0 0 0 0 0 0 0 0 0 0 0 0 0 0 0 0 0 0 0 0 0 0 0 0 0 0 0 0 0 0 0 0
0.174762 1.18508e-07 5.40892e-08 6.44184e-08 0.54358 0.00782097 0 0 0 0 0 0 0 0 0 0 0 0 0 0 0 0 0 0 0 0 0 0 0 0 0 0 0 0 0 0 0 0 0 0 0 0 0 0 0 0 0 0
0.183733 1.18666e-07 5.2269e-08 6.63973e-08 0.55953 0.00667218 0 0 0 0 0 0 0 0 0 0 0 0 0 0 0 0 0 0 0 0 0 0 0 0 0 0 0 0 0 0 0 0 0 0 0 0 0 0 0 0 0 0
0.193164 1.19354e-07 4.93028e-08 7.00514e-08 0.58692 0.00556038 0 0 0 0 0 0 0 0 0 0 0 0 0 0 0 0 0 0 0 0 0 0 0 0 0 0 0 0 0 0 0 0 0 0 0 0 0 0 0 0 0 0
0.203079 1.20491e-07 4.57922e-08 7.46992e-08 0.619955 0.00446034 0 0 0 0 0 0 0 0 0 0 0 0 0 0 0 0 0 0 0 0 0 0 0 0 0 0 0 0 0 0 0 0 0 0 0 0 0 0 0 0 0 0
0.213503 1.21884e-07 4.27509e-08 7.91336e-08 0.649251 0.00342932 0 0 0 0 0 0 0 0 0 0 0 0 0 0 0 0 0 0 0 0 0 0 0 0 0 0 0 0 0 0 0 0 0 0 0 0 0 0 0 0 0 0
0.224463 1.23389e-07 4.08468e-08 8.25426e-08 0.66896 0.00254317 0 0 0 0 0 0 0 0 0 0 0 0 0 0 0 0 0 0 0 0 0 0 0 0 0 0 0 0 0 0 0 0 0 0 0 0 0 0 0 0 0 0
0.235984 1.24804e-07 4.01175e-08 8.46862e-08 0.678555 0.00182186 0 0 0 0 0 0 0 0 0 0 0 0 0 0 0 0 0 0 0 0 0 0 0 0 0 0 0 0 0 0 0 0 0 0 0 0 0 0 0 0 0 0
0.248097 1.25818e-07 4.0217e-08 8.56013e-08 0.680357 0.00138916 0 0 0 0 0 0 0 0 0 0 0 0 0 0 0 0 0 0 0 0 0 0 0 0 0 0 0 0 0 0 0 0 0 0 0 0 0 0 0 0 0 0
0.260832 1.2612e-07 4.0903e-08 8.5217e-08 0.675682 0.00141961 0 0 0 0 0 0 0 0 0 0 0 0 0 0 0 0 0 0 0 0 0 0 0 0 0 0 0 0 0 0 0 0 0 0 0 0 0 0 0 0 0 0
0.274221 1.25728e-07 4.21496e-08 8.35786e-08 0.664756 0.00187131 0 0 0 0 0 0 0 0 0 0 0 0 0 0 0 0 0 0 0 0 0 0 0 0 0 0 0 0 0 0 0 0 0 0 0 0 0 0 0 0 0 0
0.288297 1.25144e-07 4.38791e-08 8.12645e-08 0.64937 0.00251556 0 0 0 0 0 0 0 0 0 0 0 0 0 0 0 0 0 0 0 0 0 0 0 0 0 0 0 0 0 0 0 0 0 0 0 0 0 0 0 0 0 0
0.303095 1.24835e-07 4.57258e-08 7.91088e-08 0.633709 0.0028362 0 0 0 0 0 0 0 0 0 0 0 0 0 0 0 0 0 0 0 0 0 0 0 0 0 0 0 0 0 0 0 0 0 0 0 0 0 0 0 0 0 0
0.318653 1.24849e-07 4.73496e-08 7.74996e-08 0.620746 0.00297223 0 0 0 0 0 0 0 0 0 0 0 0 0 0 0 0 0 0 0 0 0 0 0 0 0 0 0 0 0 0 0 0 0 0 0 0 0 0 0 0 0 0
0.335009 1.2508e-07 4.86258e-08 7.64545e-08 0.611243 0.00293231 0 0 0 0 0 0 0 0 0 0 0 0 0 0 0 0 0 0 0 0 0 0 0 0 0 0 0 0 0 0 0 0 0 0 0 0 0 0 0 0 0 0
0.352205 1.25433e-07 4.95684e-08 7.58641e-08 0.60482 0.00278811 0 0 0 0 0 0 0 0 0 0 0 0 0 0 0 0 0 0 0 0 0 0 0 0 0 0 0 0 0 0 0 0 0 0 0 0 0 0 0 0 0 0
0.370284 1.25859e-07 5.02359e-08 7.56233e-08 0.600856 0.00261033 0 0 0 0 0 0 0 0 0 0 0 0 0 0 0 0 0 0 0 0 0 0 0 0 0 0 0 0 0 0 0 0 0 0 0 0 0 0 0 0 0 0
0.389291 1.26322e-07 5.06975e-08 7.56244e-08 0.598664 0.00243645 0 0 0 0 0 0 0 0 0 0 0 0 0 0 0 0 0 0 0 0 0 0 0 0 0 0 0 0 0 0 0 0 0 0 0 0 0 0 0 0 0 0
0.409273 1.26806e-07 5.1033e-08 7.57725e-08 0.597549 0.00226652 0 0 0 0 0 0 0 0 0 0 0 0 0 0 0 0 0 0 0 0 0 0 0 0 0 0 0 0 0 0 0 0 0 0 0 0 0 0 0 0 0 0
0.430281 1.27294e-07 5.1306e-08 7.59881e-08 0.596949 0.00210471 0 0 0 0 0 0 0 0 0 0 0 0 0 0 0 0 0 0 0 0 0 0 0 0 0 0 0 0 0 0 0 0 0 0 0 0 0 0 0 0 0 0
0.452368 1.27782e-07 5.15653e-08 7.62172e-08 0.59646 0.00193723 0 0 0 0 0 0 0 0 0 0 0 0 0 0 0 0 0 0 0 0 0 0 0 0 0 0 0 0 0 0 0 0 0 0 0 0 0 0 0 0 0 0
0.475588 1.28273e-07 5.18371e-08 7.64361e-08 0.595885 0.00177642 0 0 0 0 0 0 0 0 0 0 0 0 0 0 0 0 0 0 0 0 0 0 0 0 0 0 0 0 0 0 0 0 0 0 0 0 0 0 0 0 0 0
0.5 1.2877e-07 5.21315e-08 7.66388e-08 0.595159 0.00162159 0 0 0 0 0 0 0 0 0 0 0 0 0 0 0 0 0 0 0 0 0 0 0 0 0 0 0 0 0 0 0 0 0 0 0 0 0 0 0 0 0 0
0.525665 1.29282e-07 5.24481e-08 7.68343e-08 0.594313 0.0014751 0 0 0 0 0 0 0 0 0 0 0 0 0 0 0 0 0 0 0 0 0 0 0 0 0 0 0 0 0 0 0 0 0 0 0 0 0 0 0 0 0 0
0.552648 1.29813e-07 5.27805e-08 7.70328e-08 0.593412 0.00134175 0 0 0 0 0 0 0 0 0 0 0 0 0 0 0 0 0 0 0 0 0 0 0 0 0 0 0 0 0 0 0 0 0 0 0 0 0 0 0 0 0 0
0.581015 1.30363e-07 5.31189e-08 7.72443e-08 0.592531 0.00121775 0 0 0 0 0 0 0 0 0 0 0 0 0 0 0 0 0 0 0 0 0 0 0 0 0 0 0 0 0 0 0 0 0 0 0 0 0 0 0 0 0 0
0.610839 1.30942e-07 5.34552e-08 7.74865e-08 0.591763 0.00110516 0 0 0 0 0 0 0 0 0 0 0 0 0 0 0 0 0 0 0 0 0 0 0 0 0 0 0 0 0 0 0 0 0 0 0 0 0 0 0 0 0 0
0.642193 1.31545e-07 5.37834e-08 7.77613e-08 0.59114 0.00100302 0 0 0 0 0 0 0 0 0 0 0 0 0 0 0 0 0 0 0 0 0 0 0 0 0 0 0 0 0 0 0 0 0 0 0 0 0 0 0 0 0 0
0.675157 1.32172e-07 5.40951e-08 7.80767e-08 0.590721 0.000910957 0 0 0 0 0 0 0 0 0 0 0 0 0 0 0 0 0 0 0 0 0 0 0 0 0 0 0 0 0 0 0 0 0 0 0 0 0 0 0 0 0 0
0.709813 1.32824e-07 5.43893e-08 7.84345e-08 0.590515 0.00082817 0 0 0 0 0 0 0 0 0 0 0 0 0 0 0 0 0 0 0 0 0 0 0 0 0 0 0 0 0 0 0 0 0 0 0 0 0 0 0 0 0 0
0.746248 1.33501e-07 5.46615e-08 7.88393e-08 0.590553 0.000754183 0 0 0 0 0 0 0 0 0 0 0 0 0 0 0 0 0 0 0 0 0 0 0 0 0 0 0 0 0 0 0 0 0 0 0 0 0 0 0 0 0 0
0.784553 1.34194e-07 5.49114e-08 7.92824e-08 0.590805 0.000686995 0 0 0 0 0 0 0 0 0 0 0 0 0 0 0 0 0 0 0 0 0 0 0 0 0 0 0 0 0 0 0 0 0 0 0 0 0 0 0 0 0 0
0.824824 1.34903e-07 5.51396e-08 7.97638e-08 0.591266 0.000626788 0 0 0 0 0 0 0 0 0 0 0 0 0 0 0 0 0 0 0 0 0 0 0 0 0 0 0 0 0 0 0 0 0 0 0 0 0 0 0 0 0 0
0.867162 1.35629e-07 5.5346e-08 8.02831e-08 0.591931 0.000572518 0 0 0 0 0 0 0 0 0 0 0 0 0 0 0 0 0 0 0 0 0 0 0 0 0 0 0 0 0 0 0 0 0 0 0 0 0 0 0 0 0 0
0.911674 1.36366e-07 5.55331e-08 8.08329e-08 0.592764 0.000523427 0 0 0 0 0 0 0 0 0 0 0 0 0 0 0 0 0 0 0 0 0 0 0 0 0 0 0 0 0 0 0 0 0 0 0 0 0 0 0 0 0 0
0.95847 1.37106e-07 5.57003e-08 8.14052e-08 0.593741 0.00047944 0 0 0 0 0 0 0 0 0 0 0 0 0 0 0 0 0 0 0 0 0 0 0 0 0 0 0 0 0 0 0 0 0 0 0 0 0 0 0 0 0 0
1.00767 1.37849e-07 5.58529e-08 8.19964e-08 0.594826 0.0004395 0 0 0 0 0 0 0 0 0 0 0 0 0 0 0 0 0 0 0 0 0 0 0 0 0 0 0 0 0 0 0 0 0 0 0 0 0 0 0 0 0 0
1.05939 1.38589e-07 5.59895e-08 8.25993e-08 0.596003 0.000403275 0 0 0 0 0 0 0 0 0 0 0 0 0 0 0 0 0 0 0 0 0 0 0 0 0 0 0 0 0 0 0 0 0 0 0 0 0 0 0 0 0 0
1.11377 1.39335e-07 5.61188e-08 8.32165e-08 0.597239 0.000370298 0 0 0 0 0 0 0 0 0 0 0 0 0 0 0 0 0 0 0 0 0 0 0 0 0 0 0 0 0 0 0 0 0 0 0 0 0 0 0 0 0 0
1.17094 1.40068e-07 5.62359e-08 8.38317e-08 0.598509 0.000339515 0 0 0 0 0 0 0 0 0 0 0 0 0 0 0 0 0 0 0 0 0 0 0 0 0 0 0 0 0 0 0 0 0 0 0 0 0 0 0 0 0 0
1.23105 1.40794e-07 5.63404e-08 8.44541e-08 0.599839 0.000311294 0 0 0 0 0 0 0 0 0 0 0 0 0 0 0 0 0 0 0 0 0 0 0 0 0 0 0 0 0 0 0 0 0 0 0 0 0 0 0 0 0 0
1.29424 1.41524e-07 5.6454e-08 8.50702e-08 0.6011 0.000285362 0 0 0 0 0 0 0 0 0 0 0 0 0 0 0 0 0 0 0 0 0 0 0 0 0 0 0 0 0 0 0 0 0 0 0 0 0 0 0 0 0 0
1.36067 1.42225e-07 5.65527e-08 8.56726e-08 0.602372 0.000261742 0 0 0 0 0 0 0 0 0 0 0 0 0 0 0 0 0 0 0 0 0 0 0 0 0 0 0 0 0 0 0 0 0 0 0 0 0 0 0 0 0 0
1.43051 1.42926e-07 5.66468e-08 8.62793e-08 0.603664 0.000240209 0 0 0 0 0 0 0 0 0 0 0 0 0 0 0 0 0 0 0 0 0 0 0 0 0 0 0 0 0 0 0 0 0 0 0 0 0 0 0 0 0 0
1.50394 1.43645e-07 5.67737e-08 8.68711e-08 0.604763 0.000220279 0 0 0 0 0 0 0 0 0 0 0 0 0 0 0 0 0 0 0 0 0 0 0 0 0 0 0 0 0 0 0 0 0 0 0 0 0 0 0 0 0 0
1.58114 1.44307e-07 5.68822e-08 8.74252e-08 0.605826 0.000201732 0 0 0 0 0 0 0 0 0 0 0 0 0 0 0 0 0 0 0 0 0 0 0 0 0 0 0 0 0 0 0 0 0 0 0 0 0 0 0 0 0 0
1.6623 1.44959e-07 5.69704e-08 8.79887e-08 0.60699 0.000184534 0 0 0 0 0 0 0 0 0 0 0 0 0 0 0 0 0 0 0 0 0 0 0 0 0 0 0 0 0 0 0 0 0 0 0 0 0 0 0 0 0 0
1.74763 1.45677e-07 5.71229e-08 8.85541e-08 0.60788 0.000169005 0 0 0 0 0 0 0 0 0 0 0 0 0 0 0 0 0 0 0 0 0 0 0 0 0 0 0 0 0 0 0 0 0 0 0 0 0 0 0 0 0 0
1.83733 1.46355e-07 5.73013e-08 8.90538e-08 0.608477 0.000154804 0 0 0 0 0 0 0 0 0 0 0 0 0 0 0 0 0 0 0 0 0 0 0 0 0 0 0 0 0 0 0 0 0 0 0 0 0 0 0 0 0 0
1.93164 1.46939e-07 5.74225e-08 8.95162e-08 0.609208 0.000141793 0 0 0 0 0 0 0 0 0 0 0 0 0 0 0 0 0 0 0 0 0 0 0 0 0 0 0 0 0 0 0 0 0 0 0 0 0 0 0 0 0 0
2.03079 1.4757e-07 5.75446e-08 9.00249e-08 0.610051 0.000129725 0 0 0 0 0 0 0 0 0 0 0 0 0 0 0 0 0 0 0 0 0 0 0 0 0 0 0 0 0 0 0 0 0 0 0 0 0 0 0 0 0 0
2.13503 1.48331e-07 5.77838e-08 9.05475e-08 0.610441 0.000118657 0 0 0 0 0 0 0 0 0 0 0 0 0 0 0 0 0 0 0 0 0 0 0 0 0 0 0 0 0 0 0 0 0 0 0 0 0 0 0 0 0 0
2.24463 1.4906e-07 5.80905e-08 9.09698e-08 0.610288 0.000108569 0 0 0 0 0 0 0 0 0 0 0 0 0 0 0 0 0 0 0 0 0 0 0 0 0 0 0 0 0 0 0 0 0 0 0 0 0 0 0 0 0 0
2.35984 1.49605e-07 5.83264e-08 9.12784e-08 0.61013 9.92926e-05 0 0 0 0 0 0 0 0 0 0 0 0 0 0 0 0 0 0 0 0 0 0 0 0 0 0 0 0 0 0 0 0 0 0 0 0 0 0 0 0 0 0
2.48097 1.50083e-07 5.84709e-08 9.16117e-08 0.610409 9.07218e-05 0 0 0 0 0 0 0 0 0 0 0 0 0 0 0 0 0 0 0 0 0 0 0 0 0 0 0 0 0 0 0 0 0 0 0 0 0 0 0 0 0 0
2.60832 1.50753e-07 5.86824e-08 9.20702e-08 0.610737 8.27967e-05 0 0 0 0 0 0 0 0 0 0 0 0 0 0 0 0 0 0 0 0 0 0 0 0 0 0 0 0 0 0 0 0 0 0 0 0 0 0 0 0 0 0
2.74221 1.51669e-07 5.90913e-08 9.25774e-08 0.610392 7.55862e-05 0 0 0 0 0 0 0 0 0 0 0 0 0 0 0 0 0 0 0 0 0 0 0 0 0 0 0 0 0 0 0 0 0 0 0 0 0 0 0 0 0 0
2.88297 1.52584e-07 5.96434e-08 9.29409e-08 0.609111 6.90729e-05 0 0 0 0 0 0 0 0 0 0 0 0 0 0 0 0 0 0 0 0 0 0 0 0 0 0 0 0 0 0 0 0 0 0 0 0 0 0 0 0 0 0
3.03095 1.5321e-07 6.01497e-08 9.30604e-08 0.607404 6.31538e-05 0 0 0 0 0 0 0 0 0 0 0 0 0 0 0 0 0 0 0 0 0 0 0 0 0 0 0 0 0 0 0 0 0 0 0 0 0 0 0 0 0 0
3.18653 1.53505e-07 6.04744e-08 9.30302e-08 0.606041 5.76567e-05 0 0 0 0 0 0 0 0 0 0 0 0 0 0 0 0 0 0 0 0 0 0 0 0 0 0 0 0 0 0 0 0 0 0 0 0 0 0 0 0 0 0
3.35009 1.53748e-07 6.06697e-08 9.3078e-08 0.605394 5.2603e-05 0 0 0 0 0 0 0 0 0 0 0 0 0 0 0 0 0 0 0 0 0 0 0 0 0 0 0 0 0 0 0 0 0 0 0 0 0 0 0 0 0 0
3.52205 1.54305e-07 6.09275e-08 9.33774e-08 0.605149 4.80102e-05 0 0 0 0 0 0 0 0 0 0 0 0 0 0 0 0 0 0 0 0 0 0 0 0 0 0 0 0 0 0 0 0 0 0 0 0 0 0 0 0 0 0
3.70284 1.55342e-07 6.14395e-08 9.39028e-08 0.60449 4.38066e-05 0 0 0 0 0 0 0 0 0 0 0 0 0 0 0 0 0 0 0 0 0 0 0 0 0 0 0 0 0 0 0 0 0 0 0 0 0 0 0 0 0 0
3.89291 1.56716e-07 6.22636e-08 9.44524e-08 0.602698 3.9926e-05 0 0 0 0 0 0 0 0 0 0 0 0 0 0 0 0 0 0 0 0 0 0 0 0 0 0 0 0 0 0 0 0 0 0 0 0 0 0 0 0 0 0
4.09273 1.5805e-07 6.32942e-08 9.47554e-08 0.59953 3.62643e-05 0 0 0 0 0 0 0 0 0 0 0 0 0 0 0 0 0 0 0 0 0 0 0 0 0 0 0 0 0 0 0 0 0 0 0 0 0 0 0 0 0 0
4.30281 1.58954e-07 6.43281e-08 9.46258e-08 0.595303 3.29535e-05 0 0 0 0 0 0 0 0 0 0 0 0 0 0 0 0 0 0 0 0 0 0 0 0 0 0 0 0 0 0 0 0 0 0 0 0 0 0 0 0 0 0
4.52368 1.59177e-07 6.51468e-08 9.40298e-08 0.590726 2.99416e-05 0 0 0 0 0 0 0 0 0 0 0 0 0 0 0 0 0 0 0 0 0 0 0 0 0 0 0 0 0 0 0 0 0 0 0 0 0 0 0 0 0 0
4.75588 1.58753e-07 6.56232e-08 9.31296e-08 0.586633 2.71796e-05 0 0 0 0 0 0 0 0 0 0 0 0 0 0 0 0 0 0 0 0 0 0 0 0 0 0 0 0 0 0 0 0 0 0 0 0 0 0 0 0 0 0
5 1.58019e-07 6.57817e-08 9.22372e-08 0.58371 2.45398e-05 0 0 0 0 0 0 0 0 0 0 0 0 0 0 0 0 0 0 0 0 0 0 0 0 0 0 0 0 0 0 0 0 0 0 0 0 0 0 0 0 0 0
5.25665 1.5753e-07 6.57953e-08 9.17351e-08 0.582332 2.21678e-05 0 0 0 0 0 0 0 0 0 0 0 0 0 0 0 0 0 0 0 0 0 0 0 0 0 0 0 0 0 0 0 0 0 0 0 0 0 0 0 0 0 0
5.52648 1.57818e-07 6.59096e-08 9.19079e-08 0.582368 2.00489e-05 0 0 0 0 0 0 0 0 0 0 0 0 0 0 0 0 0 0 0 0 0 0 0 0 0 0 0 0 0 0 0 0 0 0 0 0 0 0 0 0 0 0
5.81015 1.59126e-07 6.63219e-08 9.28044e-08 0.583212 1.8115e-05 0 0 0 0 0 0 0 0 0 0 0 0 0 0 0 0 0 0 0 0 0 0 0 0 0 0 0 0 0 0 0 0 0 0 0 0 0 0 0 0 0 0
6.10839 1.61298e-07 6.71127e-08 9.41849e-08 0.58392 1.63023e-05 0 0 0 0 0 0 0 0 0 0 0 0 0 0 0 0 0 0 0 0 0 0 0 0 0 0 0 0 0 0 0 0 0 0 0 0 0 0 0 0 0 0
6.42193 1.63935e-07 6.86003e-08 9.53342e-08 0.581538 1.48144e-05 0 0 0 0 0 0 0 0 0 0 0 0 0 0 0 0 0 0 0 0 0 0 0 0 0 0 0 0 0 0 0 0 0 0 0 0 0 0 0 0 0 0
6.75157 1.65898e-07 7.0074e-08 9.58239e-08 0.577607 1.32279e-05 0 0 0 0 0 0 0 0 0 0 0 0 0 0 0 0 0 0 0 0 0 0 0 0 0 0 0 0 0 0 0 0 0 0 0 0 1.4013e-45 0 4.2039e-45 0 9.80909e-45 0
7.09813 1.66732e-07 7.18123e-08 9.49201e-08 0.569296 1.18448e-05 0 0 0 0 0 0 0 0 0 0 0 0 0 0 0 0 0 0 0 0 0 0 0 0 0 0 0 0 2.8026e-45 0 8.40779e-45 0 2.8026e-44 0 8.68805e-44 0 2.53635e-43 0 6.76827e-43 0 1.725e-42 0
7.46248 1.66004e-07 7.35704e-08 9.24338e-08 0.556816 1.05694e-05 0 0 0 0 0 0 0 0 0 0 0 0 0 0 0 0 0 0 0 0 1.4013e-45 0 4.2039e-45 0 2.38221e-44 0 1.03696e-43 0 4.13383e-43 0 1.43773e-42 0 4.56543e-42 0 1.32829e-41 0 3.66776e-41 0 9.35129e-41 0 2.27582e-40 0
7.84553 1.63862e-07 7.53185e-08 8.85439e-08 0.540355 9.34187e-06 0 0 0 0 0 0 0 0 0 0 0 0 0 0 0 0 1.4013e-45 0 1.96182e-44 0 1.38729e-43 0 7.95938e-43 0 3.7765e-42 0 1.5532e-41 0 5.77265e-41 0 1.89172e-40 0 5.67697e-40 0 1.56776e-39 0 4.11947e-39 0 1.00337e-38 0 2.33813e-38 0
8.24824 1.61023e-07 7.72097e-08 8.38129e-08 0.520504 8.19911e-06 0 0 0 0 0 0 0 0 0 0 0 0 1.4013e-45 0 3.22299e-44 0 3.69943e-43 0 3.16553e-42 0 2.0274e-41 0 1.06741e-40 0 4.69321e-40 0 1.80155e-39 0 6.28001e-39 0 1.9421e-38 0 5.52369e-38 0 1.45162e-37 0 3.63856e-37 0 8.4854e-37 0 1.89733e-36 0
8.67162 1.58407e-07 7.94481e-08 7.89591e-08 0.498457 7.20916e-06 0 0 0 0 0 0 0 0 0 0 1.12104e-44 0 3.22299e-43 0 5.09372e-42 0 5.12062e-41 0 3.93888e-40 0 2.30442e-39 0 1.11877e-38 0 4.57591e-38 0 1.64487e-37 0 5.3947e-37 0 1.57885e-36 0 4.26711e-36 0 1.06972e-35 0 2.56367e-35 0 5.73653e-35 0 1.23327e-34 0
9.11674 1.56667e-07 8.20067e-08 7.46605e-08 0.476555 6.32492e-06 0 0 0 0 0 0 0 0 3.22299e-44 0 1.82169e-42 0 4.4494e-41 0 6.14539e-40 0 5.52024e-39 0 3.84367e-38 0 2.0629e-37 0 9.27158e-37 0 3.54017e-36 0 1.1955e-35 0 3.69998e-35 0 1.02755e-34 0 2.64554e-34 0 6.34106e-34 0 1.4562e-33 0 3.13279e-33 0 6.48798e-33 0
9.5847 1.55641e-07 8.43617e-08 7.12792e-08 0.457972 5.52644e-06 0 0 0 0 0 0 2.8026e-44 0 4.92977e-42 0 2.27902e-40 0 4.76231e-39 0 5.78617e-38 0 4.66928e-37 0 2.95726e-36 0 1.46216e-35 0 6.10664e-35 0 2.18406e-34 0 6.94998e-34 0 2.03554e-33 0 5.37802e-33 0 1.32215e-32 0 3.03665e-32 0 6.69614e-32 0 1.38768e-31 0 2.77352e-31 0
10.0767 1.54069e-07 8.54898e-08 6.85791e-08 0.44512 4.78203e-06 0 0 0 0 2.8026e-45 0 4.28657e-42 0 5.72426e-40 0 2.19475e-38 0 3.95371e-37 0 4.25231e-36 0 3.0989e-35 0 1.79353e-34 0 8.20205e-34 0 3.19463e-33 0 1.07364e-32 0 3.22876e-32 0 8.97314e-32 0 2.26093e-31 0 5.31952e-31 0 1.17315e-30 0 2.48896e-30 0 4.97774e-30 0 9.61811e-30 0
10.5939 1.50069e-07 8.44521e-08 6.56173e-08 0.437246 4.06995e-06 0 0 0 0 4.45613e-43 0 4.82899e-40 0 5.07844e-38 0 1.62958e-36 0 2.54912e-35 0 2.44142e-34 0 1.61477e-33 0 8.57792e-33 0 3.64219e-32 0 1.32749e-31 0 4.20501e-31 0 1.19838e-30 0 3.16834e-30 0 7.63095e-30 0 1.72196e-29 0 3.6537e-29 0 7.47218e-29 0 1.44466e-28 0 2.70307e-28 0
11.1377 1.42767e-07 8.1376e-08 6.13913e-08 0.43001 3.40803e-06 0 0 0 0 5.39612e-41 0 4.16003e-38 0 3.48541e-36 0 9.44177e-35 0 1.29139e-33 0 1.10765e-32 0 6.68051e-32 0 3.27093e-31 0 1.29417e-30 0 4.42829e-30 0 1.32594e-29 0 3.59043e-29 0 9.05248e-29 0 2.0887e-28 0 4.52964e-28 0 9.26453e-28 0 1.82965e-27 0 3.42536e-27 0 6.21602e-27 0
11.7094 1.30096e-07 7.64116e-08 5.36843e-08 0.412652 2.82232e-06 0 0 3.78351e-44 0 4.9714e-39 0 2.77035e-36 0 1.8698e-34 0 4.31162e-33 0 5.19014e-32 0 4.00824e-31 0 2.21442e-30 0 1.00332e-29 0 3.7119e-29 0 1.19607e-28 0 3.39462e-28 0 8.75571e-28 0 2.1101e-27 0 4.67395e-27 0 9.76015e-27 0 1.92772e-26 0 3.68263e-26 0 6.68652e-26 0 1.17861e-25 0
12.3105 1.21471e-07 7.42435e-08 4.72279e-08 0.388799 2.20615e-06 0 0 5.05729e-42 0 3.74247e-37 0 1.53158e-34 0 8.4157e-33 0 1.66493e-31 0 1.77492e-30 0 1.24053e-29 0 6.3048e-29 0 2.65347e-28 0 9.20938e-28 0 2.80273e-27 0 7.55956e-27 0 1.86168e-26 0 4.29799e-26 0 9.15763e-26 0 1.84477e-25 0 3.52451e-25 0 6.52361e-25 0 1.15049e-24 0 1.97258e-24 0
12.9424 1.13414e-07 7.36424e-08 3.97712e-08 0.350674 1.60871e-06 2.8026e-45 0 5.36682e-40 0 2.29756e-35 0 7.01005e-33 0 3.16752e-31 0 5.41668e-30 0 5.14441e-29 0 3.26991e-28 0 1.53507e-27 0 6.02277e-27 0 1.96711e-26 0 5.66995e-26 0 1.45699e-25 0 3.43363e-25 0 7.60981e-25 0 1.56261e-24 0 3.04202e-24 0 5.63106e-24 0 1.0114e-23 0 1.73496e-23 0 2.8974e-23 0
13.6067 1.07489e-07 7.46507e-08 3.28383e-08 0.305504 1.1081e-06 5.29691e-43 0 4.57727e-38 0 1.16419e-33 0 2.68645e-31 0 1.0078e-29 0 1.50033e-28 0 1.27661e-27 0 7.41386e-27 0 3.22735e-26 0 1.18448e-25 0 3.65144e-25 0 9.99466e-25 0 2.45263e-24 0 5.54312e-24 0 1.18168e-23 0 2.34272e-23 0 4.41474e-23 0 7.93007e-23 0 1.38418e-22 0 2.31268e-22 0 3.7667e-22 0
