# 1.122e-05 1 100 : grain size, compostion index, size index
# Heating and cooling timescale: 0.16418 798320
# Ratio of heating to cooling to determine stochastic cutoff: 100
# Equilibrium emission is recorded even for those grains in the stochastic regime.
# Emission spectrum was computed for: 
# Type: IRSF
# Scales: 0.25 0.5 1 1.5 2 2.5 3 3.5 4 4.5 5 5.5 6 6.5 7 7.5 8 8.5 9 9.5 10
# StochasticallyHeated: 0 0 0 0 0 0 0 0 0 0 0 0 0 0 0 0 0 0 0 0 0
# Temperature: -1
# Wavelength  CExt  CAbs  CSca  Albedo G EqEm1 StEm1 EqEm2 StEm2 EqEm3 StEm3 EqEm4 StEm4 EqEm5 StEm5 EqEm6 StEm6 EqEm7 StEm7 EqEm8 StEm8 EqEm9 StEm9 EqEm10 StEm10 EqEm11 StEm11 EqEm12 StEm12 EqEm13 StEm13 EqEm14 StEm14 EqEm15 StEm15 EqEm16 StEm16 EqEm17 StEm17 EqEm18 StEm18 EqEm19 StEm19 EqEm20 StEm20 EqEm21 StEm21
0.05 2.4432e-10 1.20775e-10 1.23545e-10 0.50567 0.207424 0 0 0 0 0 0 0 0 0 0 0 0 0 0 0 0 0 0 0 0 0 0 0 0 0 0 0 0 0 0 0 0 0 0 0 0 0 0 0 0 0 0
0.0525665 2.70046e-10 1.33492e-10 1.36554e-10 0.50567 0.229264 0 0 0 0 0 0 0 0 0 0 0 0 0 0 0 0 0 0 0 0 0 0 0 0 0 0 0 0 0 0 0 0 0 0 0 0 0 0 0 0 0 0
0.0552647 2.9848e-10 1.47548e-10 1.50932e-10 0.50567 0.253405 0 0 0 0 0 0 0 0 0 0 0 0 0 0 0 0 0 0 0 0 0 0 0 0 0 0 0 0 0 0 0 0 0 0 0 0 0 0 0 0 0 0
0.0581015 3.29908e-10 1.63084e-10 1.66825e-10 0.50567 0.280087 0 0 0 0 0 0 0 0 0 0 0 0 0 0 0 0 0 0 0 0 0 0 0 0 0 0 0 0 0 0 0 0 0 0 0 0 0 0 0 0 0 0
0.0610839 3.64646e-10 1.80256e-10 1.84391e-10 0.50567 0.309579 0 0 0 0 0 0 0 0 0 0 0 0 0 0 0 0 0 0 0 0 0 0 0 0 0 0 0 0 0 0 0 0 0 0 0 0 0 0 0 0 0 0
0.0642193 4.03042e-10 1.99236e-10 2.03806e-10 0.50567 0.342176 0 0 0 0 0 0 0 0 0 0 0 0 0 0 0 0 0 0 0 0 0 0 0 0 0 0 0 0 0 0 0 0 0 0 0 0 0 0 0 0 0 0
0.0675157 4.4548e-10 2.20214e-10 2.25266e-10 0.50567 0.378206 0 0 0 0 0 0 0 0 0 0 0 0 0 0 0 0 0 0 0 0 0 0 0 0 0 0 0 0 0 0 0 0 0 0 0 0 0 0 0 0 0 0
0.0709813 4.92387e-10 2.43402e-10 2.48985e-10 0.50567 0.418029 0 0 0 0 0 0 0 0 0 0 0 0 0 0 0 0 0 0 0 0 0 0 0 0 0 0 0 0 0 0 0 0 0 0 0 0 0 0 0 0 0 0
0.0746248 5.44233e-10 2.69031e-10 2.75202e-10 0.50567 0.462045 0 0 0 0 0 0 0 0 0 0 0 0 0 0 0 0 0 0 0 0 0 0 0 0 0 0 0 0 0 0 0 0 0 0 0 0 0 0 0 0 0 0
0.0784553 6.01538e-10 2.97358e-10 3.04179e-10 0.50567 0.510696 0 0 0 0 0 0 0 0 0 0 0 0 0 0 0 0 0 0 0 0 0 0 0 0 0 0 0 0 0 0 0 0 0 0 0 0 0 0 0 0 0 0
0.0824824 6.64877e-10 3.28669e-10 3.36208e-10 0.50567 0.56447 0 0 0 0 0 0 0 0 0 0 0 0 0 0 0 0 0 0 0 0 0 0 0 0 0 0 0 0 0 0 0 0 0 0 0 0 0 0 0 0 0 0
0.0867162 7.34886e-10 3.63276e-10 3.71609e-10 0.50567 0.623906 0 0 0 0 0 0 0 0 0 0 0 0 0 0 0 0 0 0 0 0 0 0 0 0 0 0 0 0 0 0 0 0 0 0 0 0 0 0 0 0 0 0
0.0911674 8.12266e-10 4.01528e-10 4.10738e-10 0.50567 0.689601 0 0 0 0 0 0 0 0 0 0 0 0 0 0 0 0 0 0 0 0 0 0 0 0 0 0 0 0 0 0 0 0 0 0 0 0 0 0 0 0 0 0
0.095847 8.97793e-10 4.43806e-10 4.53987e-10 0.50567 0.762212 0 0 0 0 0 0 0 0 0 0 0 0 0 0 0 0 0 0 0 0 0 0 0 0 0 0 0 0 0 0 0 0 0 0 0 0 0 0 0 0 0 0
0.100767 9.78767e-10 4.84224e-10 4.94544e-10 0.505272 0.829301 0 0 0 0 0 0 0 0 0 0 0 0 0 0 0 0 0 0 0 0 0 0 0 0 0 0 0 0 0 0 0 0 0 0 0 0 0 0 0 0 0 0
0.105939 9.88762e-10 4.91661e-10 4.97102e-10 0.502751 0.829866 0 0 0 0 0 0 0 0 0 0 0 0 0 0 0 0 0 0 0 0 0 0 0 0 0 0 0 0 0 0 0 0 0 0 0 0 0 0 0 0 0 0
0.111377 9.98693e-10 4.99311e-10 4.99382e-10 0.500035 0.831381 0 0 0 0 0 0 0 0 0 0 0 0 0 0 0 0 0 0 0 0 0 0 0 0 0 0 0 0 0 0 0 0 0 0 0 0 0 0 0 0 0 0
0.117094 1.00875e-09 5.06993e-10 5.0176e-10 0.497406 0.831093 0 0 0 0 0 0 0 0 0 0 0 0 0 0 0 0 0 0 0 0 0 0 0 0 0 0 0 0 0 0 0 0 0 0 0 0 0 0 0 0 0 0
0.123105 1.0188e-09 5.15385e-10 5.0341e-10 0.494123 0.829667 0 0 0 0 0 0 0 0 0 0 0 0 0 0 0 0 0 0 0 0 0 0 0 0 0 0 0 0 0 0 0 0 0 0 0 0 0 0 0 0 0 0
0.129424 1.02847e-09 5.24382e-10 5.04091e-10 0.490135 0.827153 0 0 0 0 0 0 0 0 0 0 0 0 0 0 0 0 0 0 0 0 0 0 0 0 0 0 0 0 0 0 0 0 0 0 0 0 0 0 0 0 0 0
0.136067 1.03876e-09 5.33337e-10 5.05419e-10 0.486562 0.82329 0 0 0 0 0 0 0 0 0 0 0 0 0 0 0 0 0 0 0 0 0 0 0 0 0 0 0 0 0 0 0 0 0 0 0 0 0 0 0 0 0 0
0.143051 1.04965e-09 5.44831e-10 5.04823e-10 0.480942 0.81766 0 0 0 0 0 0 0 0 0 0 0 0 0 0 0 0 0 0 0 0 0 0 0 0 0 0 0 0 0 0 0 0 0 0 0 0 0 0 0 0 0 0
0.150394 1.05946e-09 5.59241e-10 5.0022e-10 0.472146 0.816946 0 0 0 0 0 0 0 0 0 0 0 0 0 0 0 0 0 0 0 0 0 0 0 0 0 0 0 0 0 0 0 0 0 0 0 0 0 0 0 0 0 0
0.158114 1.05603e-09 5.66078e-10 4.89954e-10 0.463957 0.822601 0 0 0 0 0 0 0 0 0 0 0 0 0 0 0 0 0 0 0 0 0 0 0 0 0 0 0 0 0 0 0 0 0 0 0 0 0 0 0 0 0 0
0.16623 1.04666e-09 5.42415e-10 5.04244e-10 0.481766 0.80596 0 0 0 0 0 0 0 0 0 0 0 0 0 0 0 0 0 0 0 0 0 0 0 0 0 0 0 0 0 0 0 0 0 0 0 0 0 0 0 0 0 0
0.174762 1.1081e-09 4.97313e-10 6.10786e-10 0.551202 0.694676 0 0 0 0 0 0 0 0 0 0 0 0 0 0 0 0 0 0 0 0 0 0 0 0 0 0 0 0 0 0 0 0 0 0 0 0 0 0 0 0 0 0
0.183733 1.24031e-09 4.25025e-10 8.15283e-10 0.657323 0.550013 0 0 0 0 0 0 0 0 0 0 0 0 0 0 0 0 0 0 0 0 0 0 0 0 0 0 0 0 0 0 0 0 0 0 0 0 0 0 0 0 0 0
0.193164 1.405e-09 3.53537e-10 1.05146e-09 0.748372 0.490585 0 0 0 0 0 0 0 0 0 0 0 0 0 0 0 0 0 0 0 0 0 0 0 0 0 0 0 0 0 0 0 0 0 0 0 0 0 0 0 0 0 0
0.203079 1.5065e-09 3.20073e-10 1.18643e-09 0.787539 0.462014 0 0 0 0 0 0 0 0 0 0 0 0 0 0 0 0 0 0 0 0 0 0 0 0 0 0 0 0 0 0 0 0 0 0 0 0 0 0 0 0 0 0
0.213503 1.56509e-09 3.11646e-10 1.25345e-09 0.800877 0.562753 0 0 0 0 0 0 0 0 0 0 0 0 0 0 0 0 0 0 0 0 0 0 0 0 0 0 0 0 0 0 0 0 0 0 0 0 0 0 0 0 0 0
0.224463 1.57333e-09 3.00875e-10 1.27246e-09 0.808765 0.627024 0 0 0 0 0 0 0 0 0 0 0 0 0 0 0 0 0 0 0 0 0 0 0 0 0 0 0 0 0 0 0 0 0 0 0 0 0 0 0 0 0 0
0.235984 1.52403e-09 2.77536e-10 1.24649e-09 0.817893 0.615677 0 0 0 0 0 0 0 0 0 0 0 0 0 0 0 0 0 0 0 0 0 0 0 0 0 0 0 0 0 0 0 0 0 0 0 0 0 0 0 0 0 0
0.248097 1.46458e-09 2.55067e-10 1.20951e-09 0.825843 0.602232 0 0 0 0 0 0 0 0 0 0 0 0 0 0 0 0 0 0 0 0 0 0 0 0 0 0 0 0 0 0 0 0 0 0 0 0 0 0 0 0 0 0
0.260832 1.41741e-09 2.45795e-10 1.17161e-09 0.826588 0.631854 0 0 0 0 0 0 0 0 0 0 0 0 0 0 0 0 0 0 0 0 0 0 0 0 0 0 0 0 0 0 0 0 0 0 0 0 0 0 0 0 0 0
0.274221 1.35669e-09 2.42469e-10 1.11422e-09 0.821279 0.664546 0 0 0 0 0 0 0 0 0 0 0 0 0 0 0 0 0 0 0 0 0 0 0 0 0 0 0 0 0 0 0 0 0 0 0 0 0 0 0 0 0 0
0.288297 1.26312e-09 2.34171e-10 1.02895e-09 0.814609 0.678891 0 0 0 0 0 0 0 0 0 0 0 0 0 0 0 0 0 0 0 0 0 0 0 0 0 0 0 0 0 0 0 0 0 0 0 0 0 0 0 0 0 0
0.303095 1.15192e-09 2.17948e-10 9.3397e-10 0.810796 0.66475 0 0 0 0 0 0 0 0 0 0 0 0 0 0 0 0 0 0 0 0 0 0 0 0 0 0 0 0 0 0 0 0 0 0 0 0 0 0 0 0 0 0
0.318653 1.05277e-09 2.00347e-10 8.52419e-10 0.809695 0.627987 0 0 0 0 0 0 0 0 0 0 0 0 0 0 0 0 0 0 0 0 0 0 0 0 0 0 0 0 0 0 0 0 0 0 0 0 0 0 0 0 0 0
0.335009 9.74748e-10 1.86985e-10 7.87763e-10 0.808171 0.590873 0 0 0 0 0 0 0 0 0 0 0 0 0 0 0 0 0 0 0 0 0 0 0 0 0 0 0 0 0 0 0 0 0 0 0 0 0 0 0 0 0 0
0.352205 9.08897e-10 1.78451e-10 7.30446e-10 0.803662 0.567614 0 0 0 0 0 0 0 0 0 0 0 0 0 0 0 0 0 0 0 0 0 0 0 0 0 0 0 0 0 0 0 0 0 0 0 0 0 0 0 0 0 0
0.370284 8.43325e-10 1.72293e-10 6.71033e-10 0.795698 0.561337 0 0 0 0 0 0 0 0 0 0 0 0 0 0 0 0 0 0 0 0 0 0 0 0 0 0 0 0 0 0 0 0 0 0 0 0 0 0 0 0 0 0
0.389291 7.70193e-10 1.65587e-10 6.04606e-10 0.785006 0.569306 0 0 0 0 0 0 0 0 0 0 0 0 0 0 0 0 0 0 0 0 0 0 0 0 0 0 0 0 0 0 0 0 0 0 0 0 0 0 0 0 0 0
0.409273 6.91072e-10 1.56722e-10 5.3435e-10 0.773219 0.583893 0 0 0 0 0 0 0 0 0 0 0 0 0 0 0 0 0 0 0 0 0 0 0 0 0 0 0 0 0 0 0 0 0 0 0 0 0 0 0 0 0 0
0.430281 6.11292e-10 1.45699e-10 4.65593e-10 0.761653 0.592938 0 0 0 0 0 0 0 0 0 0 0 0 0 0 0 0 0 0 0 0 0 0 0 0 0 0 0 0 0 0 0 0 0 0 0 0 0 0 0 0 0 0
0.452368 5.37091e-10 1.33637e-10 4.03454e-10 0.751184 0.584435 0 0 0 0 0 0 0 0 0 0 0 0 0 0 0 0 0 0 0 0 0 0 0 0 0 0 0 0 0 0 0 0 0 0 0 0 0 0 0 0 0 0
0.475588 4.71751e-10 1.21841e-10 3.49909e-10 0.741725 0.554868 0 0 0 0 0 0 0 0 0 0 0 0 0 0 0 0 0 0 0 0 0 0 0 0 0 0 0 0 0 0 0 0 0 0 0 0 0 0 0 0 0 0
0.5 4.15536e-10 1.11117e-10 3.04418e-10 0.732593 0.509431 0 0 0 0 0 0 0 0 0 0 0 0 0 0 0 0 0 0 0 0 0 0 0 0 0 0 0 0 0 0 0 0 0 0 0 0 0 0 0 0 0 0
0.525665 3.67074e-10 1.01734e-10 2.6534e-10 0.722851 0.456951 0 0 0 0 0 0 0 0 0 0 0 0 0 0 0 0 0 0 0 0 0 0 0 0 0 0 0 0 0 0 0 0 0 0 0 0 0 0 0 0 0 0
0.552648 3.2461e-10 9.35794e-11 2.31031e-10 0.711718 0.404774 0 0 0 0 0 0 0 0 0 0 0 0 0 0 0 0 0 0 0 0 0 0 0 0 0 0 0 0 0 0 0 0 0 0 0 0 0 0 0 0 0 0
0.581015 2.86627e-10 8.64394e-11 2.00187e-10 0.698425 0.357044 0 0 0 0 0 0 0 0 0 0 0 0 0 0 0 0 0 0 0 0 0 0 0 0 0 0 0 0 0 0 0 0 0 0 0 0 0 0 0 0 0 0
0.610839 2.52529e-10 8.00879e-11 1.72441e-10 0.682857 0.314911 0 0 0 0 0 0 0 0 0 0 0 0 0 0 0 0 0 0 0 0 0 0 0 0 0 0 0 0 0 0 0 0 0 0 0 0 0 0 0 0 0 0
0.642193 2.21922e-10 7.43213e-11 1.47601e-10 0.665102 0.278394 0 0 0 0 0 0 0 0 0 0 0 0 0 0 0 0 0 0 0 0 0 0 0 0 0 0 0 0 0 0 0 0 0 0 0 0 0 0 0 0 0 0
0.675157 1.94499e-10 6.90533e-11 1.25446e-10 0.644969 0.247045 0 0 0 0 0 0 0 0 0 0 0 0 0 0 0 0 0 0 0 0 0 0 0 0 0 0 0 0 0 0 0 0 0 0 0 0 0 0 0 0 0 0
0.709813 1.70101e-10 6.4208e-11 1.05893e-10 0.622529 0.219999 0 0 0 0 0 0 0 0 0 0 0 0 0 0 0 0 0 0 0 0 0 0 0 0 0 0 0 0 0 0 0 0 0 0 0 0 0 0 0 0 0 0
0.746248 1.48606e-10 5.97274e-11 8.88783e-11 0.598081 0.196529 0 0 0 0 0 0 0 0 0 0 0 0 0 0 0 0 0 0 0 0 0 0 0 0 0 0 0 0 0 0 0 0 0 0 0 0 0 0 0 0 0 0
0.784553 1.29766e-10 5.55695e-11 7.41968e-11 0.571773 0.176039 0 0 0 0 0 0 0 0 0 0 0 0 0 0 0 0 0 0 0 0 0 0 0 0 0 0 0 0 0 0 0 0 0 0 0 0 0 0 0 0 0 0
0.824824 1.13404e-10 5.172e-11 6.16837e-11 0.54393 0.158102 0 0 0 0 0 0 0 0 0 0 0 0 0 0 0 0 0 0 0 0 0 0 0 0 0 0 0 0 0 0 0 0 0 0 0 0 0 0 0 0 0 0
0.867162 9.9243e-11 4.81466e-11 5.10964e-11 0.514862 0.142273 0 0 0 0 0 0 0 0 0 0 0 0 0 0 0 0 0 0 0 0 0 0 0 0 0 0 0 0 0 0 0 0 0 0 0 0 0 0 0 0 0 0
0.911674 8.70598e-11 4.48756e-11 4.21843e-11 0.484543 0.128217 0 0 0 0 0 0 0 0 0 0 0 0 0 0 0 0 0 0 0 0 0 0 0 0 0 0 0 0 0 0 0 0 0 0 0 0 0 0 0 0 0 0
0.95847 7.65939e-11 4.1877e-11 3.47169e-11 0.453259 0.115686 0 0 0 0 0 0 0 0 0 0 0 0 0 0 0 0 0 0 0 0 0 0 0 0 0 0 0 0 0 0 0 0 0 0 0 0 0 0 0 0 0 0
1.00767 6.7544e-11 3.91034e-11 2.84407e-11 0.421068 0.104491 0 0 0 0 0 0 0 0 0 0 0 0 0 0 0 0 0 0 0 0 0 0 0 0 0 0 0 0 0 0 0 0 0 0 0 0 0 0 0 0 0 0
1.05939 6.06269e-11 3.73598e-11 2.32672e-11 0.383776 0.0944542 0 0 0 0 0 0 0 0 0 0 0 0 0 0 0 0 0 0 0 0 0 0 0 0 0 0 0 0 0 0 0 0 0 0 0 0 0 0 0 0 0 0
1.11377 5.49209e-11 3.58735e-11 1.90474e-11 0.346815 0.0854237 0 0 0 0 0 0 0 0 0 0 0 0 0 0 0 0 0 0 0 0 0 0 0 0 0 0 0 0 0 0 0 0 0 0 0 0 0 0 0 0 0 0
1.17094 5.02371e-11 3.46225e-11 1.56146e-11 0.310818 0.0772833 0 0 0 0 0 0 0 0 0 0 0 0 0 0 0 0 0 0 0 0 0 0 0 0 0 0 0 0 0 0 0 0 0 0 0 0 0 0 0 0 0 0
1.23105 4.62989e-11 3.35101e-11 1.27889e-11 0.276224 0.0699418 0 0 0 0 0 0 0 0 0 0 0 0 0 0 0 0 0 0 0 0 0 0 0 0 0 0 0 0 0 0 0 0 0 0 0 0 0 0 0 0 0 0
1.29424 4.28845e-11 3.24082e-11 1.04763e-11 0.244291 0.0633149 0 0 0 0 0 0 0 0 0 0 0 0 0 0 0 0 0 0 0 0 0 0 0 0 0 0 0 0 0 0 0 0 0 0 0 0 0 0 0 0 0 0
1.36067 3.99201e-11 3.13011e-11 8.61906e-12 0.215908 0.0573293 0 0 0 0 0 0 0 0 0 0 0 0 0 0 0 0 0 0 0 0 0 0 0 0 0 0 0 0 0 0 0 0 0 0 0 0 0 0 0 0 0 0
1.43051 3.71774e-11 3.01705e-11 7.00692e-12 0.188472 0.0519038 0 0 0 0 0 0 0 0 0 0 0 0 0 0 0 0 0 0 0 0 0 0 0 0 0 0 0 0 0 0 0 0 0 0 0 0 0 0 0 0 0 0
1.50394 3.48051e-11 2.90816e-11 5.72351e-12 0.164445 0.0469966 0 0 0 0 0 0 0 0 0 0 0 0 0 0 0 0 0 0 0 0 0 0 0 0 0 0 0 0 0 0 0 0 0 0 0 0 0 0 0 0 0 0
1.58114 3.27459e-11 2.80657e-11 4.68021e-12 0.142925 0.0425602 0 0 0 0 0 0 0 0 0 0 0 0 0 0 0 0 0 0 0 0 0 0 0 0 0 0 0 0 0 0 0 0 0 0 0 0 0 0 0 0 0 0
1.6623 3.09789e-11 2.71525e-11 3.82647e-12 0.123519 0.0385356 0 0 0 0 0 0 0 0 0 0 0 0 0 0 0 0 0 0 0 0 0 0 0 0 0 0 0 0 0 0 0 0 0 0 0 0 0 0 0 0 0 0
1.74763 2.94983e-11 2.63703e-11 3.12792e-12 0.106037 0.0348886 0 0 0 0 0 0 0 0 0 0 0 0 0 0 0 0 0 0 0 0 0 0 0 0 0 0 0 0 0 0 0 0 0 0 0 0 0 0 0 0 0 0
1.83733 2.83092e-11 2.57534e-11 2.55578e-12 0.0902808 0.0315821 0 0 0 0 0 0 0 0 0 0 0 0 0 0 0 0 0 0 0 0 0 0 0 0 0 0 0 0 0 0 0 0 0 0 0 0 0 0 0 0 0 0
1.93164 2.73995e-11 2.53121e-11 2.08741e-12 0.0761845 0.0285914 0 0 0 0 0 0 0 0 0 0 0 0 0 0 0 0 0 0 0 0 0 0 0 0 0 0 0 0 0 0 0 0 0 0 0 0 0 0 0 0 0 0
2.03079 2.67465e-11 2.50405e-11 1.70601e-12 0.0637845 0.0258823 0 0 0 0 0 0 0 0 0 0 0 0 0 0 0 0 0 0 0 0 0 0 0 0 0 0 0 0 0 0 0 0 0 0 0 0 0 0 0 0 0 0
2.13503 2.62962e-11 2.49006e-11 1.39559e-12 0.0530718 0.0234243 0 0 0 0 0 0 0 0 0 0 0 0 0 0 0 0 0 0 0 0 0 0 0 0 0 0 0 0 0 0 0 0 0 0 0 0 0 0 0 0 0 0
2.24463 2.59477e-11 2.48048e-11 1.14282e-12 0.0440432 0.0211954 0 0 0 0 0 0 0 0 0 0 0 0 0 0 0 0 0 0 0 0 0 0 0 0 0 0 0 0 0 0 0 0 0 0 0 0 0 0 0 0 0 0
2.35984 2.56654e-11 2.4729e-11 9.364e-13 0.0364849 0.0191795 0 0 0 0 0 0 0 0 0 0 0 0 0 0 0 0 0 0 0 0 0 0 0 0 0 0 0 0 0 0 0 0 0 0 0 0 0 0 0 0 0 0
2.48097 2.54712e-11 2.47036e-11 7.67579e-13 0.0301352 0.0173509 0 0 0 0 0 0 0 0 0 0 0 0 0 0 0 0 0 0 0 0 0 0 0 0 0 0 0 0 0 0 0 0 0 0 0 0 0 0 0 0 0 0
2.60832 2.5361e-11 2.47314e-11 6.29594e-13 0.0248253 0.015694 0 0 0 0 0 0 0 0 0 0 0 0 0 0 0 0 0 0 0 0 0 0 0 0 0 0 0 0 0 0 0 0 0 0 0 0 0 0 0 0 0 0
2.74221 2.53593e-11 2.48424e-11 5.16855e-13 0.0203813 0.0141933 0 0 0 0 0 0 0 0 0 0 0 0 0 0 0 0 0 0 0 0 0 0 0 0 0 0 0 0 0 0 0 0 0 0 0 0 0 0 0 0 0 0
2.88297 2.54649e-11 2.50399e-11 4.25029e-13 0.0166908 0.012833 0 0 0 0 0 0 0 0 0 0 0 0 0 0 0 0 0 0 0 0 0 0 0 0 0 0 0 0 0 0 0 0 0 0 0 0 0 0 0 0 0 0
3.03095 2.56674e-11 2.53165e-11 3.50888e-13 0.0136706 0.0116018 0 0 0 0 0 0 0 0 0 0 0 0 0 0 0 0 0 0 0 0 0 0 0 0 0 0 0 0 0 0 0 0 0 0 0 0 0 0 0 0 0 0
3.18653 2.56553e-11 2.53649e-11 2.90396e-13 0.0113191 0.0104861 0 0 0 0 0 0 0 0 0 0 0 0 0 0 0 0 0 0 0 0 0 0 0 0 0 0 0 0 0 0 0 0 0 0 0 0 0 0 0 0 0 0
3.35009 2.61682e-11 2.59309e-11 2.37315e-13 0.00906885 0.00947486 0 0 0 0 0 0 0 0 0 0 0 0 0 0 0 0 0 0 0 0 0 0 0 0 0 0 0 0 0 0 0 0 0 0 0 0 0 0 0 0 0 0
3.52205 2.60033e-11 2.57968e-11 2.06553e-13 0.00794332 0.00855878 0 0 0 0 0 0 0 0 0 0 0 0 0 0 0 0 0 0 0 0 0 0 0 0 0 0 0 0 0 0 0 0 0 0 0 0 0 0 0 0 0 0
3.70284 2.41923e-11 2.40243e-11 1.6797e-13 0.0069431 0.00772973 0 0 0 0 0 0 0 0 0 0 0 0 0 0 0 0 0 0 0 0 0 0 0 0 0 0 0 0 0 0 0 0 0 0 0 0 0 0 0 0 0 0
3.89291 2.36236e-11 2.3486e-11 1.37593e-13 0.00582441 0.00697792 0 0 0 0 0 0 0 0 0 0 0 0 0 0 0 0 0 0 0 0 0 0 0 0 0 0 0 0 0 0 0 0 0 0 0 0 0 0 0 0 0 0
4.09273 2.31706e-11 2.30578e-11 1.12789e-13 0.00486775 0.00629576 0 0 0 0 0 0 0 0 0 0 0 0 0 0 0 0 0 0 0 0 0 0 0 0 0 0 0 0 0 0 0 0 0 0 0 0 0 0 0 0 0 0
4.30281 2.28342e-11 2.27417e-11 9.24964e-14 0.00405078 0.0056773 0 0 0 0 0 0 0 0 0 0 0 0 0 0 0 0 0 0 0 0 0 0 0 0 0 0 0 0 0 0 0 0 0 0 0 0 0 0 0 0 0 0
4.52368 2.26196e-11 2.25437e-11 7.59374e-14 0.00335715 0.00511735 0 0 0 0 0 0 0 0 0 0 0 0 0 0 0 0 0 0 0 0 0 0 0 0 0 0 0 0 0 0 0 0 0 0 0 0 0 0 0 0 0 0
4.75588 2.24972e-11 2.24347e-11 6.24493e-14 0.00277588 0.00460915 0 0 0 0 0 0 0 0 0 0 0 0 0 0 0 0 0 0 0 0 0 0 0 0 0 0 0 0 0 0 0 0 0 0 0 0 0 0 0 0 0 0
5 2.24011e-11 2.23497e-11 5.14627e-14 0.00229733 0.00414688 0 0 0 0 0 0 0 0 0 0 0 0 0 0 0 0 0 0 0 0 0 0 0 0 0 0 0 0 0 0 0 0 0 0 0 0 0 0 0 0 0 0
5.25665 2.22785e-11 2.2236e-11 4.24562e-14 0.00190571 0.00372664 0 0 0 0 0 0 0 0 0 0 0 0 0 0 0 0 0 0 0 0 0 0 0 0 0 0 0 0 0 0 0 0 0 0 0 0 0 0 0 0 0 0
5.52648 2.2129e-11 2.20939e-11 3.50252e-14 0.00158278 0.00334615 0 0 0 0 0 0 0 0 0 0 0 0 0 0 0 0 0 0 0 0 0 0 0 0 0 0 0 0 0 0 0 0 0 0 0 0 0 0 0 0 0 0
5.81015 2.19393e-11 2.19105e-11 2.88632e-14 0.00131559 0.00299922 0 0 0 0 0 0 0 0 0 0 0 0 0 0 0 0 0 0 0 0 0 0 0 0 0 0 0 0 0 0 0 0 0 0 0 0 0 0 0 0 0 0
6.10839 2.17311e-11 2.17074e-11 2.37352e-14 0.00109222 0.00268382 0 0 0 0 0 0 0 0 0 0 0 0 0 0 0 0 0 0 0 0 0 0 0 0 0 0 0 0 0 0 0 0 1.4013e-45 0 5.60519e-45 0 1.54143e-44 0 3.78351e-44 0 8.68805e-44 0
6.42193 2.14994e-11 2.14799e-11 1.94477e-14 0.00090457 0.002396 0 0 0 0 0 0 0 0 0 0 0 0 0 0 0 0 0 0 0 0 0 0 0 0 1.4013e-45 0 7.00649e-45 0 2.66247e-44 0 8.26766e-44 0 2.46629e-43 0 6.62814e-43 0 1.66755e-42 0 4.02593e-42 0 8.92627e-42 0
6.75157 2.13278e-11 2.1312e-11 1.58096e-14 0.000741268 0.00213071 0 0 0 0 0 0 0 0 0 0 0 0 0 0 0 0 0 0 1.4013e-45 0 1.12104e-44 0 5.46506e-44 0 2.35418e-43 0 8.58996e-43 0 2.87546e-42 0 8.48346e-42 0 2.38571e-41 0 6.11849e-41 0 1.47131e-40 0 3.40332e-40 0 7.25751e-40 0
7.09813 2.09669e-11 2.09541e-11 1.28443e-14 0.000612599 0.00188086 0 0 0 0 0 0 0 0 0 0 0 0 0 0 2.8026e-45 0 3.08286e-44 0 2.14399e-43 0 1.20231e-42 0 5.58978e-42 0 2.24292e-41 0 7.66174e-41 0 2.41844e-40 0 6.7669e-40 0 1.80921e-39 0 4.43139e-39 0 1.02093e-38 0 2.26681e-38 0 4.65846e-38 0
7.46248 2.06711e-11 2.0661e-11 1.01779e-14 0.000492373 0.00163766 0 0 0 0 0 0 0 0 0 0 1.4013e-45 0 2.8026e-44 0 3.61535e-43 0 3.14592e-42 0 2.02488e-41 0 1.04394e-40 0 4.50386e-40 0 1.68875e-39 0 5.43289e-39 0 1.62131e-38 0 4.31421e-38 0 1.09938e-37 0 2.57753e-37 0 5.70115e-37 0 1.2175e-36 0 2.41558e-36 0
7.84553 2.0364e-11 2.03563e-11 7.70153e-15 0.000378193 0.0014057 0 0 0 0 0 0 0 0 4.2039e-45 0 1.48538e-43 0 2.86986e-42 0 3.28324e-41 0 2.57155e-40 0 1.51141e-39 0 7.19258e-39 0 2.8893e-38 0 1.01566e-37 0 3.0863e-37 0 8.7315e-37 0 2.21499e-36 0 5.39242e-36 0 1.21275e-35 0 2.58047e-35 0 5.31027e-35 0 1.01893e-34 0
8.24824 2.26749e-11 2.26692e-11 5.66389e-15 0.000249787 0.00120853 0 0 0 0 0 0 4.2039e-45 0 4.52619e-43 0 1.5759e-41 0 2.62983e-40 0 2.67053e-39 0 1.89169e-38 0 1.01973e-37 0 4.49683e-37 0 1.68784e-36 0 5.57993e-36 0 1.60603e-35 0 4.31869e-35 0 1.04688e-34 0 2.44029e-34 0 5.27527e-34 0 1.08184e-33 0 2.1492e-33 0 3.9947e-33 0
8.67162 2.75194e-11 2.75145e-11 4.90977e-15 0.000178411 0.00105184 0 0 0 0 0 0 4.91856e-43 0 4.91786e-41 0 1.43796e-39 0 2.09157e-38 0 1.89667e-37 0 1.22105e-36 0 6.06239e-36 0 2.48659e-35 0 8.74946e-35 0 2.72851e-34 0 7.45819e-34 0 1.91099e-33 0 4.43637e-33 0 9.92265e-33 0 2.06578e-32 0 4.09046e-32 0 7.85836e-32 0 1.41708e-31 0
9.11674 3.77569e-11 3.77511e-11 5.83989e-15 0.000154671 0.000897365 0 0 0 0 8.96831e-44 0 5.99097e-41 0 4.78539e-39 0 1.18661e-37 0 1.51449e-36 0 1.2332e-35 0 7.24919e-35 0 3.32831e-34 0 1.27426e-33 0 4.21655e-33 0 1.2439e-32 0 3.23721e-32 0 7.92219e-32 0 1.76505e-31 0 3.79566e-31 0 7.62424e-31 0 1.46015e-30 0 2.71715e-30 0 4.76075e-30 0
9.5847 4.60483e-11 4.60402e-11 8.10536e-15 0.000176019 0.00080267 0 0 0 0 1.05392e-41 0 5.14865e-39 0 3.32068e-37 0 7.03944e-36 0 7.93411e-35 0 5.83177e-34 0 3.1441e-33 0 1.34002e-32 0 4.80484e-32 0 1.49971e-31 0 4.19658e-31 0 1.04232e-30 0 2.44173e-30 0 5.23146e-30 0 1.08372e-29 0 2.10396e-29 0 3.90356e-29 0 7.04706e-29 0 1.20137e-28 0
10.0767 4.46096e-11 4.46007e-11 8.9249e-15 0.000200067 0.000761836 0 0 1.12104e-44 0 7.81194e-40 0 2.82065e-37 0 1.48434e-35 0 2.71075e-34 0 2.71449e-33 0 1.81006e-32 0 8.98806e-32 0 3.56896e-31 0 1.20235e-30 0 3.54997e-30 0 9.44702e-30 0 2.24444e-29 0 5.04378e-29 0 1.04118e-28 0 2.0815e-28 0 3.91227e-28 0 7.04282e-28 0 1.23529e-27 0 2.05176e-27 0
10.5939 3.7995e-11 3.7987e-11 7.92548e-15 0.000208593 0.000748925 0 0 1.03836e-42 0 4.06917e-38 0 1.10211e-35 0 4.77941e-34 0 7.57417e-33 0 6.77768e-32 0 4.1196e-31 0 1.89168e-30 0 7.02236e-30 0 2.22956e-29 0 6.24389e-29 0 1.58406e-28 0 3.60776e-28 0 7.79319e-28 0 1.5528e-27 0 3.00109e-27 0 5.46954e-27 0 9.5676e-27 0 1.63271e-26 0 2.64552e-26 0
11.1377 3.17466e-11 3.17399e-11 6.66174e-15 0.000209841 0.000766965 1.4013e-45 0 7.18656e-41 0 1.68035e-36 0 3.46213e-34 0 1.249e-32 0 1.72956e-31 0 1.39063e-30 0 7.73963e-30 0 3.29907e-29 0 1.14872e-28 0 3.44711e-28 0 9.18025e-28 0 2.22552e-27 0 4.86904e-27 0 1.01296e-26 0 1.95152e-26 0 3.65229e-26 0 6.46413e-26 0 1.10028e-25 0 1.82928e-25 0 2.89499e-25 0
11.7094 2.54905e-11 2.54853e-11 5.20872e-15 0.00020434 0.000771669 7.9874e-44 0 3.80562e-39 0 5.44498e-35 0 8.64896e-33 0 2.6191e-31 0 3.19006e-30 0 2.31674e-29 0 1.18573e-28 0 4.70885e-28 0 1.54271e-27 0 4.38756e-27 0 1.11392e-26 0 2.58615e-26 0 5.44584e-26 0 1.09315e-25 0 2.03966e-25 0 3.7022e-25 0 6.37234e-25 0 1.05686e-24 0 1.714e-24 0 2.65243e-24 0
12.3105 2.0468e-11 2.04641e-11 3.88053e-15 0.000189591 0.00076773 5.78596e-42 0 1.62263e-37 0 1.45512e-33 0 1.80471e-31 0 4.62677e-30 0 4.98792e-29 0 3.28819e-28 0 1.55397e-27 0 5.76939e-27 0 1.78376e-26 0 4.82073e-26 0 1.16947e-25 0 2.60572e-25 0 5.29113e-25 0 1.02657e-24 0 1.85798e-24 0 3.27569e-24 0 5.49069e-24 0 8.88417e-24 0 1.40721e-23 0 2.13174e-23 0
12.9424 1.86003e-11 1.85975e-11 2.82123e-15 0.000151676 0.000734512 3.74605e-40 0 6.37153e-36 0 3.66385e-32 0 3.59113e-30 0 7.85805e-29 0 7.54291e-28 0 4.53511e-27 0 1.98675e-26 0 6.91854e-26 0 2.02436e-25 0 5.21174e-25 0 1.21078e-24 0 2.59429e-24 0 5.08886e-24 0 9.55887e-24 0 1.68066e-23 0 2.88216e-23 0 4.71075e-23 0 7.44519e-23 0 1.1531e-22 0 1.71172e-22 0
