# 5.0119e-05 0 126 : grain size, compostion index, size index
# Heating and cooling timescale: 0.000769408 2.16053e+06
# Ratio of heating to cooling to determine stochastic cutoff: 100
# Equilibrium emission is recorded even for those grains in the stochastic regime.
# Emission spectrum was computed for: 
# Type: IRSF
# Scales: 0.25 0.5 1 1.5 2 2.5 3 3.5 4 4.5 5 5.5 6 6.5 7 7.5 8 8.5 9 9.5 10
# StochasticallyHeated: 0 0 0 0 0 0 0 0 0 0 0 0 0 0 0 0 0 0 0 0 0
# Temperature: -1
# Wavelength  CExt  CAbs  CSca  Albedo G EqEm1 StEm1 EqEm2 StEm2 EqEm3 StEm3 EqEm4 StEm4 EqEm5 StEm5 EqEm6 StEm6 EqEm7 StEm7 EqEm8 StEm8 EqEm9 StEm9 EqEm10 StEm10 EqEm11 StEm11 EqEm12 StEm12 EqEm13 StEm13 EqEm14 StEm14 EqEm15 StEm15 EqEm16 StEm16 EqEm17 StEm17 EqEm18 StEm18 EqEm19 StEm19 EqEm20 StEm20 EqEm21 StEm21
0.05 4.3801e-09 1.68635e-09 2.69375e-09 0.614998 0.00576547 0 0 0 0 0 0 0 0 0 0 0 0 0 0 0 0 0 0 0 0 0 0 0 0 0 0 0 0 0 0 0 0 0 0 0 0 0 0 0 0 0 0
0.0525665 4.84131e-09 1.86391e-09 2.97739e-09 0.614998 0.00637255 0 0 0 0 0 0 0 0 0 0 0 0 0 0 0 0 0 0 0 0 0 0 0 0 0 0 0 0 0 0 0 0 0 0 0 0 0 0 0 0 0 0
0.0552647 5.35107e-09 2.06017e-09 3.2909e-09 0.614998 0.00704355 0 0 0 0 0 0 0 0 0 0 0 0 0 0 0 0 0 0 0 0 0 0 0 0 0 0 0 0 0 0 0 0 0 0 0 0 0 0 0 0 0 0
0.0581015 5.91451e-09 2.2771e-09 3.63741e-09 0.614998 0.0077852 0 0 0 0 0 0 0 0 0 0 0 0 0 0 0 0 0 0 0 0 0 0 0 0 0 0 0 0 0 0 0 0 0 0 0 0 0 0 0 0 0 0
0.0610839 6.53728e-09 2.51687e-09 4.02041e-09 0.614998 0.00860494 0 0 0 0 0 0 0 0 0 0 0 0 0 0 0 0 0 0 0 0 0 0 0 0 0 0 0 0 0 0 0 0 0 0 0 0 0 0 0 0 0 0
0.0642193 7.22562e-09 2.78188e-09 4.44374e-09 0.614998 0.009511 0 0 0 0 0 0 0 0 0 0 0 0 0 0 0 0 0 0 0 0 0 0 0 0 0 0 0 0 0 0 0 0 0 0 0 0 0 0 0 0 0 0
0.0675157 7.98645e-09 3.0748e-09 4.91165e-09 0.614998 0.0105125 0 0 0 0 0 0 0 0 0 0 0 0 0 0 0 0 0 0 0 0 0 0 0 0 0 0 0 0 0 0 0 0 0 0 0 0 0 0 0 0 0 0
0.0709813 8.82738e-09 3.39856e-09 5.42882e-09 0.614998 0.0116194 0 0 0 0 0 0 0 0 0 0 0 0 0 0 0 0 0 0 0 0 0 0 0 0 0 0 0 0 0 0 0 0 0 0 0 0 0 0 0 0 0 0
0.0746248 9.75686e-09 3.75641e-09 6.00045e-09 0.614998 0.0128428 0 0 0 0 0 0 0 0 0 0 0 0 0 0 0 0 0 0 0 0 0 0 0 0 0 0 0 0 0 0 0 0 0 0 0 0 0 0 0 0 0 0
0.0784553 1.07842e-08 4.15195e-09 6.63227e-09 0.614998 0.0141951 0 0 0 0 0 0 0 0 0 0 0 0 0 0 0 0 0 0 0 0 0 0 0 0 0 0 0 0 0 0 0 0 0 0 0 0 0 0 0 0 0 0
0.0824824 1.19197e-08 4.58913e-09 7.33061e-09 0.614998 0.0156898 0 0 0 0 0 0 0 0 0 0 0 0 0 0 0 0 0 0 0 0 0 0 0 0 0 0 0 0 0 0 0 0 0 0 0 0 0 0 0 0 0 0
0.0867162 1.31748e-08 5.07234e-09 8.10249e-09 0.614998 0.0173419 0 0 0 0 0 0 0 0 0 0 0 0 0 0 0 0 0 0 0 0 0 0 0 0 0 0 0 0 0 0 0 0 0 0 0 0 0 0 0 0 0 0
0.0911674 1.45621e-08 5.60643e-09 8.95565e-09 0.614998 0.0191679 0 0 0 0 0 0 0 0 0 0 0 0 0 0 0 0 0 0 0 0 0 0 0 0 0 0 0 0 0 0 0 0 0 0 0 0 0 0 0 0 0 0
0.095847 1.60954e-08 6.19676e-09 9.89863e-09 0.614998 0.0211862 0 0 0 0 0 0 0 0 0 0 0 0 0 0 0 0 0 0 0 0 0 0 0 0 0 0 0 0 0 0 0 0 0 0 0 0 0 0 0 0 0 0
0.100767 1.75121e-08 6.79389e-09 1.07183e-08 0.612047 0.0235692 0 0 0 0 0 0 0 0 0 0 0 0 0 0 0 0 0 0 0 0 0 0 0 0 0 0 0 0 0 0 0 0 0 0 0 0 0 0 0 0 0 0
0.105939 1.74896e-08 7.07645e-09 1.04132e-08 0.595392 0.0256046 0 0 0 0 0 0 0 0 0 0 0 0 0 0 0 0 0 0 0 0 0 0 0 0 0 0 0 0 0 0 0 0 0 0 0 0 0 0 0 0 0 0
0.111377 1.75164e-08 7.15882e-09 1.03576e-08 0.591308 0.0289403 0 0 0 0 0 0 0 0 0 0 0 0 0 0 0 0 0 0 0 0 0 0 0 0 0 0 0 0 0 0 0 0 0 0 0 0 0 0 0 0 0 0
0.117094 1.75009e-08 7.40085e-09 1.01e-08 0.577115 0.0274507 0 0 0 0 0 0 0 0 0 0 0 0 0 0 0 0 0 0 0 0 0 0 0 0 0 0 0 0 0 0 0 0 0 0 0 0 0 0 0 0 0 0
0.123105 1.75233e-08 7.70046e-09 9.8228e-09 0.560558 0.0236555 0 0 0 0 0 0 0 0 0 0 0 0 0 0 0 0 0 0 0 0 0 0 0 0 0 0 0 0 0 0 0 0 0 0 0 0 0 0 0 0 0 0
0.129424 1.75673e-08 7.94731e-09 9.62001e-09 0.547608 0.0199126 0 0 0 0 0 0 0 0 0 0 0 0 0 0 0 0 0 0 0 0 0 0 0 0 0 0 0 0 0 0 0 0 0 0 0 0 0 0 0 0 0 0
0.136067 1.7612e-08 8.15344e-09 9.45856e-09 0.537052 0.0168557 0 0 0 0 0 0 0 0 0 0 0 0 0 0 0 0 0 0 0 0 0 0 0 0 0 0 0 0 0 0 0 0 0 0 0 0 0 0 0 0 0 0
0.143051 1.76454e-08 8.33105e-09 9.31436e-09 0.527863 0.0143876 0 0 0 0 0 0 0 0 0 0 0 0 0 0 0 0 0 0 0 0 0 0 0 0 0 0 0 0 0 0 0 0 0 0 0 0 0 0 0 0 0 0
0.150394 1.76514e-08 8.47442e-09 9.17701e-09 0.519902 0.0122986 0 0 0 0 0 0 0 0 0 0 0 0 0 0 0 0 0 0 0 0 0 0 0 0 0 0 0 0 0 0 0 0 0 0 0 0 0 0 0 0 0 0
0.158114 1.76017e-08 8.55434e-09 9.04736e-09 0.514005 0.01055 0 0 0 0 0 0 0 0 0 0 0 0 0 0 0 0 0 0 0 0 0 0 0 0 0 0 0 0 0 0 0 0 0 0 0 0 0 0 0 0 0 0
0.16623 1.74867e-08 8.52322e-09 8.9635e-09 0.512589 0.00908216 0 0 0 0 0 0 0 0 0 0 0 0 0 0 0 0 0 0 0 0 0 0 0 0 0 0 0 0 0 0 0 0 0 0 0 0 0 0 0 0 0 0
0.174762 1.7376e-08 8.36705e-09 9.00896e-09 0.518471 0.00782097 0 0 0 0 0 0 0 0 0 0 0 0 0 0 0 0 0 0 0 0 0 0 0 0 0 0 0 0 0 0 0 0 0 0 0 0 0 0 0 0 0 0
0.183733 1.73848e-08 8.0862e-09 9.29856e-09 0.534868 0.00667218 0 0 0 0 0 0 0 0 0 0 0 0 0 0 0 0 0 0 0 0 0 0 0 0 0 0 0 0 0 0 0 0 0 0 0 0 0 0 0 0 0 0
0.193164 1.76076e-08 7.68698e-09 9.92059e-09 0.563428 0.00556038 0 0 0 0 0 0 0 0 0 0 0 0 0 0 0 0 0 0 0 0 0 0 0 0 0 0 0 0 0 0 0 0 0 0 0 0 0 0 0 0 0 0
0.203079 1.80035e-08 7.2671e-09 1.07364e-08 0.596351 0.00446034 0 0 0 0 0 0 0 0 0 0 0 0 0 0 0 0 0 0 0 0 0 0 0 0 0 0 0 0 0 0 0 0 0 0 0 0 0 0 0 0 0 0
0.213503 1.84854e-08 6.95557e-09 1.15298e-08 0.623726 0.00342932 0 0 0 0 0 0 0 0 0 0 0 0 0 0 0 0 0 0 0 0 0 0 0 0 0 0 0 0 0 0 0 0 0 0 0 0 0 0 0 0 0 0
0.224463 1.89742e-08 6.81429e-09 1.21599e-08 0.640865 0.00254317 0 0 0 0 0 0 0 0 0 0 0 0 0 0 0 0 0 0 0 0 0 0 0 0 0 0 0 0 0 0 0 0 0 0 0 0 0 0 0 0 0 0
0.235984 1.93591e-08 6.79333e-09 1.25658e-08 0.649088 0.00182186 0 0 0 0 0 0 0 0 0 0 0 0 0 0 0 0 0 0 0 0 0 0 0 0 0 0 0 0 0 0 0 0 0 0 0 0 0 0 0 0 0 0
0.248097 1.95439e-08 6.81235e-09 1.27316e-08 0.651434 0.00138916 0 0 0 0 0 0 0 0 0 0 0 0 0 0 0 0 0 0 0 0 0 0 0 0 0 0 0 0 0 0 0 0 0 0 0 0 0 0 0 0 0 0
0.260832 1.95035e-08 6.86079e-09 1.26427e-08 0.648228 0.00141961 0 0 0 0 0 0 0 0 0 0 0 0 0 0 0 0 0 0 0 0 0 0 0 0 0 0 0 0 0 0 0 0 0 0 0 0 0 0 0 0 0 0
0.274221 1.93232e-08 6.99141e-09 1.23318e-08 0.638186 0.00187131 0 0 0 0 0 0 0 0 0 0 0 0 0 0 0 0 0 0 0 0 0 0 0 0 0 0 0 0 0 0 0 0 0 0 0 0 0 0 0 0 0 0
0.288297 1.91526e-08 7.23213e-09 1.19205e-08 0.622394 0.00251556 0 0 0 0 0 0 0 0 0 0 0 0 0 0 0 0 0 0 0 0 0 0 0 0 0 0 0 0 0 0 0 0 0 0 0 0 0 0 0 0 0 0
0.303095 1.90818e-08 7.52916e-09 1.15526e-08 0.605426 0.0028362 0 0 0 0 0 0 0 0 0 0 0 0 0 0 0 0 0 0 0 0 0 0 0 0 0 0 0 0 0 0 0 0 0 0 0 0 0 0 0 0 0 0
0.318653 1.90976e-08 7.81422e-09 1.12833e-08 0.590826 0.00297223 0 0 0 0 0 0 0 0 0 0 0 0 0 0 0 0 0 0 0 0 0 0 0 0 0 0 0 0 0 0 0 0 0 0 0 0 0 0 0 0 0 0
0.335009 1.91652e-08 8.05527e-09 1.11099e-08 0.579693 0.00293231 0 0 0 0 0 0 0 0 0 0 0 0 0 0 0 0 0 0 0 0 0 0 0 0 0 0 0 0 0 0 0 0 0 0 0 0 0 0 0 0 0 0
0.352205 1.92578e-08 8.247e-09 1.10108e-08 0.571758 0.00278811 0 0 0 0 0 0 0 0 0 0 0 0 0 0 0 0 0 0 0 0 0 0 0 0 0 0 0 0 0 0 0 0 0 0 0 0 0 0 0 0 0 0
0.370284 1.93654e-08 8.39585e-09 1.09695e-08 0.566451 0.00261033 0 0 0 0 0 0 0 0 0 0 0 0 0 0 0 0 0 0 0 0 0 0 0 0 0 0 0 0 0 0 0 0 0 0 0 0 0 0 0 0 0 0
0.389291 1.94784e-08 8.51136e-09 1.0967e-08 0.563036 0.00243645 0 0 0 0 0 0 0 0 0 0 0 0 0 0 0 0 0 0 0 0 0 0 0 0 0 0 0 0 0 0 0 0 0 0 0 0 0 0 0 0 0 0
0.409273 1.95938e-08 8.60481e-09 1.0989e-08 0.560841 0.00226652 0 0 0 0 0 0 0 0 0 0 0 0 0 0 0 0 0 0 0 0 0 0 0 0 0 0 0 0 0 0 0 0 0 0 0 0 0 0 0 0 0 0
0.430281 1.97101e-08 8.68874e-09 1.10213e-08 0.559173 0.00210471 0 0 0 0 0 0 0 0 0 0 0 0 0 0 0 0 0 0 0 0 0 0 0 0 0 0 0 0 0 0 0 0 0 0 0 0 0 0 0 0 0 0
0.452368 1.98255e-08 8.76909e-09 1.10564e-08 0.557687 0.00193723 0 0 0 0 0 0 0 0 0 0 0 0 0 0 0 0 0 0 0 0 0 0 0 0 0 0 0 0 0 0 0 0 0 0 0 0 0 0 0 0 0 0
0.475588 1.9942e-08 8.85236e-09 1.10897e-08 0.556096 0.00177642 0 0 0 0 0 0 0 0 0 0 0 0 0 0 0 0 0 0 0 0 0 0 0 0 0 0 0 0 0 0 0 0 0 0 0 0 0 0 0 0 0 0
0.5 2.00605e-08 8.94111e-09 1.11194e-08 0.554293 0.00162159 0 0 0 0 0 0 0 0 0 0 0 0 0 0 0 0 0 0 0 0 0 0 0 0 0 0 0 0 0 0 0 0 0 0 0 0 0 0 0 0 0 0
0.525665 2.01797e-08 9.03253e-09 1.11472e-08 0.552396 0.0014751 0 0 0 0 0 0 0 0 0 0 0 0 0 0 0 0 0 0 0 0 0 0 0 0 0 0 0 0 0 0 0 0 0 0 0 0 0 0 0 0 0 0
0.552648 2.03058e-08 9.12947e-09 1.11763e-08 0.550401 0.00134175 0 0 0 0 0 0 0 0 0 0 0 0 0 0 0 0 0 0 0 0 0 0 0 0 0 0 0 0 0 0 0 0 0 0 0 0 0 0 0 0 0 0
0.581015 2.04363e-08 9.23028e-09 1.1206e-08 0.548339 0.00121775 0 0 0 0 0 0 0 0 0 0 0 0 0 0 0 0 0 0 0 0 0 0 0 0 0 0 0 0 0 0 0 0 0 0 0 0 0 0 0 0 0 0
0.610839 2.05676e-08 9.32747e-09 1.12401e-08 0.546496 0.00110516 0 0 0 0 0 0 0 0 0 0 0 0 0 0 0 0 0 0 0 0 0 0 0 0 0 0 0 0 0 0 0 0 0 0 0 0 0 0 0 0 0 0
0.642193 2.0707e-08 9.42449e-09 1.12825e-08 0.544864 0.00100302 0 0 0 0 0 0 0 0 0 0 0 0 0 0 0 0 0 0 0 0 0 0 0 0 0 0 0 0 0 0 0 0 0 0 0 0 0 0 0 0 0 0
0.675157 2.08549e-08 9.52451e-09 1.13304e-08 0.543295 0.000910957 0 0 0 0 0 0 0 0 0 0 0 0 0 0 0 0 0 0 0 0 0 0 0 0 0 0 0 0 0 0 0 0 0 0 0 0 0 0 0 0 0 0
0.709813 2.1001e-08 9.61965e-09 1.13814e-08 0.541944 0.00082817 0 0 0 0 0 0 0 0 0 0 0 0 0 0 0 0 0 0 0 0 0 0 0 0 0 0 0 0 0 0 0 0 0 0 0 0 0 0 0 0 0 0
0.746248 2.11447e-08 9.70316e-09 1.14415e-08 0.541106 0.000754183 0 0 0 0 0 0 0 0 0 0 0 0 0 0 0 0 0 0 0 0 0 0 0 0 0 0 0 0 0 0 0 0 0 0 0 0 0 0 0 0 0 0
0.784553 2.12982e-08 9.78394e-09 1.15143e-08 0.540622 0.000686995 0 0 0 0 0 0 0 0 0 0 0 0 0 0 0 0 0 0 0 0 0 0 0 0 0 0 0 0 0 0 0 0 0 0 0 0 0 0 0 0 0 0
0.824824 2.14653e-08 9.87252e-09 1.15928e-08 0.540071 0.000626788 0 0 0 0 0 0 0 0 0 0 0 0 0 0 0 0 0 0 0 0 0 0 0 0 0 0 0 0 0 0 0 0 0 0 0 0 0 0 0 0 0 0
0.867162 2.16265e-08 9.95853e-09 1.1668e-08 0.539523 0.000572518 0 0 0 0 0 0 0 0 0 0 0 0 0 0 0 0 0 0 0 0 0 0 0 0 0 0 0 0 0 0 0 0 0 0 0 0 0 0 0 0 0 0
0.911674 2.17694e-08 1.0026e-08 1.17434e-08 0.539446 0.000523427 0 0 0 0 0 0 0 0 0 0 0 0 0 0 0 0 0 0 0 0 0 0 0 0 0 0 0 0 0 0 0 0 0 0 0 0 0 0 0 0 0 0
0.95847 2.19062e-08 1.00764e-08 1.18298e-08 0.540021 0.00047944 0 0 0 0 0 0 0 0 0 0 0 0 0 0 0 0 0 0 0 0 0 0 0 0 0 0 0 0 0 0 0 0 0 0 0 0 0 0 0 0 0 0
1.00767 2.20629e-08 1.0131e-08 1.19319e-08 0.540814 0.0004395 0 0 0 0 0 0 0 0 0 0 0 0 0 0 0 0 0 0 0 0 0 0 0 0 0 0 0 0 0 0 0 0 0 0 0 0 0 0 0 0 0 0
1.05939 2.22461e-08 1.02072e-08 1.2039e-08 0.541171 0.000403275 0 0 0 0 0 0 0 0 0 0 0 0 0 0 0 0 0 0 0 0 0 0 0 0 0 0 0 0 0 0 0 0 0 0 0 0 0 0 0 0 0 0
1.11377 2.24251e-08 1.02945e-08 1.21306e-08 0.540938 0.000370298 0 0 0 0 0 0 0 0 0 0 0 0 0 0 0 0 0 0 0 0 0 0 0 0 0 0 0 0 0 0 0 0 0 0 0 0 0 0 0 0 0 0
1.17094 2.25638e-08 1.03654e-08 1.21984e-08 0.540617 0.000339515 0 0 0 0 0 0 0 0 0 0 0 0 0 0 0 0 0 0 0 0 0 0 0 0 0 0 0 0 0 0 0 0 0 0 0 0 0 0 0 0 0 0
1.23105 2.26542e-08 1.03993e-08 1.22549e-08 0.540955 0.000311294 0 0 0 0 0 0 0 0 0 0 0 0 0 0 0 0 0 0 0 0 0 0 0 0 0 0 0 0 0 0 0 0 0 0 0 0 0 0 0 0 0 0
1.29424 2.27305e-08 1.0406e-08 1.23245e-08 0.5422 0.000285362 0 0 0 0 0 0 0 0 0 0 0 0 0 0 0 0 0 0 0 0 0 0 0 0 0 0 0 0 0 0 0 0 0 0 0 0 0 0 0 0 0 0
1.36067 2.28418e-08 1.04178e-08 1.24241e-08 0.543917 0.000261742 0 0 0 0 0 0 0 0 0 0 0 0 0 0 0 0 0 0 0 0 0 0 0 0 0 0 0 0 0 0 0 0 0 0 0 0 0 0 0 0 0 0
1.43051 2.30165e-08 1.04676e-08 1.25489e-08 0.545214 0.000240209 0 0 0 0 0 0 0 0 0 0 0 0 0 0 0 0 0 0 0 0 0 0 0 0 0 0 0 0 0 0 0 0 0 0 0 0 0 0 0 0 0 0
1.50394 2.32361e-08 1.05649e-08 1.26712e-08 0.545323 0.000220279 0 0 0 0 0 0 0 0 0 0 0 0 0 0 0 0 0 0 0 0 0 0 0 0 0 0 0 0 0 0 0 0 0 0 0 0 0 0 0 0 0 0
1.58114 2.34479e-08 1.06906e-08 1.27573e-08 0.544069 0.000201732 0 0 0 0 0 0 0 0 0 0 0 0 0 0 0 0 0 0 0 0 0 0 0 0 0 0 0 0 0 0 0 0 0 0 0 0 0 0 0 0 0 0
1.6623 2.35886e-08 1.08089e-08 1.27797e-08 0.541774 0.000184534 0 0 0 0 0 0 0 0 0 0 0 0 0 0 0 0 0 0 0 0 0 0 0 0 0 0 0 0 0 0 0 0 0 0 0 0 0 0 0 0 0 0
1.74763 2.36193e-08 1.08828e-08 1.27366e-08 0.539243 0.000169005 0 0 0 0 0 0 0 0 0 0 0 0 0 0 0 0 0 0 0 0 0 0 0 0 0 0 0 0 0 0 0 0 0 0 0 0 0 0 0 0 0 0
1.83733 2.35437e-08 1.08937e-08 1.26501e-08 0.537301 0.000154804 0 0 0 0 0 0 0 0 0 0 0 0 0 0 0 0 0 0 0 0 0 0 0 0 0 0 0 0 0 0 0 0 0 0 0 0 0 0 0 0 0 0
1.93164 2.34119e-08 1.08493e-08 1.25626e-08 0.536591 0.000141793 0 0 0 0 0 0 0 0 0 0 0 0 0 0 0 0 0 0 0 0 0 0 0 0 0 0 0 0 0 0 0 0 0 0 0 0 0 0 0 0 0 0
2.03079 2.32968e-08 1.07828e-08 1.2514e-08 0.537154 0.000129725 0 0 0 0 0 0 0 0 0 0 0 0 0 0 0 0 0 0 0 0 0 0 0 0 0 0 0 0 0 0 0 0 0 0 0 0 0 0 0 0 0 0
2.13503 2.32703e-08 1.07352e-08 1.25351e-08 0.538676 0.000118657 0 0 0 0 0 0 0 0 0 0 0 0 0 0 0 0 0 0 0 0 0 0 0 0 0 0 0 0 0 0 0 0 0 0 0 0 0 0 0 0 0 0
2.24463 2.33719e-08 1.07428e-08 1.26291e-08 0.540353 0.000108569 0 0 0 0 0 0 0 0 0 0 0 0 0 0 0 0 0 0 0 0 0 0 0 0 0 0 0 0 0 0 0 0 0 0 0 0 0 0 0 0 0 0
2.35984 2.36103e-08 1.08294e-08 1.27809e-08 0.541327 9.92926e-05 0 0 0 0 0 0 0 0 0 0 0 0 0 0 0 0 0 0 0 0 0 0 0 0 0 0 0 0 0 0 0 0 0 0 0 0 0 0 0 0 0 0
2.48097 2.39636e-08 1.10011e-08 1.29625e-08 0.540925 9.07218e-05 0 0 0 0 0 0 0 0 0 0 0 0 0 0 0 0 0 0 0 0 0 0 0 0 0 0 0 0 0 0 0 0 0 0 0 0 0 0 0 0 0 0
2.60832 2.43827e-08 1.12456e-08 1.31371e-08 0.538789 8.27967e-05 0 0 0 0 0 0 0 0 0 0 0 0 0 0 0 0 0 0 0 0 0 0 0 0 0 0 0 0 0 0 0 0 0 0 0 0 0 0 0 0 0 0
2.74221 2.48076e-08 1.15427e-08 1.32649e-08 0.534711 7.55862e-05 0 0 0 0 0 0 0 0 0 0 0 0 0 0 0 0 0 0 0 0 0 0 0 0 0 0 0 0 0 0 0 0 0 0 0 0 0 0 0 0 0 0
2.88297 2.51698e-08 1.18599e-08 1.33099e-08 0.528805 6.90729e-05 0 0 0 0 0 0 0 0 0 0 0 0 0 0 0 0 0 0 0 0 0 0 0 0 0 0 0 0 0 0 0 0 0 0 0 0 0 0 0 0 0 0
3.03095 2.53915e-08 1.21567e-08 1.32348e-08 0.521229 6.31538e-05 0 0 0 0 0 0 0 0 0 0 0 0 0 0 0 0 0 0 0 0 0 0 0 0 0 0 0 0 0 0 0 0 0 0 0 0 0 0 0 0 0 0
3.18653 2.53922e-08 1.23896e-08 1.30025e-08 0.512068 5.76567e-05 0 0 0 0 0 0 0 0 0 0 0 0 0 0 0 0 0 0 0 0 0 0 0 0 0 0 0 0 0 0 0 0 0 0 0 0 0 0 0 0 0 0
3.35009 2.50989e-08 1.2515e-08 1.25839e-08 0.501374 5.2603e-05 0 0 0 0 0 0 0 0 0 0 0 0 0 0 0 0 0 0 0 0 0 0 0 0 0 0 0 0 0 0 0 0 0 0 0 0 0 0 0 0 0 0
3.52205 2.44553e-08 1.25006e-08 1.19547e-08 0.488838 4.80102e-05 0 0 0 0 0 0 0 0 0 0 0 0 0 0 0 0 0 0 0 0 0 0 0 0 0 0 0 0 0 0 0 0 0 0 0 0 0 0 0 0 0 0
3.70284 2.34457e-08 1.23341e-08 1.11115e-08 0.473927 4.38066e-05 0 0 0 0 0 0 0 0 0 0 0 0 0 0 0 0 0 0 0 0 0 0 0 0 0 0 0 0 0 0 0 0 0 0 0 0 0 0 0 0 0 0
3.89291 2.2119e-08 1.20366e-08 1.00823e-08 0.455823 3.9926e-05 0 0 0 0 0 0 0 0 0 0 0 0 0 0 0 0 0 0 0 0 0 0 0 0 0 0 0 0 0 0 0 0 0 0 0 0 0 0 0 0 0 0
4.09273 2.0573e-08 1.16536e-08 8.91939e-09 0.433549 3.62643e-05 0 0 0 0 0 0 0 0 0 0 0 0 0 0 0 0 0 0 0 0 0 0 0 0 0 0 0 0 0 0 0 0 0 0 0 0 0 0 0 0 0 0
4.30281 1.895e-08 1.12441e-08 7.70593e-09 0.406645 3.29535e-05 0 0 0 0 0 0 0 0 0 0 0 0 0 0 0 0 0 0 0 0 0 0 0 0 0 0 0 0 0 0 0 0 0 0 0 0 0 0 0 0 0 0
4.52368 1.73672e-08 1.08485e-08 6.51874e-09 0.375347 2.99416e-05 0 0 0 0 0 0 0 0 0 0 0 0 0 0 0 0 0 0 0 0 0 0 0 0 0 0 0 0 0 0 0 0 0 0 0 0 0 0 0 0 0 0
4.75588 1.58888e-08 1.04699e-08 5.4189e-09 0.341051 2.71796e-05 0 0 0 0 0 0 0 0 0 0 0 0 0 0 0 0 0 0 0 0 0 0 0 0 0 0 0 0 0 0 0 0 0 0 0 0 0 0 0 0 0 0
5 1.45099e-08 1.00685e-08 4.44147e-09 0.306099 2.45398e-05 0 0 0 0 0 0 0 0 0 0 0 0 0 0 0 0 0 0 0 0 0 0 0 0 0 0 0 0 0 0 0 0 0 0 0 0 0 0 0 0 0 0
5.25665 1.31718e-08 9.57279e-09 3.59898e-09 0.273234 2.21678e-05 0 0 0 0 0 0 0 0 0 0 0 0 0 0 0 0 0 0 0 0 0 0 0 0 0 0 0 0 0 0 0 0 0 0 0 0 0 0 1.4013e-45 0 5.60519e-45 0
5.52648 1.18115e-08 8.92267e-09 2.88884e-09 0.244578 2.00489e-05 0 0 0 0 0 0 0 0 0 0 0 0 0 0 0 0 0 0 0 0 0 0 0 0 0 0 0 0 1.4013e-45 0 4.2039e-45 0 1.26117e-44 0 4.06377e-44 0 1.1911e-43 0 3.3491e-43 0 8.82818e-43 0
5.81015 1.04025e-08 8.10114e-09 2.30137e-09 0.221232 1.8115e-05 0 0 0 0 0 0 0 0 0 0 0 0 0 0 0 0 0 0 0 0 0 0 1.4013e-45 0 7.00649e-45 0 3.50325e-44 0 1.44334e-43 0 5.32493e-43 0 1.76704e-42 0 5.43984e-42 0 1.52223e-41 0 4.07764e-41 0 1.02391e-40 0
6.10839 8.98075e-09 7.15608e-09 1.82468e-09 0.203176 1.63023e-05 0 0 0 0 0 0 0 0 0 0 0 0 0 0 0 0 0 0 4.2039e-45 0 3.50325e-44 0 2.08793e-43 0 1.0776e-42 0 4.53881e-42 0 1.74924e-41 0 6.05585e-41 0 1.89573e-40 0 5.52306e-40 0 1.4698e-39 0 3.75209e-39 0 9.00766e-39 0
6.42193 7.53521e-09 6.09789e-09 1.43732e-09 0.190747 1.48144e-05 0 0 0 0 0 0 0 0 0 0 0 0 0 0 5.60519e-45 0 7.00649e-44 0 6.2638e-43 0 4.24033e-42 0 2.3574e-41 0 1.12159e-40 0 4.40333e-40 0 1.58892e-39 0 5.17729e-39 0 1.53288e-38 0 4.23873e-38 0 1.07537e-37 0 2.62242e-37 0 6.03214e-37 0
6.75157 6.28403e-09 5.14776e-09 1.13627e-09 0.180819 1.32279e-05 0 0 0 0 0 0 0 0 0 0 1.4013e-45 0 4.2039e-44 0 7.18866e-43 0 8.12753e-42 0 6.49866e-41 0 4.00755e-40 0 2.04923e-39 0 9.03491e-39 0 3.31797e-38 0 1.12456e-37 0 3.45888e-37 0 9.71236e-37 0 2.55556e-36 0 6.19539e-36 0 1.44647e-35 0 3.1946e-35 0
7.09813 5.17701e-09 4.27801e-09 8.99004e-10 0.173653 1.18448e-05 0 0 0 0 0 0 0 0 2.8026e-45 0 1.79366e-43 0 4.77563e-42 0 7.14999e-41 0 7.17728e-40 0 5.18531e-39 0 2.92585e-38 0 1.38154e-37 0 5.66548e-37 0 1.95255e-36 0 6.2349e-36 0 1.81535e-35 0 4.84681e-35 0 1.21648e-34 0 2.82429e-34 0 6.32663e-34 0 1.34424e-33 0
7.46248 4.24498e-09 3.5318e-09 7.13184e-10 0.168006 1.05694e-05 0 0 0 0 0 0 1.4013e-45 0 3.51726e-43 0 1.84901e-41 0 4.20985e-40 0 5.52236e-39 0 4.9531e-38 0 3.24908e-37 0 1.6848e-36 0 7.37474e-36 0 2.82291e-35 0 9.15854e-35 0 2.76334e-34 0 7.63668e-34 0 1.94347e-33 0 4.66351e-33 0 1.0391e-32 0 2.23779e-32 0 4.58295e-32 0
7.84553 3.48072e-09 2.91305e-09 5.67667e-10 0.163089 9.34187e-06 0 0 0 0 0 0 2.17201e-43 0 3.44607e-41 0 1.4916e-39 0 2.91558e-38 0 3.37291e-37 0 2.71794e-36 0 1.62645e-35 0 7.78267e-35 0 3.16972e-34 0 1.13634e-33 0 3.48083e-33 0 9.9512e-33 0 2.61692e-32 0 6.36293e-32 0 1.46296e-31 0 3.13466e-31 0 6.50257e-31 0 1.28591e-30 0
8.24824 2.86299e-09 2.40968e-09 4.53308e-10 0.158334 8.19911e-06 0 0 0 0 1.54143e-44 0 2.13992e-41 0 2.64679e-39 0 9.53139e-38 0 1.61136e-36 0 1.65409e-35 0 1.20378e-34 0 6.60102e-34 0 2.92621e-33 0 1.11281e-32 0 3.74831e-32 0 1.08711e-31 0 2.95251e-31 0 7.40637e-31 0 1.72438e-30 0 3.80675e-30 0 7.85874e-30 0 1.57317e-29 0 3.00914e-29 0
8.67162 2.36747e-09 2.00434e-09 3.63127e-10 0.153382 7.20916e-06 0 0 0 0 1.76423e-42 0 1.65568e-39 0 1.61858e-37 0 4.89304e-36 0 7.20541e-35 0 6.60153e-34 0 4.36062e-33 0 2.20053e-32 0 9.07084e-32 0 3.23176e-31 0 1.0259e-30 0 2.82464e-30 0 7.30628e-30 0 1.7523e-29 0 3.91486e-29 0 8.31469e-29 0 1.65682e-28 0 3.20613e-28 0 5.94151e-28 0
9.11674 1.97068e-09 1.67898e-09 2.917e-10 0.14802 6.32492e-06 0 0 1.4013e-45 0 1.51983e-40 0 1.02137e-37 0 7.98314e-36 0 2.04333e-34 0 2.63868e-33 0 2.16973e-32 0 1.30701e-31 0 6.09446e-31 0 2.34435e-30 0 7.85006e-30 0 2.35529e-29 0 6.17203e-29 0 1.52409e-28 0 3.50246e-28 0 7.52379e-28 0 1.54026e-27 0 2.96759e-27 0 5.56048e-27 0 9.99877e-27 0
9.5847 1.65234e-09 1.41745e-09 2.34882e-10 0.142152 5.52644e-06 0 0 1.00893e-43 0 1.03986e-38 0 5.08532e-36 0 3.2128e-34 0 7.01934e-33 0 8.00017e-32 0 5.9353e-31 0 3.2752e-30 0 1.41661e-29 0 5.10235e-29 0 1.61063e-28 0 4.58005e-28 0 1.14505e-27 0 2.70546e-27 0 5.96981e-27 0 1.23541e-26 0 2.44218e-26 0 4.55702e-26 0 8.28084e-26 0 1.44699e-25 0
10.0767 1.39613e-09 1.20658e-09 1.89555e-10 0.135772 4.78203e-06 0 0 9.76004e-42 0 5.71787e-37 0 2.06668e-34 0 1.06642e-32 0 2.00422e-31 0 2.02839e-30 0 1.36458e-29 0 6.92753e-29 0 2.78957e-28 0 9.43813e-28 0 2.81668e-27 0 7.61117e-27 0 1.81961e-26 0 4.1225e-26 0 8.75184e-26 0 1.74795e-25 0 3.34229e-25 0 6.04953e-25 0 1.0677e-24 0 1.81555e-24 0
10.5939 1.18821e-09 1.03502e-09 1.53189e-10 0.128924 4.06995e-06 5.60519e-45 0 7.45023e-40 0 2.55361e-35 0 6.92309e-33 0 2.9467e-31 0 4.79899e-30 0 4.33788e-29 0 2.65894e-28 0 1.24692e-27 0 4.69094e-27 0 1.49542e-26 0 4.23088e-26 0 1.0891e-25 0 2.49524e-25 0 5.43192e-25 0 1.11155e-24 0 2.1463e-24 0 3.97614e-24 0 6.9913e-24 0 1.20016e-23 0 1.98857e-23 0
11.1377 1.01695e-09 8.93115e-10 1.23834e-10 0.12177 3.40803e-06 6.45999e-43 0 4.53891e-38 0 9.34373e-34 0 1.92695e-31 0 6.82921e-30 0 9.70552e-29 0 7.87888e-28 0 4.42028e-27 0 1.92226e-26 0 6.77858e-26 0 2.04202e-25 0 5.4913e-25 0 1.34978e-24 0 2.96981e-24 0 6.22408e-24 0 1.2299e-23 0 2.29973e-23 0 4.13404e-23 0 7.07139e-23 0 1.1823e-22 0 1.91127e-22 0
11.7094 9.04616e-10 8.03056e-10 1.0156e-10 0.112269 2.82232e-06 5.67456e-41 0 2.31229e-36 0 2.93093e-32 0 4.65971e-30 0 1.38742e-28 0 1.73212e-27 0 1.26946e-26 0 6.54693e-26 0 2.64991e-25 0 8.78692e-25 0 2.50827e-24 0 6.42709e-24 0 1.51193e-23 0 3.20094e-23 0 6.47046e-23 0 1.23676e-22 0 2.24297e-22 0 3.9182e-22 0 6.5288e-22 0 1.06453e-21 0 1.681e-21 0
