# 0.000535041 4 92 : grain size, compostion index, size index
# This grain was stochastically heated: No
# Heating and cooling timescale: 8.55502e-05 1.07114e+21
# Ratio of heating to cooling to determine stochastic cutoff: 100
# Equilibrium emission is recorded even for those grains in the stochastic regime.
# Emission spectrum was computed for: 
# Type: IRSF
# Scale: 1
# Temperature: -1
# Wavelength  CExt  CAbs  CSca  Albedo G EqEmission StEmission
0.05 1.81852e-06 7.67143e-07 1.05138e-06 0.57815 0.932213 0 0
0.0525665 1.81941e-06 7.60706e-07 1.05871e-06 0.581894 0.926467 0 0
0.0552647 1.82038e-06 7.49827e-07 1.07055e-06 0.588092 0.917678 0 0
0.0581015 1.82153e-06 7.3327e-07 1.08826e-06 0.597443 0.904012 0 0
0.0610839 1.8229e-06 7.16732e-07 1.10616e-06 0.606816 0.888691 0 0
0.0642193 1.82435e-06 7.0543e-07 1.11892e-06 0.613326 0.876236 0 0
0.0675157 1.82585e-06 6.99372e-07 1.12648e-06 0.616961 0.867453 0 0
0.0709813 1.82737e-06 6.97588e-07 1.12978e-06 0.618255 0.861919 0 0
0.0746248 1.82889e-06 6.99363e-07 1.12953e-06 0.617603 0.859228 0 0
0.0784553 1.83036e-06 7.05137e-07 1.12523e-06 0.614756 0.859868 0 0
0.0824824 1.83168e-06 7.16517e-07 1.11516e-06 0.60882 0.865358 0 0
0.0867162 1.83278e-06 7.21421e-07 1.11136e-06 0.606379 0.868318 0 0
0.0911674 1.83433e-06 7.15671e-07 1.11866e-06 0.609846 0.861881 0 0
0.095847 1.83597e-06 7.15691e-07 1.12028e-06 0.610183 0.858619 0 0
0.100767 1.83746e-06 7.18682e-07 1.11878e-06 0.608872 0.85815 0 0
0.105939 1.83873e-06 7.26672e-07 1.11206e-06 0.604797 0.862016 0 0
0.111377 1.83989e-06 7.34747e-07 1.10515e-06 0.600658 0.867027 0 0
0.117094 1.84114e-06 7.40248e-07 1.10089e-06 0.59794 0.870167 0 0
0.123105 1.84244e-06 7.44222e-07 1.09822e-06 0.596068 0.872142 0 0
0.129424 1.8438e-06 7.46948e-07 1.09685e-06 0.594887 0.873098 0 0
0.136067 1.84523e-06 7.48291e-07 1.09694e-06 0.594472 0.872849 0 0
0.143051 1.84668e-06 7.47448e-07 1.09923e-06 0.595248 0.870526 0 0
0.150394 1.84787e-06 7.50658e-07 1.09721e-06 0.593771 0.871715 0 0
0.158114 1.84897e-06 7.59078e-07 1.0899e-06 0.58946 0.878074 0 0
0.16623 1.8503e-06 7.68639e-07 1.08166e-06 0.584586 0.885815 0 0
0.174762 1.85183e-06 7.77313e-07 1.07452e-06 0.580246 0.892842 0 0
0.183733 1.8535e-06 7.85189e-07 1.06831e-06 0.576375 0.899123 0 0
0.193164 1.85529e-06 7.92088e-07 1.06321e-06 0.573066 0.904448 0 0
0.203079 1.85718e-06 7.98192e-07 1.05899e-06 0.570213 0.90897 0 0
0.213503 1.85915e-06 8.03782e-07 1.05537e-06 0.567662 0.91294 0 0
0.224463 1.86121e-06 8.08707e-07 1.0525e-06 0.565493 0.916221 0 0
0.235984 1.86332e-06 8.12906e-07 1.05042e-06 0.563733 0.918764 0 0
0.248097 1.8655e-06 8.16481e-07 1.04902e-06 0.562326 0.920668 0 0
0.260832 1.86774e-06 8.19698e-07 1.04804e-06 0.561128 0.92218 0 0
0.274221 1.87006e-06 8.22708e-07 1.04735e-06 0.560064 0.923435 0 0
0.288297 1.87246e-06 8.25547e-07 1.04691e-06 0.559111 0.924467 0 0
0.303095 1.87497e-06 8.2826e-07 1.04671e-06 0.558254 0.925317 0 0
0.318653 1.87746e-06 8.30911e-07 1.04655e-06 0.557428 0.926032 0 0
0.335009 1.88023e-06 8.33505e-07 1.04672e-06 0.5567 0.926636 0 0
0.352205 1.88295e-06 8.36088e-07 1.04687e-06 0.55597 0.927145 0 0
0.370284 1.8857e-06 8.38667e-07 1.04704e-06 0.55525 0.927569 0 0
0.389291 1.88844e-06 8.41223e-07 1.04722e-06 0.554541 0.927888 0 0
0.409273 1.89139e-06 8.43784e-07 1.0476e-06 0.553881 0.92814 0 0
0.430281 1.89451e-06 8.46394e-07 1.04812e-06 0.553239 0.928363 0 0
0.452368 1.89794e-06 8.48984e-07 1.04896e-06 0.552682 0.928504 0 0
0.475588 1.90193e-06 8.51608e-07 1.05032e-06 0.552241 0.928631 0 0
0.5 1.90559e-06 8.5426e-07 1.05133e-06 0.551709 0.928677 0 0
0.525665 1.90778e-06 8.56934e-07 1.05084e-06 0.550821 0.928566 0 0
0.552647 1.91077e-06 8.59649e-07 1.05112e-06 0.550103 0.928474 0 0
0.581015 1.91777e-06 8.62278e-07 1.05549e-06 0.550374 0.928504 0 0
0.610839 1.9188e-06 8.64912e-07 1.05389e-06 0.549245 0.928103 0 0
0.642193 1.92309e-06 8.67543e-07 1.05555e-06 0.548881 0.927847 0 0
0.675157 1.93045e-06 8.70096e-07 1.06036e-06 0.549279 0.927697 0 0
0.709813 1.92864e-06 8.72671e-07 1.05597e-06 0.547521 0.926855 0 0
0.746248 1.94132e-06 8.75038e-07 1.06628e-06 0.549256 0.926895 0 0
0.784553 1.93631e-06 8.77433e-07 1.05887e-06 0.546852 0.925559 0 0
0.824824 1.95113e-06 8.79513e-07 1.07162e-06 0.549229 0.925568 0 0
0.867162 1.949e-06 8.81472e-07 1.06753e-06 0.547732 0.924199 0 0
0.911674 1.95277e-06 8.83288e-07 1.06949e-06 0.547675 0.923059 0 0
0.95847 1.97304e-06 8.84981e-07 1.08806e-06 0.551464 0.922971 0 0
1.00767 1.95198e-06 8.85851e-07 1.06613e-06 0.546178 0.919814 0 0
1.05939 1.98031e-06 8.87087e-07 1.09322e-06 0.552046 0.920095 0 0
1.11377 1.98997e-06 8.88044e-07 1.10192e-06 0.553739 0.918762 0 0
1.17094 1.96126e-06 8.8908e-07 1.07218e-06 0.546679 0.91418 0 0
1.23105 1.99738e-06 8.88001e-07 1.10938e-06 0.555417 0.914053 0 0
1.29424 2.02403e-06 8.87779e-07 1.13625e-06 0.56138 0.913882 0 0
1.36067 1.98284e-06 8.87284e-07 1.09555e-06 0.552517 0.908148 0 0
1.43051 1.98152e-06 8.85675e-07 1.09584e-06 0.553032 0.904768 0 0
1.50394 2.04899e-06 8.87958e-07 1.16103e-06 0.566635 0.907359 0 0
1.58114 2.06215e-06 8.84763e-07 1.17738e-06 0.570951 0.904401 0 0
1.6623 2.0062e-06 8.86669e-07 1.11953e-06 0.558035 0.895437 0 0
1.74762 1.98266e-06 8.78445e-07 1.10421e-06 0.556936 0.888514 0 0
1.83733 2.05901e-06 8.79607e-07 1.1794e-06 0.5728 0.89246 0 0
1.93164 2.13242e-06 8.80345e-07 1.25207e-06 0.587162 0.896435 0 0
2.03079 2.11029e-06 8.77396e-07 1.2329e-06 0.58423 0.892163 9.91433e-287 0
2.13503 2.02816e-06 8.7402e-07 1.15414e-06 0.569057 0.879446 1.64082e-272 0
2.24463 1.98608e-06 8.72576e-07 1.11351e-06 0.560655 0.867509 5.43415e-259 0
2.35984 2.03942e-06 8.67941e-07 1.17147e-06 0.574417 0.86504 3.874e-246 0
2.48097 2.15344e-06 8.62804e-07 1.29063e-06 0.599336 0.870203 6.42671e-234 0
2.60832 2.23467e-06 8.61672e-07 1.373e-06 0.614408 0.871722 2.67762e-222 0
2.74221 2.22239e-06 8.60484e-07 1.3619e-06 0.612811 0.861518 2.98426e-211 0
2.88297 2.13407e-06 8.63515e-07 1.27055e-06 0.595367 0.846128 9.53549e-201 0
3.03095 2.03962e-06 8.63967e-07 1.17566e-06 0.576409 0.832909 9.21379e-191 0
3.18653 2.00012e-06 8.54795e-07 1.14533e-06 0.572629 0.819694 2.83043e-181 0
3.35009 2.04308e-06 8.52464e-07 1.19062e-06 0.582756 0.829268 2.97849e-172 0
3.52205 2.17153e-06 8.54477e-07 1.31705e-06 0.606509 0.844698 1.12843e-163 0
3.70284 2.3471e-06 8.59847e-07 1.48726e-06 0.633656 0.861602 1.6164e-155 0
3.89291 2.4683e-06 8.65103e-07 1.60319e-06 0.649514 0.862237 9.14476e-148 0
4.09273 2.46697e-06 8.71503e-07 1.59546e-06 0.646731 0.865288 2.1412e-140 0
4.30281 2.43306e-06 8.76764e-07 1.5563e-06 0.639646 0.833744 2.16068e-133 0
4.52368 2.23702e-06 8.71106e-07 1.36591e-06 0.610595 0.809605 9.68208e-127 0
4.75588 2.10212e-06 8.77329e-07 1.22479e-06 0.582646 0.744258 2.05615e-120 0
5 1.92644e-06 8.52474e-07 1.07397e-06 0.557487 0.690369 2.0441e-114 0
5.25665 1.97014e-06 8.81793e-07 1.08835e-06 0.552421 0.651121 1.08744e-108 0
5.52648 1.99819e-06 8.39305e-07 1.15888e-06 0.579966 0.641812 2.76674e-103 0
5.81015 2.31737e-06 8.66978e-07 1.45039e-06 0.625878 0.705633 4.10054e-98 0
6.10839 2.54106e-06 8.40309e-07 1.70075e-06 0.669307 0.733135 3.15448e-93 0
6.42193 2.89982e-06 8.2024e-07 2.07958e-06 0.717141 0.786984 1.39192e-88 0
6.75157 3.12108e-06 8.07049e-07 2.31403e-06 0.74142 0.819136 3.62327e-84 0
7.09813 3.12001e-06 7.36977e-07 2.38303e-06 0.76379 0.842527 5.26029e-80 0
7.46248 2.59714e-06 7.56911e-07 1.84022e-06 0.708559 0.874001 5.29022e-76 0
7.84553 1.74808e-06 9.0323e-07 8.44849e-07 0.483301 0.887701 3.89928e-72 0
8.24824 1.65992e-06 1.04921e-06 6.1071e-07 0.367916 0.87588 1.80457e-68 0
8.67162 1.84731e-06 1.11587e-06 7.31437e-07 0.395947 0.848984 5.0397e-65 0
9.11674 2.07956e-06 1.16567e-06 9.1389e-07 0.439463 0.809215 9.29737e-62 0
9.5847 2.29876e-06 1.22652e-06 1.07224e-06 0.466442 0.777759 1.18482e-58 0
10.0767 2.40049e-06 1.26023e-06 1.14026e-06 0.475012 0.759671 1.02976e-55 0
10.5939 2.47514e-06 1.2778e-06 1.19734e-06 0.483746 0.74026 6.27869e-53 0
11.1377 2.51186e-06 1.29881e-06 1.21305e-06 0.48293 0.730643 2.77375e-50 0
11.7094 2.54488e-06 1.32492e-06 1.21996e-06 0.479379 0.722857 9.03018e-48 0
12.3105 2.57868e-06 1.35897e-06 1.21971e-06 0.472997 0.716528 2.20377e-45 0
12.9424 2.62003e-06 1.39638e-06 1.22364e-06 0.467035 0.709474 4.07428e-43 0
13.6067 2.69622e-06 1.41739e-06 1.27883e-06 0.474306 0.698937 5.70472e-41 0
14.3051 2.77861e-06 1.40849e-06 1.37012e-06 0.493096 0.701825 6.07302e-39 0
15.0394 2.68832e-06 1.40637e-06 1.28195e-06 0.476858 0.703645 5.10808e-37 0
15.8114 2.55569e-06 1.40637e-06 1.14931e-06 0.449708 0.688494 3.42319e-35 0
16.623 2.4868e-06 1.41872e-06 1.06808e-06 0.429501 0.665349 1.86186e-33 0
17.4762 2.49564e-06 1.44116e-06 1.05447e-06 0.422527 0.637028 8.29112e-32 0
18.3733 2.55068e-06 1.46385e-06 1.08683e-06 0.426095 0.605024 3.03244e-30 0
19.3164 2.61311e-06 1.4771e-06 1.13601e-06 0.434735 0.570307 9.13674e-29 0
20.3079 2.65342e-06 1.4774e-06 1.17602e-06 0.443209 0.533437 2.28376e-27 0
21.3503 2.67061e-06 1.47069e-06 1.19992e-06 0.449305 0.493436 4.79605e-26 0
22.4463 2.68919e-06 1.46328e-06 1.22591e-06 0.455866 0.45026 8.56935e-25 0
23.5984 2.71508e-06 1.46207e-06 1.25301e-06 0.461501 0.407856 1.31914e-23 0
24.8097 2.75459e-06 1.46981e-06 1.28478e-06 0.466413 0.367338 1.76605e-22 0
26.0832 2.80451e-06 1.4885e-06 1.31601e-06 0.469247 0.331732 2.07345e-21 0
27.4221 2.85957e-06 1.51542e-06 1.34415e-06 0.470053 0.300754 2.14499e-20 0
28.8297 2.90555e-06 1.54594e-06 1.35961e-06 0.467936 0.274384 1.96133e-19 0
30.3095 2.93142e-06 1.57371e-06 1.35772e-06 0.463159 0.25223 1.58835e-18 0
31.8653 2.9193e-06 1.59112e-06 1.32818e-06 0.454965 0.234915 1.14054e-17 0
33.5009 2.86288e-06 1.59014e-06 1.27274e-06 0.444567 0.220942 7.26682e-17 0
35.2206 2.74672e-06 1.56311e-06 1.18361e-06 0.430918 0.210193 4.10981e-16 0
37.0284 2.58335e-06 1.50885e-06 1.07449e-06 0.415931 0.201628 2.07008e-15 0
38.9291 2.3826e-06 1.42892e-06 9.53685e-07 0.40027 0.194645 9.32225e-15 0
40.9273 2.15753e-06 1.32799e-06 8.29535e-07 0.384485 0.18879 3.77144e-14 0
43.0282 1.91514e-06 1.20913e-06 7.06013e-07 0.368647 0.18399 1.37434e-13 0
45.2368 1.67333e-06 1.08176e-06 5.91569e-07 0.353529 0.179233 4.54299e-13 0
47.5588 1.44026e-06 9.51804e-07 4.88451e-07 0.339142 0.173721 1.36879e-12 0
50 1.22786e-06 8.27608e-07 4.00256e-07 0.325977 0.167505 3.7912e-12 0
52.5665 1.0374e-06 7.12134e-07 3.2527e-07 0.313542 0.160115 9.70084e-12 0
55.2648 8.71375e-07 6.08337e-07 2.63039e-07 0.301866 0.151852 2.30816e-11 0
58.1015 7.29881e-07 5.17587e-07 2.12293e-07 0.29086 0.14296 5.13994e-11 0
61.0839 6.1027e-07 4.393e-07 1.7097e-07 0.280155 0.133624 1.07616e-10 0
64.2193 5.1015e-07 3.72571e-07 1.37579e-07 0.269683 0.124191 2.12821e-10 0
67.5157 4.27089e-07 3.16379e-07 1.1071e-07 0.259221 0.114809 3.99431e-10 0
70.9813 3.58402e-07 2.69237e-07 8.9165e-08 0.248785 0.105709 7.13964e-10 0
74.6248 3.0158e-07 2.29754e-07 7.18265e-08 0.238167 0.0969558 1.21918e-09 0
78.4553 2.54524e-07 1.96618e-07 5.79054e-08 0.227505 0.0887139 1.99378e-09 0
82.4824 2.15627e-07 1.68875e-07 4.67521e-08 0.216819 0.0810048 3.13203e-09 0
86.7162 1.83371e-07 1.45592e-07 3.77797e-08 0.206028 0.0738175 4.73694e-09 0
91.1674 1.56484e-07 1.25932e-07 3.05516e-08 0.195238 0.0671758 6.90837e-09 0
95.847 1.33995e-07 1.09269e-07 2.47258e-08 0.184528 0.0610671 9.73251e-09 0
100.767 1.15217e-07 9.51736e-08 2.00431e-08 0.17396 0.0554692 1.32786e-08 0
105.939 9.95207e-08 8.32666e-08 1.62541e-08 0.163324 0.0503248 1.75869e-08 0
111.377 8.60997e-08 7.29103e-08 1.31894e-08 0.153187 0.0456472 2.25681e-08 0
117.094 7.47106e-08 6.3997e-08 1.07136e-08 0.143402 0.0413977 2.81475e-08 0
123.105 6.50781e-08 5.63677e-08 8.7104e-09 0.133845 0.0375227 3.42082e-08 0
129.424 5.69204e-08 4.98353e-08 7.08508e-09 0.124474 0.0339991 4.05812e-08 0
136.067 4.97915e-08 4.40264e-08 5.76503e-09 0.115783 0.0308062 4.6844e-08 0
143.051 4.3812e-08 3.91171e-08 4.69487e-09 0.107159 0.0278962 5.30253e-08 0
150.394 3.84978e-08 3.46725e-08 3.82531e-09 0.0993645 0.0252661 5.84578e-08 0
158.114 3.41038e-08 3.09866e-08 3.11723e-09 0.0914043 0.022869 6.35111e-08 0
166.23 3.01519e-08 2.76111e-08 2.54078e-09 0.084266 0.020702 6.73202e-08 0
174.763 2.65883e-08 2.45152e-08 2.07317e-09 0.0779728 0.0187477 6.96485e-08 0
183.733 2.36642e-08 2.19725e-08 1.69175e-09 0.0714899 0.0169695 7.13259e-08 0
193.164 2.10156e-08 1.9635e-08 1.38057e-09 0.0656927 0.0153608 7.1481e-08 0
203.079 1.86616e-08 1.75345e-08 1.12715e-09 0.0603991 0.0139062 7.03319e-08 0
213.503 1.66586e-08 1.57378e-08 9.20827e-10 0.0552763 0.0125897 6.83905e-08 0
224.463 1.4819e-08 1.40668e-08 7.52257e-10 0.0507629 0.0113985 6.51786e-08 0
235.984 1.32397e-08 1.26252e-08 6.14516e-10 0.0464144 0.010318 6.14369e-08 0
248.097 1.17945e-08 1.1292e-08 5.02516e-10 0.042606 0.00934734 5.68855e-08 0
260.832 1.04043e-08 9.99351e-09 4.10799e-10 0.0394836 0.00846318 5.14139e-08 0
274.221 9.17013e-09 8.83445e-09 3.35672e-10 0.0366049 0.00765768 4.5822e-08 0
288.297 8.12675e-09 7.85255e-09 2.74196e-10 0.03374 0.00692429 4.05638e-08 0
303.095 7.19401e-09 6.96987e-09 2.24142e-10 0.0311568 0.00626186 3.54466e-08 0
318.653 6.43469e-09 6.25149e-09 1.83195e-10 0.02847 0.0056615 3.09615e-08 0
335.009 5.72265e-09 5.57295e-09 1.497e-10 0.0261592 0.00511837 2.66035e-08 0
352.206 5.07814e-09 4.95577e-09 1.22363e-10 0.024096 0.00462761 2.25818e-08 0
370.284 4.56671e-09 4.46665e-09 1.0006e-10 0.0219108 0.00418414 1.92507e-08 0
389.291 4.08612e-09 4.00432e-09 8.18045e-11 0.0200201 0.00378289 1.6183e-08 0
409.273 3.67084e-09 3.60397e-09 6.6867e-11 0.0182157 0.00341979 1.35471e-08 0
430.282 3.31305e-09 3.25836e-09 5.46882e-11 0.0165069 0.00309194 1.13052e-08 0
452.368 2.98307e-09 2.93834e-09 4.47277e-11 0.0149938 0.00279556 9.34267e-09 0
475.588 2.70781e-09 2.67123e-09 3.65778e-11 0.0135083 0.00252778 7.73092e-09 0
500 2.44814e-09 2.41823e-09 2.99097e-11 0.0122173 0.00228555 6.33011e-09 0
525.665 2.23089e-09 2.20641e-09 2.44761e-11 0.0109714 0.0020673 5.1928e-09 0
552.648 2.02897e-09 2.00895e-09 2.00246e-11 0.00986933 0.00186974 4.2272e-09 0
581.015 1.85443e-09 1.83805e-09 1.6379e-11 0.00883235 0.00169092 3.43978e-09 0
610.838 1.69372e-09 1.68032e-09 1.3401e-11 0.00791219 0.00152947 2.78298e-09 0
642.193 1.55178e-09 1.54081e-09 1.09687e-11 0.00706847 0.00138376 2.24805e-09 0
675.157 1.42446e-09 1.41548e-09 8.97563e-12 0.00630108 0.00125183 1.8114e-09 0
709.813 1.3102e-09 1.30286e-09 7.34303e-12 0.00560451 0.00113241 1.45645e-09 0
746.247 1.20634e-09 1.20033e-09 6.01066e-12 0.00498254 0.00102454 1.16771e-09 0
784.553 1.11215e-09 1.10723e-09 4.91971e-12 0.0044236 0.000926928 9.34008e-10 0
824.824 1.02623e-09 1.0222e-09 4.02608e-12 0.00392319 0.000838656 7.45199e-10 0
867.162 9.46095e-10 9.428e-10 3.29458e-12 0.00348229 0.000758815 5.92126e-10 0
911.674 8.71336e-10 8.68639e-10 2.69766e-12 0.003096 0.00068674 4.6861e-10 0
958.471 8.03567e-10 8.01359e-10 2.20854e-12 0.00274842 0.000621566 3.70317e-10 0
1007.67 7.40052e-10 7.38245e-10 1.80761e-12 0.00244255 0.000562525 2.91471e-10 0
1059.39 6.84178e-10 6.82698e-10 1.47969e-12 0.00216273 0.000509045 2.29728e-10 0
1113.77 6.31152e-10 6.2994e-10 1.21154e-12 0.00191957 0.000460685 1.80252e-10 0
1170.94 5.80767e-10 5.79776e-10 9.91702e-13 0.00170757 0.000416886 1.40768e-10 0
1231.05 5.34283e-10 5.33471e-10 8.11686e-13 0.00151921 0.000377313 1.09684e-10 0
1294.24 4.93983e-10 4.93318e-10 6.64681e-13 0.00134556 0.00034152 8.57278e-11 0
1360.67 4.56115e-10 4.55571e-10 5.44213e-13 0.00119315 0.000309096 6.67946e-11 0
1430.51 4.20128e-10 4.19682e-10 4.45471e-13 0.00106032 0.000279736 5.18283e-11 0
1503.94 3.86214e-10 3.85849e-10 3.64619e-13 0.000944085 0.000253161 4.00721e-11 0
1581.14 3.58031e-10 3.57732e-10 2.98592e-13 0.000833985 0.000229128 3.11974e-11 0
1662.3 3.31272e-10 3.31028e-10 2.44454e-13 0.000737926 0.000207361 2.42077e-11 0
1747.63 3.0583e-10 3.05629e-10 2.00079e-13 0.000654216 0.000187649 1.87172e-11 0
1837.33 2.81665e-10 2.81501e-10 1.63803e-13 0.000581552 0.000169827 1.44195e-11 0
1931.64 2.5871e-10 2.58576e-10 1.34134e-13 0.000518472 0.00015371 1.10656e-11 0
2030.79 2.37826e-10 2.37717e-10 1.09806e-13 0.000461705 0.000139106 8.48954e-12 0
2135.03 2.20077e-10 2.19987e-10 8.98603e-14 0.000408313 0.000125865 6.54953e-12 0
2244.63 2.03225e-10 2.03152e-10 7.35818e-14 0.00036207 0.000113907 5.03732e-12 0
2359.84 1.872e-10 1.8714e-10 6.02441e-14 0.000321816 0.000103082 3.86111e-12 0
2480.97 1.72038e-10 1.71989e-10 4.9311e-14 0.000286628 9.32787e-05 2.95008e-12 0
2608.32 1.59134e-10 1.59093e-10 4.03624e-14 0.000253638 8.44146e-05 2.26683e-12 0
2742.21 1.4694e-10 1.46907e-10 3.3055e-14 0.000224955 7.6406e-05 1.73743e-12 0
2882.96 1.35343e-10 1.35316e-10 2.70636e-14 0.000199963 6.9153e-05 1.32737e-12 0
3030.95 1.24609e-10 1.24587e-10 2.2152e-14 0.000177771 6.2582e-05 1.01297e-12 0
3186.53 1.1553e-10 1.15511e-10 1.8135e-14 0.000156973 5.66323e-05 7.77935e-13 0
3350.09 1.069e-10 1.06885e-10 1.48494e-14 0.000138909 5.12518e-05 5.95889e-13 0
3522.05 9.869e-11 9.86778e-11 1.21558e-14 0.000123172 4.63793e-05 4.55137e-13 0
3702.84 9.08796e-11 9.08697e-11 9.94828e-15 0.000109467 4.1967e-05 3.46558e-13 0
3892.91 8.34633e-11 8.34551e-11 8.14654e-15 9.76063e-05 3.79818e-05 2.63039e-13 0
4092.73 7.68739e-11 7.68672e-11 6.67001e-15 8.67656e-05 3.43726e-05 2.00126e-13 0
4302.81 7.11375e-11 7.1132e-11 5.45949e-15 7.67456e-05 3.11025e-05 1.52904e-13 0
4523.68 6.56823e-11 6.56778e-11 4.46847e-15 6.80315e-05 2.81434e-05 1.16512e-13 0
4755.88 6.05003e-11 6.04966e-11 3.6592e-15 6.04824e-05 2.54699e-05 8.85325e-14 0
5000 5.56089e-11 5.56059e-11 2.99568e-15 5.38706e-05 2.30487e-05 6.71026e-14 0
