# 5.0119e-06 1 86 : grain size, compostion index, size index
# Heating and cooling timescale: 1.90235 227098
# Ratio of heating to cooling to determine stochastic cutoff: 100
# Equilibrium emission is recorded even for those grains in the stochastic regime.
# Emission spectrum was computed for: 
# Type: IRSF
# Scales: 0.25 0.5 1 1.5 2 2.5 3 3.5 4 4.5 5 5.5 6 6.5 7 7.5 8 8.5 9 9.5 10
# StochasticallyHeated: 0 0 0 0 0 0 0 0 0 0 0 0 0 0 0 0 0 0 0 0 0
# Temperature: -1
# Wavelength  CExt  CAbs  CSca  Albedo G EqEm1 StEm1 EqEm2 StEm2 EqEm3 StEm3 EqEm4 StEm4 EqEm5 StEm5 EqEm6 StEm6 EqEm7 StEm7 EqEm8 StEm8 EqEm9 StEm9 EqEm10 StEm10 EqEm11 StEm11 EqEm12 StEm12 EqEm13 StEm13 EqEm14 StEm14 EqEm15 StEm15 EqEm16 StEm16 EqEm17 StEm17 EqEm18 StEm18 EqEm19 StEm19 EqEm20 StEm20 EqEm21 StEm21
0.05 5.13683e-11 2.87024e-11 2.26659e-11 0.441243 0.18781 0 0 0 0 0 0 0 0 0 0 0 0 0 0 0 0 0 0 0 0 0 0 0 0 0 0 0 0 0 0 0 0 0 0 0 0 0 0 0 0 0 0
0.0525665 5.67772e-11 3.17247e-11 2.50525e-11 0.441243 0.207585 0 0 0 0 0 0 0 0 0 0 0 0 0 0 0 0 0 0 0 0 0 0 0 0 0 0 0 0 0 0 0 0 0 0 0 0 0 0 0 0 0 0
0.0552647 6.27556e-11 3.50651e-11 2.76904e-11 0.441243 0.229443 0 0 0 0 0 0 0 0 0 0 0 0 0 0 0 0 0 0 0 0 0 0 0 0 0 0 0 0 0 0 0 0 0 0 0 0 0 0 0 0 0 0
0.0581015 6.93634e-11 3.87573e-11 3.06061e-11 0.441243 0.253602 0 0 0 0 0 0 0 0 0 0 0 0 0 0 0 0 0 0 0 0 0 0 0 0 0 0 0 0 0 0 0 0 0 0 0 0 0 0 0 0 0 0
0.0610839 7.6667e-11 4.28383e-11 3.38288e-11 0.441243 0.280306 0 0 0 0 0 0 0 0 0 0 0 0 0 0 0 0 0 0 0 0 0 0 0 0 0 0 0 0 0 0 0 0 0 0 0 0 0 0 0 0 0 0
0.0642193 8.47397e-11 4.73489e-11 3.73908e-11 0.441243 0.30982 0 0 0 0 0 0 0 0 0 0 0 0 0 0 0 0 0 0 0 0 0 0 0 0 0 0 0 0 0 0 0 0 0 0 0 0 0 0 0 0 0 0
0.0675157 9.36624e-11 5.23345e-11 4.13278e-11 0.441243 0.342443 0 0 0 0 0 0 0 0 0 0 0 0 0 0 0 0 0 0 0 0 0 0 0 0 0 0 0 0 0 0 0 0 0 0 0 0 0 0 0 0 0 0
0.0709813 1.03525e-10 5.78451e-11 4.56794e-11 0.441243 0.3785 0 0 0 0 0 0 0 0 0 0 0 0 0 0 0 0 0 0 0 0 0 0 0 0 0 0 0 0 0 0 0 0 0 0 0 0 0 0 0 0 0 0
0.0746248 1.14425e-10 6.39359e-11 5.04893e-11 0.441243 0.418355 0 0 0 0 0 0 0 0 0 0 0 0 0 0 0 0 0 0 0 0 0 0 0 0 0 0 0 0 0 0 0 0 0 0 0 0 0 0 0 0 0 0
0.0784553 1.26474e-10 7.0668e-11 5.58055e-11 0.441243 0.462405 0 0 0 0 0 0 0 0 0 0 0 0 0 0 0 0 0 0 0 0 0 0 0 0 0 0 0 0 0 0 0 0 0 0 0 0 0 0 0 0 0 0
0.0824824 1.39791e-10 7.8109e-11 6.16816e-11 0.441243 0.511094 0 0 0 0 0 0 0 0 0 0 0 0 0 0 0 0 0 0 0 0 0 0 0 0 0 0 0 0 0 0 0 0 0 0 0 0 0 0 0 0 0 0
0.0867162 1.5451e-10 8.63336e-11 6.81764e-11 0.441243 0.564911 0 0 0 0 0 0 0 0 0 0 0 0 0 0 0 0 0 0 0 0 0 0 0 0 0 0 0 0 0 0 0 0 0 0 0 0 0 0 0 0 0 0
0.0911674 1.70779e-10 9.54241e-11 7.53551e-11 0.441243 0.624393 0 0 0 0 0 0 0 0 0 0 0 0 0 0 0 0 0 0 0 0 0 0 0 0 0 0 0 0 0 0 0 0 0 0 0 0 0 0 0 0 0 0
0.095847 1.88761e-10 1.05472e-10 8.32896e-11 0.441243 0.690138 0 0 0 0 0 0 0 0 0 0 0 0 0 0 0 0 0 0 0 0 0 0 0 0 0 0 0 0 0 0 0 0 0 0 0 0 0 0 0 0 0 0
0.100767 2.06016e-10 1.15112e-10 9.09038e-11 0.441247 0.749964 0 0 0 0 0 0 0 0 0 0 0 0 0 0 0 0 0 0 0 0 0 0 0 0 0 0 0 0 0 0 0 0 0 0 0 0 0 0 0 0 0 0
0.105939 2.0986e-10 1.17113e-10 9.27461e-11 0.441944 0.744473 0 0 0 0 0 0 0 0 0 0 0 0 0 0 0 0 0 0 0 0 0 0 0 0 0 0 0 0 0 0 0 0 0 0 0 0 0 0 0 0 0 0
0.111377 2.13958e-10 1.19036e-10 9.49226e-11 0.44365 0.73904 0 0 0 0 0 0 0 0 0 0 0 0 0 0 0 0 0 0 0 0 0 0 0 0 0 0 0 0 0 0 0 0 0 0 0 0 0 0 0 0 0 0
0.117094 2.18505e-10 1.20815e-10 9.76905e-11 0.447086 0.72994 0 0 0 0 0 0 0 0 0 0 0 0 0 0 0 0 0 0 0 0 0 0 0 0 0 0 0 0 0 0 0 0 0 0 0 0 0 0 0 0 0 0
0.123105 2.23805e-10 1.22387e-10 1.01418e-10 0.453153 0.717568 0 0 0 0 0 0 0 0 0 0 0 0 0 0 0 0 0 0 0 0 0 0 0 0 0 0 0 0 0 0 0 0 0 0 0 0 0 0 0 0 0 0
0.129424 2.29858e-10 1.23663e-10 1.06195e-10 0.462003 0.703299 0 0 0 0 0 0 0 0 0 0 0 0 0 0 0 0 0 0 0 0 0 0 0 0 0 0 0 0 0 0 0 0 0 0 0 0 0 0 0 0 0 0
0.136067 2.38457e-10 1.24958e-10 1.13499e-10 0.475973 0.688517 0 0 0 0 0 0 0 0 0 0 0 0 0 0 0 0 0 0 0 0 0 0 0 0 0 0 0 0 0 0 0 0 0 0 0 0 0 0 0 0 0 0
0.143051 2.51595e-10 1.25466e-10 1.2613e-10 0.50132 0.672391 0 0 0 0 0 0 0 0 0 0 0 0 0 0 0 0 0 0 0 0 0 0 0 0 0 0 0 0 0 0 0 0 0 0 0 0 0 0 0 0 0 0
0.150394 2.67489e-10 1.21762e-10 1.45727e-10 0.544797 0.656939 0 0 0 0 0 0 0 0 0 0 0 0 0 0 0 0 0 0 0 0 0 0 0 0 0 0 0 0 0 0 0 0 0 0 0 0 0 0 0 0 0 0
0.158114 2.73212e-10 1.06237e-10 1.66975e-10 0.611156 0.639016 0 0 0 0 0 0 0 0 0 0 0 0 0 0 0 0 0 0 0 0 0 0 0 0 0 0 0 0 0 0 0 0 0 0 0 0 0 0 0 0 0 0
0.16623 2.59374e-10 7.9209e-11 1.80165e-10 0.694615 0.592401 0 0 0 0 0 0 0 0 0 0 0 0 0 0 0 0 0 0 0 0 0 0 0 0 0 0 0 0 0 0 0 0 0 0 0 0 0 0 0 0 0 0
0.174762 2.4065e-10 6.00448e-11 1.80605e-10 0.750489 0.533286 0 0 0 0 0 0 0 0 0 0 0 0 0 0 0 0 0 0 0 0 0 0 0 0 0 0 0 0 0 0 0 0 0 0 0 0 0 0 0 0 0 0
0.183733 2.16809e-10 4.62282e-11 1.70581e-10 0.786779 0.504745 0 0 0 0 0 0 0 0 0 0 0 0 0 0 0 0 0 0 0 0 0 0 0 0 0 0 0 0 0 0 0 0 0 0 0 0 0 0 0 0 0 0
0.193164 1.8178e-10 3.54974e-11 1.46283e-10 0.804724 0.520124 0 0 0 0 0 0 0 0 0 0 0 0 0 0 0 0 0 0 0 0 0 0 0 0 0 0 0 0 0 0 0 0 0 0 0 0 0 0 0 0 0 0
0.203079 1.45914e-10 3.02845e-11 1.15629e-10 0.792449 0.550096 0 0 0 0 0 0 0 0 0 0 0 0 0 0 0 0 0 0 0 0 0 0 0 0 0 0 0 0 0 0 0 0 0 0 0 0 0 0 0 0 0 0
0.213503 1.18286e-10 2.63446e-11 9.19413e-11 0.77728 0.558762 0 0 0 0 0 0 0 0 0 0 0 0 0 0 0 0 0 0 0 0 0 0 0 0 0 0 0 0 0 0 0 0 0 0 0 0 0 0 0 0 0 0
0.224463 9.82912e-11 2.29311e-11 7.53601e-11 0.766703 0.532476 0 0 0 0 0 0 0 0 0 0 0 0 0 0 0 0 0 0 0 0 0 0 0 0 0 0 0 0 0 0 0 0 0 0 0 0 0 0 0 0 0 0
0.235984 8.30103e-11 2.04089e-11 6.26014e-11 0.75414 0.483046 0 0 0 0 0 0 0 0 0 0 0 0 0 0 0 0 0 0 0 0 0 0 0 0 0 0 0 0 0 0 0 0 0 0 0 0 0 0 0 0 0 0
0.248097 7.08896e-11 1.84673e-11 5.24223e-11 0.739492 0.426997 0 0 0 0 0 0 0 0 0 0 0 0 0 0 0 0 0 0 0 0 0 0 0 0 0 0 0 0 0 0 0 0 0 0 0 0 0 0 0 0 0 0
0.260832 6.10751e-11 1.69762e-11 4.40989e-11 0.722044 0.373482 0 0 0 0 0 0 0 0 0 0 0 0 0 0 0 0 0 0 0 0 0 0 0 0 0 0 0 0 0 0 0 0 0 0 0 0 0 0 0 0 0 0
0.274221 5.27677e-11 1.57081e-11 3.70596e-11 0.702316 0.32626 0 0 0 0 0 0 0 0 0 0 0 0 0 0 0 0 0 0 0 0 0 0 0 0 0 0 0 0 0 0 0 0 0 0 0 0 0 0 0 0 0 0
0.288297 4.56523e-11 1.45867e-11 3.10656e-11 0.680483 0.286088 0 0 0 0 0 0 0 0 0 0 0 0 0 0 0 0 0 0 0 0 0 0 0 0 0 0 0 0 0 0 0 0 0 0 0 0 0 0 0 0 0 0
0.303095 3.9502e-11 1.35677e-11 2.59344e-11 0.656532 0.252129 0 0 0 0 0 0 0 0 0 0 0 0 0 0 0 0 0 0 0 0 0 0 0 0 0 0 0 0 0 0 0 0 0 0 0 0 0 0 0 0 0 0
0.318653 3.42075e-11 1.26311e-11 2.15764e-11 0.63075 0.223268 0 0 0 0 0 0 0 0 0 0 0 0 0 0 0 0 0 0 0 0 0 0 0 0 0 0 0 0 0 0 0 0 0 0 0 0 0 0 0 0 0 0
0.335009 2.96519e-11 1.17624e-11 1.78896e-11 0.603318 0.198582 0 0 0 0 0 0 0 0 0 0 0 0 0 0 0 0 0 0 0 0 0 0 0 0 0 0 0 0 0 0 0 0 0 0 0 0 0 0 0 0 0 0
0.352205 2.57457e-11 1.09574e-11 1.47883e-11 0.574399 0.177299 0 0 0 0 0 0 0 0 0 0 0 0 0 0 0 0 0 0 0 0 0 0 0 0 0 0 0 0 0 0 0 0 0 0 0 0 0 0 0 0 0 0
0.370284 2.24109e-11 1.02093e-11 1.22016e-11 0.544449 0.158789 0 0 0 0 0 0 0 0 0 0 0 0 0 0 0 0 0 0 0 0 0 0 0 0 0 0 0 0 0 0 0 0 0 0 0 0 0 0 0 0 0 0
0.389291 1.9558e-11 9.51501e-12 1.0043e-11 0.513498 0.142566 0 0 0 0 0 0 0 0 0 0 0 0 0 0 0 0 0 0 0 0 0 0 0 0 0 0 0 0 0 0 0 0 0 0 0 0 0 0 0 0 0 0
0.409273 1.71288e-11 8.87171e-12 8.25711e-12 0.48206 0.128245 0 0 0 0 0 0 0 0 0 0 0 0 0 0 0 0 0 0 0 0 0 0 0 0 0 0 0 0 0 0 0 0 0 0 0 0 0 0 0 0 0 0
0.430281 1.50567e-11 8.27715e-12 6.77957e-12 0.450269 0.115534 0 0 0 0 0 0 0 0 0 0 0 0 0 0 0 0 0 0 0 0 0 0 0 0 0 0 0 0 0 0 0 0 0 0 0 0 0 0 0 0 0 0
0.452368 1.32889e-11 7.72731e-12 5.56161e-12 0.418514 0.104237 0 0 0 0 0 0 0 0 0 0 0 0 0 0 0 0 0 0 0 0 0 0 0 0 0 0 0 0 0 0 0 0 0 0 0 0 0 0 0 0 0 0
0.475588 1.17782e-11 7.21907e-12 4.55918e-12 0.387085 0.0941238 0 0 0 0 0 0 0 0 0 0 0 0 0 0 0 0 0 0 0 0 0 0 0 0 0 0 0 0 0 0 0 0 0 0 0 0 0 0 0 0 0 0
0.5 1.0486e-11 6.74994e-12 3.73602e-12 0.356288 0.0850467 0 0 0 0 0 0 0 0 0 0 0 0 0 0 0 0 0 0 0 0 0 0 0 0 0 0 0 0 0 0 0 0 0 0 0 0 0 0 0 0 0 0
0.525665 9.3781e-12 6.31673e-12 3.06137e-12 0.326438 0.0768859 0 0 0 0 0 0 0 0 0 0 0 0 0 0 0 0 0 0 0 0 0 0 0 0 0 0 0 0 0 0 0 0 0 0 0 0 0 0 0 0 0 0
0.552648 8.42451e-12 5.91597e-12 2.50854e-12 0.297767 0.0695428 0 0 0 0 0 0 0 0 0 0 0 0 0 0 0 0 0 0 0 0 0 0 0 0 0 0 0 0 0 0 0 0 0 0 0 0 0 0 0 0 0 0
0.581015 7.60023e-12 5.54637e-12 2.05386e-12 0.270237 0.0629328 0 0 0 0 0 0 0 0 0 0 0 0 0 0 0 0 0 0 0 0 0 0 0 0 0 0 0 0 0 0 0 0 0 0 0 0 0 0 0 0 0 0
0.610839 6.88612e-12 5.20473e-12 1.68138e-12 0.24417 0.0569565 0 0 0 0 0 0 0 0 0 0 0 0 0 0 0 0 0 0 0 0 0 0 0 0 0 0 0 0 0 0 0 0 0 0 0 0 0 0 0 0 0 0
0.642193 6.26313e-12 4.88619e-12 1.37694e-12 0.219849 0.0515501 0 0 0 0 0 0 0 0 0 0 0 0 0 0 0 0 0 0 0 0 0 0 0 0 0 0 0 0 0 0 0 0 0 0 0 0 0 0 0 0 0 0
0.675157 5.71957e-12 4.59215e-12 1.12742e-12 0.197117 0.0466724 0 0 0 0 0 0 0 0 0 0 0 0 0 0 0 0 0 0 0 0 0 0 0 0 0 0 0 0 0 0 0 0 0 0 0 0 0 0 0 0 0 0
0.709813 5.24358e-12 4.32077e-12 9.22804e-13 0.175988 0.0422591 0 0 0 0 0 0 0 0 0 0 0 0 0 0 0 0 0 0 0 0 0 0 0 0 0 0 0 0 0 0 0 0 0 0 0 0 0 0 0 0 0 0
0.746248 4.82476e-12 4.06932e-12 7.55441e-13 0.156576 0.0382614 0 0 0 0 0 0 0 0 0 0 0 0 0 0 0 0 0 0 0 0 0 0 0 0 0 0 0 0 0 0 0 0 0 0 0 0 0 0 0 0 0 0
0.784553 4.45369e-12 3.83548e-12 6.18208e-13 0.138808 0.0346391 0 0 0 0 0 0 0 0 0 0 0 0 0 0 0 0 0 0 0 0 0 0 0 0 0 0 0 0 0 0 0 0 0 0 0 0 0 0 0 0 0 0
0.824824 4.124e-12 3.61805e-12 5.05956e-13 0.122686 0.0313665 0 0 0 0 0 0 0 0 0 0 0 0 0 0 0 0 0 0 0 0 0 0 0 0 0 0 0 0 0 0 0 0 0 0 0 0 0 0 0 0 0 0
0.867162 3.82863e-12 3.41459e-12 4.14042e-13 0.108144 0.0284038 0 0 0 0 0 0 0 0 0 0 0 0 0 0 0 0 0 0 0 0 0 0 0 0 0 0 0 0 0 0 0 0 0 0 0 0 0 0 0 0 0 0
0.911674 3.56572e-12 3.22706e-12 3.38663e-13 0.0949774 0.0257184 0 0 0 0 0 0 0 0 0 0 0 0 0 0 0 0 0 0 0 0 0 0 0 0 0 0 0 0 0 0 0 0 0 0 0 0 0 0 0 0 0 0
0.95847 3.33033e-12 3.05353e-12 2.76794e-13 0.0831131 0.0232853 0 0 0 0 0 0 0 0 0 0 0 0 0 0 0 0 0 0 0 0 0 0 0 0 0 0 0 0 0 0 0 0 0 0 0 0 0 0 0 0 0 0
1.00767 3.11704e-12 2.89138e-12 2.25659e-13 0.0723954 0.0210834 0 0 0 0 0 0 0 0 0 0 0 0 0 0 0 0 0 0 0 0 0 0 0 0 0 0 0 0 0 0 0 0 0 0 0 0 0 0 0 0 0 0
1.05939 2.98472e-12 2.80071e-12 1.84011e-13 0.0616509 0.0190897 0 0 0 0 0 0 0 0 0 0 0 0 0 0 0 0 0 0 0 0 0 0 0 0 0 0 0 0 0 0 0 0 0 0 0 0 0 0 0 0 0 0
1.11377 2.87488e-12 2.72459e-12 1.50291e-13 0.0522774 0.0172825 0 0 0 0 0 0 0 0 0 0 0 0 0 0 0 0 0 0 0 0 0 0 0 0 0 0 0 0 0 0 0 0 0 0 0 0 0 0 0 0 0 0
1.17094 2.78487e-12 2.66187e-12 1.23001e-13 0.0441678 0.0156444 0 0 0 0 0 0 0 0 0 0 0 0 0 0 0 0 0 0 0 0 0 0 0 0 0 0 0 0 0 0 0 0 0 0 0 0 0 0 0 0 0 0
1.23105 2.70707e-12 2.60643e-12 1.00643e-13 0.0371777 0.0141611 0 0 0 0 0 0 0 0 0 0 0 0 0 0 0 0 0 0 0 0 0 0 0 0 0 0 0 0 0 0 0 0 0 0 0 0 0 0 0 0 0 0
1.29424 2.63076e-12 2.54837e-12 8.23938e-14 0.0313194 0.0128185 0 0 0 0 0 0 0 0 0 0 0 0 0 0 0 0 0 0 0 0 0 0 0 0 0 0 0 0 0 0 0 0 0 0 0 0 0 0 0 0 0 0
1.36067 2.55341e-12 2.48566e-12 6.77499e-14 0.0265331 0.0116036 0 0 0 0 0 0 0 0 0 0 0 0 0 0 0 0 0 0 0 0 0 0 0 0 0 0 0 0 0 0 0 0 0 0 0 0 0 0 0 0 0 0
1.43051 2.47497e-12 2.41987e-12 5.50955e-14 0.0222611 0.0105011 0 0 0 0 0 0 0 0 0 0 0 0 0 0 0 0 0 0 0 0 0 0 0 0 0 0 0 0 0 0 0 0 0 0 0 0 0 0 0 0 0 0
1.50394 2.39851e-12 2.35349e-12 4.50152e-14 0.018768 0.00950345 0 0 0 0 0 0 0 0 0 0 0 0 0 0 0 0 0 0 0 0 0 0 0 0 0 0 0 0 0 0 0 0 0 0 0 0 0 0 0 0 0 0
1.58114 2.32693e-12 2.29011e-12 3.68207e-14 0.0158237 0.00860143 0 0 0 0 0 0 0 0 0 0 0 0 0 0 0 0 0 0 0 0 0 0 0 0 0 0 0 0 0 0 0 0 0 0 0 0 0 0 0 0 0 0
1.6623 2.26267e-12 2.23255e-12 3.01173e-14 0.0133105 0.00778332 0 0 0 0 0 0 0 0 0 0 0 0 0 0 0 0 0 0 0 0 0 0 0 0 0 0 0 0 0 0 0 0 0 0 0 0 0 0 0 0 0 0
1.74763 2.20824e-12 2.18361e-12 2.46311e-14 0.0111541 0.00704231 0 0 0 0 0 0 0 0 0 0 0 0 0 0 0 0 0 0 0 0 0 0 0 0 0 0 0 0 0 0 0 0 0 0 0 0 0 0 0 0 0 0
1.83733 2.16662e-12 2.14648e-12 2.01364e-14 0.00929394 0.00637085 0 0 0 0 0 0 0 0 0 0 0 0 0 0 0 0 0 0 0 0 0 0 0 0 0 0 0 0 0 0 0 0 0 0 0 0 0 0 0 0 0 0
1.93164 2.13891e-12 2.12246e-12 1.64564e-14 0.00769379 0.00576398 0 0 0 0 0 0 0 0 0 0 0 0 0 0 0 0 0 0 0 0 0 0 0 0 0 0 0 0 0 0 0 0 0 0 0 0 0 0 0 0 0 0
2.03079 2.12489e-12 2.11144e-12 1.34567e-14 0.00633288 0.00521468 0 0 0 0 0 0 0 0 0 0 0 0 0 0 0 0 0 0 0 0 0 0 0 0 0 0 0 0 0 0 0 0 0 0 0 0 0 0 0 0 0 0
2.13503 2.1212e-12 2.11019e-12 1.10152e-14 0.00519291 0.00471672 0 0 0 0 0 0 0 0 0 0 0 0 0 0 0 0 0 0 0 0 0 0 0 0 0 0 0 0 0 0 0 0 0 0 0 0 0 0 0 0 0 0
2.24463 2.1208e-12 2.11178e-12 9.02421e-15 0.0042551 0.00426553 0 0 0 0 0 0 0 0 0 0 0 0 0 0 0 0 0 0 0 0 0 0 0 0 0 0 0 0 0 0 0 0 0 0 0 0 0 0 0 0 0 0
2.35984 2.12165e-12 2.11425e-12 7.39779e-15 0.00348681 0.00385784 0 0 0 0 0 0 0 0 0 0 0 0 0 0 0 0 0 0 0 0 0 0 0 0 0 0 0 0 0 0 0 0 0 0 0 0 0 0 0 0 0 0
2.48097 2.12623e-12 2.12017e-12 6.06678e-15 0.0028533 0.0034883 0 0 0 0 0 0 0 0 0 0 0 0 0 0 0 0 0 0 0 0 0 0 0 0 0 0 0 0 0 0 0 0 0 0 0 0 0 0 0 0 0 0
2.60832 2.13496e-12 2.12998e-12 4.97832e-15 0.00233181 0.00315374 0 0 0 0 0 0 0 0 0 0 0 0 0 0 0 0 0 0 0 0 0 0 0 0 0 0 0 0 0 0 0 0 0 0 0 0 0 0 0 0 0 0
2.74221 2.15042e-12 2.14633e-12 4.08845e-15 0.00190123 0.00285094 0 0 0 0 0 0 0 0 0 0 0 0 0 0 0 0 0 0 0 0 0 0 0 0 0 0 0 0 0 0 0 0 0 0 0 0 0 0 0 0 0 0
2.88297 2.17301e-12 2.16965e-12 3.36329e-15 0.00154776 0.00257666 0 0 0 0 0 0 0 0 0 0 0 0 0 0 0 0 0 0 0 0 0 0 0 0 0 0 0 0 0 0 0 0 0 0 0 0 0 0 0 0 0 0
3.03095 2.20209e-12 2.19932e-12 2.77746e-15 0.00126128 0.00232858 0 0 0 0 0 0 0 0 0 0 0 0 0 0 0 0 0 0 0 0 0 0 0 0 0 0 0 0 0 0 0 0 0 0 0 0 0 0 0 0 0 0
3.18653 2.21082e-12 2.20852e-12 2.29913e-15 0.00103994 0.00210394 0 0 0 0 0 0 0 0 0 0 0 0 0 0 0 0 0 0 0 0 0 0 0 0 0 0 0 0 0 0 0 0 0 0 0 0 0 0 0 0 0 0
3.35009 2.2649e-12 2.26302e-12 1.8796e-15 0.000829882 0.00190044 0 0 0 0 0 0 0 0 0 0 0 0 0 0 0 0 0 0 0 0 0 0 0 0 0 0 0 0 0 0 0 0 0 0 0 0 0 0 0 0 0 0
3.52205 2.25583e-12 2.2542e-12 1.63548e-15 0.000724999 0.0017162 0 0 0 0 0 0 0 0 0 0 0 0 0 0 0 0 0 0 0 0 0 0 0 0 0 0 0 0 0 0 0 0 0 0 0 0 0 0 0 0 0 0
3.70284 2.10452e-12 2.10319e-12 1.3304e-15 0.000632163 0.00154954 0 0 0 0 0 0 0 0 0 0 0 0 0 0 0 0 0 0 0 0 0 0 0 0 0 0 0 0 0 0 0 0 0 0 0 0 0 0 0 0 0 0
3.89291 2.06063e-12 2.05954e-12 1.09006e-15 0.000528994 0.00139849 0 0 0 0 0 0 0 0 0 0 0 0 0 0 0 0 0 0 0 0 0 0 0 0 0 0 0 0 0 0 0 0 0 0 0 0 0 0 0 0 0 0
4.09273 2.02602e-12 2.02512e-12 8.93794e-16 0.000441158 0.00126148 0 0 0 0 0 0 0 0 0 0 0 0 0 0 0 0 0 0 0 0 0 0 0 0 0 0 0 0 0 0 0 0 0 0 0 0 0 0 0 0 0 0
4.30281 2.00089e-12 2.00016e-12 7.33147e-16 0.00036641 0.00113732 0 0 0 0 0 0 0 0 0 0 0 0 0 0 0 0 0 0 0 0 0 0 0 0 0 0 0 0 0 0 0 0 0 0 0 0 0 0 0 0 0 0
4.52368 1.98592e-12 1.98532e-12 6.02025e-16 0.000303146 0.00102495 0 0 0 0 0 0 0 0 0 0 0 0 0 0 0 0 0 0 0 0 0 0 0 0 0 0 0 0 0 0 0 0 0 0 0 0 0 0 0 0 0 0
4.75588 1.9784e-12 1.97791e-12 4.95188e-16 0.000250297 0.000923 0 0 0 0 0 0 0 0 0 0 0 0 0 0 0 0 0 0 0 0 0 0 0 0 0 0 0 0 0 0 0 0 0 0 0 0 0 0 0 0 0 0
5 1.97288e-12 1.97247e-12 4.08134e-16 0.000206872 0.000830291 0 0 0 0 0 0 0 0 0 0 0 0 0 0 0 0 0 0 0 0 0 0 0 0 0 0 0 0 0 0 0 0 0 0 0 0 0 0 0 0 0 0
5.25665 1.96462e-12 1.96428e-12 3.36753e-16 0.000171409 0.000746037 0 0 0 0 0 0 0 0 0 0 0 0 0 0 0 0 0 0 0 0 0 0 0 0 0 0 0 0 0 0 0 0 0 0 0 0 0 0 0 0 0 0
5.52648 1.9537e-12 1.95343e-12 2.77851e-16 0.000142218 0.000669772 0 0 0 0 0 0 0 0 0 0 0 0 0 0 0 0 0 0 0 0 0 0 0 0 0 0 0 0 0 0 0 0 0 0 0 0 0 0 0 0 0 0
5.81015 1.93885e-12 1.93862e-12 2.28992e-16 0.000118107 0.000600251 0 0 0 0 0 0 0 0 0 0 0 0 0 0 0 0 0 0 0 0 0 0 0 0 0 0 0 0 0 0 0 0 0 0 0 0 1.4013e-45 0 4.2039e-45 0 9.80909e-45 0
6.10839 1.92227e-12 1.92208e-12 1.88336e-16 9.79755e-05 0.00053706 0 0 0 0 0 0 0 0 0 0 0 0 0 0 0 0 0 0 0 0 0 0 0 0 0 0 1.4013e-45 0 2.8026e-45 0 9.80909e-45 0 2.8026e-44 0 7.42688e-44 0 1.90577e-43 0 4.51218e-43 0 1.00753e-42 0
6.42193 1.90332e-12 1.90317e-12 1.54333e-16 8.10862e-05 0.000479406 0 0 0 0 0 0 0 0 0 0 0 0 0 0 0 0 0 0 0 0 1.4013e-45 0 7.00649e-45 0 2.66247e-44 0 9.80909e-44 0 3.25101e-43 0 9.51482e-43 0 2.66527e-42 0 6.83133e-42 0 1.6817e-41 0 3.81616e-41 0 8.1847e-41 0
6.75157 1.88956e-12 1.88944e-12 1.25481e-16 6.64074e-05 0.000426272 0 0 0 0 0 0 0 0 0 0 0 0 0 0 0 0 4.2039e-45 0 2.52234e-44 0 1.4013e-43 0 6.50202e-43 0 2.49711e-42 0 8.82678e-42 0 2.75776e-41 0 7.67519e-41 0 2.04384e-40 0 5.00294e-40 0 1.17848e-39 0 2.56939e-39 0 5.30914e-39 0
7.09813 1.85887e-12 1.85877e-12 1.01957e-16 5.4849e-05 0.000376236 0 0 0 0 0 0 0 0 0 0 0 0 2.8026e-45 0 4.34403e-44 0 3.64338e-43 0 2.36819e-42 0 1.21184e-41 0 5.22404e-41 0 1.87973e-40 0 6.24668e-40 0 1.84597e-39 0 4.88714e-39 0 1.24063e-38 0 2.90697e-38 0 6.56708e-38 0 1.37833e-37 0 2.74889e-37 0
7.46248 1.8339e-12 1.83382e-12 8.08027e-17 4.40606e-05 0.000327532 0 0 0 0 0 0 0 0 0 0 1.82169e-44 0 3.37713e-43 0 3.90542e-42 0 2.98056e-41 0 1.76858e-40 0 8.35863e-40 0 3.35514e-39 0 1.1341e-38 0 3.55418e-38 0 9.96186e-38 0 2.51493e-37 0 6.10043e-37 0 1.37121e-36 0 2.97683e-36 0 6.02578e-36 0 1.16193e-35 0
7.84553 1.80799e-12 1.80793e-12 6.11566e-17 3.38257e-05 0.000281073 0 0 0 0 0 0 0 0 4.62428e-44 0 1.64933e-42 0 2.73505e-41 0 2.80817e-40 0 1.9409e-39 0 1.05578e-38 0 4.62546e-38 0 1.73485e-37 0 5.52556e-37 0 1.63774e-36 0 4.36507e-36 0 1.05327e-35 0 2.44673e-35 0 5.28634e-35 0 1.10502e-34 0 2.1611e-34 0 4.03571e-34 0
8.24824 2.01489e-12 2.01484e-12 4.49919e-17 2.23298e-05 0.000241602 0 0 0 0 0 0 4.90454e-44 0 4.61027e-42 0 1.37998e-40 0 1.99583e-39 0 1.82892e-38 0 1.15023e-37 0 5.76026e-37 0 2.34799e-36 0 8.25607e-36 0 2.48499e-35 0 6.98479e-35 0 1.77465e-34 0 4.1019e-34 0 9.14448e-34 0 1.9028e-33 0 3.83683e-33 0 7.26201e-33 0 1.3154e-32 0
8.67162 2.44692e-12 2.44688e-12 3.90109e-17 1.59429e-05 0.000210265 0 0 0 0 8.40779e-45 0 5.21703e-42 0 3.97148e-40 0 1.00696e-38 0 1.27825e-37 0 1.05127e-36 0 6.04385e-36 0 2.79777e-35 0 1.06481e-34 0 3.52116e-34 0 1.00432e-33 0 2.68403e-33 0 6.51592e-33 0 1.44571e-32 0 3.09925e-32 0 6.22233e-32 0 1.21244e-31 0 2.22442e-31 0 3.91401e-31 0
9.11674 3.35839e-12 3.35834e-12 4.64033e-17 1.38171e-05 0.00017939 0 0 0 0 1.04116e-42 0 5.03435e-40 0 3.10191e-38 0 6.71642e-37 0 7.53111e-36 0 5.58829e-35 0 2.94979e-34 0 1.26706e-33 0 4.51768e-33 0 1.40919e-32 0 3.81885e-32 0 9.72758e-32 0 2.26145e-31 0 4.82608e-31 0 9.96781e-31 0 1.93427e-30 0 3.64823e-30 0 6.49785e-30 0 1.11222e-29 0
9.5847 4.09424e-12 4.09417e-12 6.43689e-17 1.57218e-05 0.000160524 0 0 1.4013e-45 0 9.68283e-41 0 3.46364e-38 0 1.74517e-36 0 3.25193e-35 0 3.24049e-34 0 2.18039e-33 0 1.06113e-32 0 4.24492e-32 0 1.42243e-31 0 4.19725e-31 0 1.0834e-30 0 2.63654e-30 0 5.88203e-30 0 1.20965e-29 0 2.4115e-29 0 4.53052e-29 0 8.28434e-29 0 1.43452e-28 0 2.39184e-28 0
10.0767 3.96361e-12 3.96354e-12 7.08281e-17 1.78696e-05 0.000152414 0 0 1.47136e-43 0 5.71888e-39 0 1.53521e-36 0 6.38795e-35 0 1.03191e-33 0 9.19102e-33 0 5.63461e-32 0 2.53832e-31 0 9.48962e-31 0 2.99758e-30 0 8.38996e-30 0 2.06765e-29 0 4.81797e-29 0 1.03358e-28 0 2.05205e-28 0 3.95535e-28 0 7.20568e-28 0 1.27934e-27 0 2.15672e-27 0 3.50735e-27 0
10.5939 3.37486e-12 3.3748e-12 6.28763e-17 1.86308e-05 0.000149877 0 0 1.03416e-41 0 2.40099e-37 0 4.90526e-35 0 1.70137e-33 0 2.39932e-32 0 1.92061e-31 0 1.07768e-30 0 4.51084e-30 0 1.58124e-29 0 4.72206e-29 0 1.25689e-28 0 2.96407e-28 0 6.62733e-28 0 1.36972e-27 0 2.62989e-27 0 4.90929e-27 0 8.68541e-27 0 1.49945e-26 0 2.46413e-26 0 3.91325e-26 0
11.1377 2.8196e-12 2.81955e-12 5.2844e-17 1.87416e-05 0.000153495 1.26117e-44 0 5.6839e-40 0 8.07749e-36 0 1.27277e-33 0 3.71272e-32 0 4.60117e-31 0 3.32747e-30 0 1.7163e-29 0 6.6989e-29 0 2.20876e-28 0 6.25293e-28 0 1.58668e-27 0 3.58831e-27 0 7.71399e-27 0 1.53879e-26 0 2.86188e-26 0 5.18201e-26 0 8.91605e-26 0 1.49877e-25 0 2.404e-25 0 3.73251e-25 0
11.7094 2.26424e-12 2.2642e-12 4.13197e-17 1.82488e-05 0.000154419 8.77213e-43 0 2.41778e-38 0 2.15426e-34 0 2.65145e-32 0 6.55994e-31 0 7.18957e-30 0 4.72059e-29 0 2.24745e-28 0 8.20777e-28 0 2.55312e-27 0 6.86976e-27 0 1.66573e-26 0 3.61993e-26 0 7.49654e-26 0 1.44584e-25 0 2.60876e-25 0 4.58872e-25 0 7.68881e-25 0 1.26011e-24 0 1.9751e-24 0 3.00143e-24 0
12.3105 1.81875e-12 1.81872e-12 3.07887e-17 1.69285e-05 0.000153602 5.00292e-41 0 8.37185e-37 0 4.78468e-33 0 4.65572e-31 0 9.84853e-30 0 9.60301e-29 0 5.75172e-28 0 2.53748e-27 0 8.69908e-27 0 2.5601e-26 0 6.56356e-26 0 1.52413e-25 0 3.18903e-25 0 6.37357e-25 0 1.19046e-24 0 2.08696e-24 0 3.57106e-24 0 5.83472e-24 0 9.33457e-24 0 1.43135e-23 0 2.13114e-23 0
