# 2.10029e-07 0 17 : grain size, compostion index, size index
# This grain was stochastically heated: Yes
# Heating and cooling timescale: 87397.9 172.224
# Ratio of heating to cooling to determine stochastic cutoff: 100
# Equilibrium emission is recorded even for those grains in the stochastic regime.
# Emission spectrum was computed for: 
# Type: IRSF
# Scale: 1
# Temperature: -1
# Wavelength  CExt  CAbs  CSca  Albedo G EqEmission StEmission
0.05 3.82564e-14 3.79943e-14 2.62089e-16 0.00685084 0.00981263 0 0
0.0525665 4.43027e-14 4.4021e-14 2.81685e-16 0.00635818 0.00873823 0 0
0.0552647 5.11402e-14 5.08377e-14 3.02459e-16 0.00591431 0.0077773 0 0
0.0581015 6.10158e-14 6.0696e-14 3.19752e-16 0.00524048 0.00691688 0 0
0.0610839 8.61189e-14 8.57777e-14 3.41115e-16 0.00396098 0.00608939 0 0
0.0642193 1.08788e-13 1.08406e-13 3.81965e-16 0.00351109 0.00526691 0 0
0.0675157 1.30124e-13 1.29671e-13 4.52698e-16 0.00347898 0.00443603 0 0
0.0709813 1.49459e-13 1.48985e-13 4.73985e-16 0.00317134 0.00370917 0 0
0.0746248 1.39612e-13 1.39192e-13 4.20066e-16 0.0030088 0.00318734 0 0
0.0784553 1.09709e-13 1.0938e-13 3.29391e-16 0.00300241 0.00283976 0 0
0.0824824 8.70543e-14 8.68215e-14 2.32779e-16 0.00267395 0.00264492 0 0
0.0867162 7.29099e-14 7.27306e-14 1.79297e-16 0.00245916 0.00253137 0 0
0.0911674 6.36129e-14 6.34623e-14 1.50561e-16 0.00236684 0.00245054 0 1.29032e-308
0.095847 5.69149e-14 5.67952e-14 1.19784e-16 0.00210462 0.00257717 0 3.93543e-294
0.100767 4.99398e-14 4.98581e-14 8.17515e-17 0.001637 0.00300671 0 2.2778e-280
0.105939 4.3526e-14 4.34694e-14 5.66138e-17 0.00130069 0.00324887 0 2.74318e-267
0.111377 3.73401e-14 3.73056e-14 3.45526e-17 0.000925348 0.00371971 0 7.3538e-255
0.117094 3.16416e-14 3.16201e-14 2.14913e-17 0.000679212 0.00341791 0 4.73542e-243
0.123105 2.65942e-14 2.65802e-14 1.39819e-17 0.00052575 0.0029343 0 7.88072e-232
0.129424 2.2368e-14 2.23591e-14 8.98299e-18 0.0004016 0.00246822 0 3.65202e-221
0.136067 2.02834e-14 2.02776e-14 5.81467e-18 0.000286671 0.00208862 0 5.40543e-211
0.143051 1.84083e-14 1.84044e-14 3.81673e-18 0.000207338 0.00178196 0 2.51718e-201
0.150394 1.73878e-14 1.73852e-14 2.59854e-18 0.000149446 0.00152142 0 4.05854e-192
0.158114 1.71856e-14 1.71836e-14 1.96373e-18 0.000114266 0.00130307 0 2.40386e-183
0.16623 1.78681e-14 1.78663e-14 1.81223e-18 0.000101422 0.00112042 0 5.53411e-175
0.174762 1.95761e-14 1.95739e-14 2.18102e-18 0.000111412 0.000963561 0 5.20839e-167
0.183733 2.26189e-14 2.26158e-14 3.11136e-18 0.000137556 0.000820812 0 2.10081e-159
0.193164 2.79994e-14 2.79944e-14 4.94111e-18 0.000176472 0.000683129 0 3.85551e-152
0.203079 3.66752e-14 3.66676e-14 7.55142e-18 0.0002059 0.000547806 0 3.31632e-145
0.213503 4.51807e-14 4.51714e-14 9.29308e-18 0.000205687 0.000421294 0 1.23685e-138
0.224463 4.33871e-14 4.33793e-14 7.73752e-18 0.000178337 0.000311974 0 1.72214e-132
0.235984 3.35261e-14 3.35208e-14 5.24893e-18 0.000156563 0.000222737 0 9.58242e-127
0.248097 2.53211e-14 2.53177e-14 3.39488e-18 0.000134073 0.000170505 0 2.67946e-121
0.260832 2.02651e-14 2.02628e-14 2.32982e-18 0.000114967 0.000177017 0 4.21909e-116
0.274221 1.72377e-14 1.7236e-14 1.67956e-18 9.74352e-05 0.000236351 0 3.87244e-111
0.288297 1.53482e-14 1.5347e-14 1.25136e-18 8.15315e-05 0.000317277 0 2.10307e-106
0.303095 1.39074e-14 1.39064e-14 9.64031e-19 6.93178e-05 0.000355983 0 6.76241e-102
0.318653 1.21582e-14 1.21574e-14 7.50498e-19 6.17278e-05 0.000371631 0 1.25473e-97
0.335009 1.0684e-14 1.06834e-14 5.9103e-19 5.53191e-05 0.000365594 0 1.43708e-93
0.352205 9.32727e-15 9.3268e-15 4.71201e-19 5.05186e-05 0.000346986 0 1.02993e-89
0.370284 8.08538e-15 8.085e-15 3.79e-19 4.68747e-05 0.000324448 0 4.72924e-86
0.389291 6.95665e-15 6.95635e-15 3.0719e-19 4.41577e-05 0.000302527 0 1.4233e-82
0.409273 5.94093e-15 5.94069e-15 2.49733e-19 4.2036e-05 0.000281236 0 2.86969e-79
0.430281 5.03225e-15 5.03205e-15 2.03226e-19 4.03848e-05 0.000261001 0 3.9548e-76
0.452368 4.22555e-15 4.22539e-15 1.65357e-19 3.91327e-05 0.000240091 6.66335e-293 3.79674e-73
0.475588 3.51601e-15 3.51588e-15 1.34634e-19 3.82918e-05 0.000220061 1.04414e-278 2.58498e-70
0.5 2.89907e-15 2.89896e-15 1.0991e-19 3.7912e-05 0.000200841 3.21804e-265 1.26953e-67
0.525665 2.36603e-15 2.36594e-15 8.9822e-20 3.79632e-05 0.000182666 2.1087e-252 4.56402e-65
0.552647 1.91006e-15 1.90998e-15 7.34334e-20 3.84456e-05 0.000166107 3.16447e-240 1.21795e-62
0.581015 1.52484e-15 1.52478e-15 6.03278e-20 3.95633e-05 0.000150718 1.16796e-228 2.44515e-60
0.610839 1.20275e-15 1.2027e-15 4.95758e-20 4.12187e-05 0.000136778 1.13371e-217 3.73685e-58
0.642193 9.35565e-16 9.35524e-16 4.07334e-20 4.35389e-05 0.00012413 3.08128e-207 4.39117e-56
0.675157 7.15828e-16 7.15795e-16 3.35066e-20 4.68082e-05 0.000112707 2.48728e-197 4.0024e-54
0.709813 5.36179e-16 5.36152e-16 2.76087e-20 5.14915e-05 0.00010246 6.29213e-188 2.84648e-52
0.746248 3.85222e-16 3.85199e-16 2.2753e-20 5.90648e-05 9.33045e-05 5.16763e-179 1.56364e-50
0.784553 2.44951e-16 2.44932e-16 1.87455e-20 7.65275e-05 8.499e-05 1.34015e-170 6.18181e-49
0.824824 1.26373e-16 1.26357e-16 1.54405e-20 0.000122182 7.75279e-05 1.05799e-162 1.62774e-47
0.867162 7.99849e-17 7.99722e-17 1.27228e-20 0.000159065 7.08137e-05 4.03351e-155 4.35614e-46
0.911674 5.36354e-17 5.36249e-17 1.0478e-20 0.000195355 6.47396e-05 6.7114e-148 1.03228e-44
0.95847 2.33513e-17 2.33427e-17 8.62202e-21 0.00036923 5.92957e-05 3.11866e-141 1.33868e-43
1.00767 6.14327e-18 6.13617e-18 7.09535e-21 0.00115498 5.43524e-05 3.92298e-135 8.91272e-43
1.05939 1.76681e-18 1.76098e-18 5.83655e-21 0.00330344 4.98685e-05 2.5115e-129 5.55421e-42
1.11377 5.99163e-19 5.94364e-19 4.7996e-21 0.0080105 4.57866e-05 9.15e-124 3.5206e-41
1.17094 2.33015e-19 2.2907e-19 3.94517e-21 0.016931 4.19759e-05 1.90834e-118 2.22425e-40
1.23105 1.05694e-19 1.0245e-19 3.24435e-21 0.0306956 3.84871e-05 2.39496e-113 1.43802e-39
1.29424 5.73659e-20 5.46971e-20 2.66888e-21 0.0465237 3.52778e-05 1.92104e-108 9.89969e-39
1.36067 3.89301e-20 3.67359e-20 2.1942e-21 0.0563626 3.23543e-05 1.07001e-103 7.74646e-38
1.43051 3.26556e-20 3.08525e-20 1.80311e-21 0.0552159 2.96908e-05 4.23502e-99 6.94241e-37
1.50394 3.16432e-20 3.01609e-20 1.48227e-21 0.0468432 2.7229e-05 1.13975e-94 6.71819e-36
1.58114 3.3075e-20 3.18565e-20 1.21854e-21 0.0368417 2.49337e-05 1.98736e-90 6.57852e-35
1.6623 3.58636e-20 3.48617e-20 1.00183e-21 0.0279346 2.28048e-05 2.20756e-86 6.2791e-34
1.74762 3.95935e-20 3.87698e-20 8.23758e-22 0.0208054 2.08864e-05 1.56902e-82 5.72559e-33
1.83733 4.41487e-20 4.34714e-20 6.77261e-22 0.0153405 1.91329e-05 7.24082e-79 4.92659e-32
1.93164 4.95737e-20 4.9017e-20 5.56606e-22 0.0112279 1.7523e-05 2.2111e-75 3.96736e-31
2.03079 5.60303e-20 5.5573e-20 4.5734e-22 0.00816237 1.6029e-05 4.55932e-72 2.97505e-30
2.13503 6.38248e-20 6.34487e-20 3.7607e-22 0.00589223 1.46625e-05 6.48314e-69 2.07392e-29
2.24463 7.34239e-20 7.31148e-20 3.09102e-22 0.00420983 1.34171e-05 6.49e-66 1.34507e-28
2.35984 8.56436e-20 8.53896e-20 2.53963e-22 0.00296534 1.22692e-05 4.67441e-63 8.15065e-28
2.48097 1.02027e-19 1.01819e-19 2.08623e-22 0.00204478 1.12088e-05 2.48145e-60 4.65447e-27
2.60832 1.25933e-19 1.25762e-19 1.71521e-22 0.001362 1.02305e-05 1.00082e-57 2.54636e-26
2.74221 1.65384e-19 1.65244e-19 1.40971e-22 0.000852382 9.34015e-06 3.19758e-55 1.37395e-25
2.88297 2.45288e-19 2.45173e-19 1.15772e-22 0.000471983 8.53448e-06 8.71483e-53 7.78298e-25
3.03095 4.84404e-19 4.84309e-19 9.50938e-23 0.000196311 7.80276e-06 2.42186e-50 5.47313e-24
3.18653 2.48217e-18 2.48209e-18 7.81225e-23 3.14735e-05 7.12393e-06 1.35484e-47 9.33831e-23
3.35009 1.33914e-17 1.33913e-17 6.41587e-23 4.79106e-06 6.49974e-06 6.26804e-45 1.57325e-21
3.52205 7.92389e-19 7.92337e-19 5.26659e-23 6.64647e-05 5.93178e-06 2.5279e-44 2.73436e-22
3.70284 3.8607e-19 3.86027e-19 4.32506e-23 0.000112028 5.41247e-06 6.74805e-43 3.69165e-22
3.89291 3.07552e-19 3.07516e-19 3.55055e-23 0.000115446 4.93313e-06 2.393e-41 7.70921e-22
4.09273 2.99888e-19 2.99859e-19 2.91433e-23 9.71805e-05 4.48067e-06 8.52536e-40 1.86913e-21
4.30281 3.22265e-19 3.22241e-19 2.39164e-23 7.42135e-05 4.07166e-06 2.7739e-38 4.74947e-21
4.52368 3.68071e-19 3.68052e-19 1.96329e-23 5.33398e-05 3.69942e-06 8.02257e-37 1.22279e-20
4.75588 4.46584e-19 4.46568e-19 1.61102e-23 3.60744e-05 3.35815e-06 2.07948e-35 3.19581e-20
5 6.19949e-19 6.19935e-19 1.32159e-23 2.13177e-05 3.03162e-06 5.24628e-34 9.15279e-20
5.25665 1.70435e-18 1.70434e-18 1.08439e-23 6.3625e-06 2.73893e-06 2.24754e-32 4.98302e-19
5.52648 1.46823e-18 1.46822e-18 8.89716e-24 6.0598e-06 2.47704e-06 2.60638e-31 8.17666e-19
5.81015 2.49233e-18 2.49232e-18 7.29522e-24 2.92707e-06 2.23793e-06 5.18232e-30 2.54821e-18
6.10839 8.18836e-18 8.18836e-18 5.98011e-24 7.30318e-07 2.01377e-06 1.74701e-28 1.48422e-17
6.42193 5.46554e-18 5.46553e-18 4.90206e-24 8.96903e-07 1.83033e-06 1.05498e-27 1.69911e-17
6.75157 4.4921e-18 4.49209e-18 4.01891e-24 8.94661e-07 1.6341e-06 6.95913e-27 2.32109e-17
7.09813 5.04731e-18 5.04731e-18 3.29301e-24 6.52429e-07 1.4633e-06 5.6002e-26 4.20771e-17
7.46248 1.15902e-17 1.15902e-17 2.69741e-24 2.32732e-07 1.30583e-06 8.26435e-25 1.51559e-16
7.84553 1.45126e-17 1.45126e-17 2.21036e-24 1.52306e-07 1.15422e-06 5.99917e-24 2.89834e-16
8.24824 5.87037e-18 5.87037e-18 1.81064e-24 3.08437e-07 1.01293e-06 1.27543e-23 1.74579e-16
8.67162 6.29119e-18 6.29119e-18 1.48222e-24 2.35602e-07 8.90546e-07 6.54469e-23 2.71998e-16
9.11674 2.36582e-18 2.36582e-18 1.21336e-24 5.1287e-07 7.8114e-07 1.0784e-22 1.45358e-16
9.5847 1.96755e-18 1.96755e-18 9.92863e-25 5.04619e-07 6.82723e-07 3.61192e-22 1.68125e-16
10.0767 2.09454e-18 2.09454e-18 8.12083e-25 3.87714e-07 5.90535e-07 1.4291e-21 2.43857e-16
10.5939 2.87875e-18 2.87875e-18 6.63721e-25 2.30558e-07 5.02506e-07 6.76396e-21 4.47845e-16
11.1377 1.47224e-17 1.47224e-17 5.42052e-25 3.68181e-08 4.20962e-07 1.10782e-19 3.00417e-15
11.7094 7.73102e-18 7.73102e-18 4.46814e-25 5.77949e-08 3.48503e-07 1.73873e-19 2.03298e-15
12.3105 7.95959e-18 7.95959e-18 3.63306e-25 4.56437e-08 2.72817e-07 5.01039e-19 2.65233e-15
12.9424 6.49965e-18 6.49965e-18 2.96657e-25 4.5642e-08 1.98946e-07 1.07578e-18 2.70076e-15
13.6067 4.89304e-18 4.89304e-18 2.42242e-25 4.95075e-08 1.36952e-07 2.00659e-18 2.49671e-15
14.3051 3.7451e-18 3.7451e-18 1.9765e-25 5.27755e-08 8.33191e-08 3.59619e-18 2.31245e-15
15.0394 3.06013e-18 3.06013e-18 1.61172e-25 5.26684e-08 3.54091e-08 6.52039e-18 2.25458e-15
15.8114 3.1524e-18 3.1524e-18 1.31423e-25 4.16897e-08 -9.96367e-09 1.41618e-17 2.73427e-15
16.623 4.39736e-18 4.39736e-18 1.07145e-25 2.43657e-08 -5.48226e-08 3.96728e-17 4.43265e-15
17.4762 3.76763e-18 3.76763e-18 8.73062e-26 2.31727e-08 -9.89677e-08 6.51777e-17 4.35956e-15
18.3733 2.47206e-18 2.47206e-18 7.11026e-26 2.87625e-08 -1.40127e-07 7.84714e-17 3.24477e-15
19.3164 2.07236e-18 2.07236e-18 5.79807e-26 2.79782e-08 -1.82786e-07 1.15759e-16 3.05068e-15
20.3079 1.76851e-18 1.76851e-18 4.73106e-26 2.67517e-08 -2.30641e-07 1.67052e-16 2.88806e-15
21.3503 1.52782e-18 1.52782e-18 3.86454e-26 2.52944e-08 -2.66779e-07 2.34975e-16 2.73897e-15
22.4463 1.32513e-18 1.32513e-18 3.16694e-26 2.3899e-08 -2.93613e-07 3.20089e-16 2.58183e-15
23.5984 1.15129e-18 1.15129e-18 2.61078e-26 2.2677e-08 -3.18911e-07 4.22064e-16 2.41447e-15
24.8097 1.00148e-18 1.00148e-18 2.17088e-26 2.16768e-08 -3.53524e-07 5.39343e-16 2.23994e-15
26.0832 8.72516e-19 8.72516e-19 1.82846e-26 2.09561e-08 -3.78403e-07 6.69215e-16 2.06294e-15
27.4221 7.61862e-19 7.61862e-19 1.56135e-26 2.04938e-08 -3.96033e-07 8.08043e-16 1.88813e-15
28.8297 6.6674e-19 6.6674e-19 1.35572e-26 2.03336e-08 -4.03753e-07 9.50826e-16 1.71805e-15
30.3095 5.84762e-19 5.84762e-19 1.1917e-26 2.03792e-08 -4.07431e-07 1.09177e-15 1.55459e-15
31.8653 5.13994e-19 5.13994e-19 1.04704e-26 2.03707e-08 -4.00429e-07 1.22489e-15 1.39939e-15
33.5009 4.5298e-19 4.5298e-19 9.18374e-27 2.02741e-08 -3.92435e-07 1.34503e-15 1.2541e-15
35.2206 4.00023e-19 4.00023e-19 7.86487e-27 1.96611e-08 -3.71623e-07 1.44642e-15 1.11861e-15
37.0284 3.53943e-19 3.53943e-19 6.65262e-27 1.87957e-08 -3.45875e-07 1.52484e-15 9.93268e-16
38.9291 3.13791e-19 3.13791e-19 5.52654e-27 1.76122e-08 -3.1894e-07 1.57766e-15 8.78298e-16
40.9273 2.78738e-19 2.78738e-19 4.54679e-27 1.63121e-08 -2.86427e-07 1.60358e-15 7.736e-16
43.0282 2.47982e-19 2.47982e-19 3.70935e-27 1.49581e-08 -2.43016e-07 1.60217e-15 6.78621e-16
45.2368 2.20934e-19 2.20934e-19 3.01598e-27 1.36511e-08 -1.96014e-07 1.57477e-15 5.92969e-16
47.5588 1.97144e-19 1.97144e-19 2.44612e-27 1.24078e-08 -1.15281e-07 1.52431e-15 5.16295e-16
50 1.76145e-19 1.76145e-19 1.98428e-27 1.1265e-08 -4.09512e-08 1.45388e-15 4.47927e-16
52.5665 1.57548e-19 1.57548e-19 1.60866e-27 1.02105e-08 3.79304e-08 1.36723e-15 3.87208e-16
55.2648 1.41055e-19 1.41055e-19 1.30441e-27 9.24753e-09 1.10191e-07 1.26858e-15 3.33553e-16
58.1015 1.26441e-19 1.26441e-19 1.05916e-27 8.37671e-09 1.85299e-07 1.16248e-15 2.86447e-16
61.0839 1.13431e-19 1.13431e-19 8.60366e-28 7.58496e-09 2.37416e-07 1.05238e-15 2.4517e-16
64.2193 1.0183e-19 1.0183e-19 6.9917e-28 6.86603e-09 2.76672e-07 9.41771e-16 2.09153e-16
67.5157 9.14863e-20 9.14863e-20 5.6862e-28 6.21535e-09 3.03089e-07 8.33714e-16 1.77877e-16
70.9813 8.2257e-20 8.2257e-20 4.62899e-28 5.62747e-09 3.16639e-07 7.30585e-16 1.50832e-16
74.6248 7.39961e-20 7.39961e-20 3.76939e-28 5.09403e-09 3.29349e-07 6.33946e-16 1.275e-16
78.4553 6.65949e-20 6.65949e-20 3.07009e-28 4.6101e-09 3.18004e-07 5.44993e-16 1.07445e-16
82.4824 5.99722e-20 5.99722e-20 2.50277e-28 4.17323e-09 3.07758e-07 4.64525e-16 9.02901e-17
86.7162 5.40322e-20 5.40322e-20 2.0411e-28 3.77756e-09 2.91359e-07 3.92694e-16 7.56515e-17
91.1674 4.86958e-20 4.86958e-20 1.66475e-28 3.41867e-09 2.66659e-07 3.29374e-16 6.31954e-17
95.847 4.38996e-20 4.38996e-20 1.35793e-28 3.09327e-09 2.19343e-07 2.74231e-16 5.2633e-17
100.767 3.95971e-20 3.95971e-20 1.10867e-28 2.79987e-09 1.93378e-07 2.26798e-16 4.37177e-17
105.939 3.5724e-20 3.5724e-20 9.05077e-29 2.53353e-09 1.78039e-07 1.86339e-16 3.62039e-17
111.377 3.22356e-20 3.22356e-20 7.38775e-29 2.2918e-09 1.37381e-07 1.52151e-16 2.98915e-17
117.094 2.90961e-20 2.90961e-20 6.03286e-29 2.07342e-09 1.22041e-07 1.23529e-16 2.46089e-17
123.105 2.62709e-20 2.62709e-20 4.93048e-29 1.87678e-09 7.05692e-08 9.976e-17 2.02026e-17
129.424 2.37228e-20 2.37228e-20 4.03308e-29 1.70009e-09 6.50581e-08 8.01497e-17 1.65354e-17
136.067 2.14238e-20 2.14238e-20 3.30165e-29 1.54111e-09 -7.09544e-09 6.40822e-17 1.34929e-17
143.051 1.93537e-20 1.93537e-20 2.7068e-29 1.39859e-09 -4.38872e-08 5.10141e-17 1.09796e-17
150.394 1.74861e-20 1.74861e-20 2.21847e-29 1.26871e-09 -2.09328e-08 4.04402e-17 8.90813e-18
158.114 1.57996e-20 1.57996e-20 1.81556e-29 1.14912e-09 3.61564e-09 3.19289e-17 7.20571e-18
166.23 1.42765e-20 1.42765e-20 1.48488e-29 1.04009e-09 -5.6883e-08 2.51139e-17 5.81119e-18
174.763 1.29044e-20 1.29044e-20 1.21493e-29 9.41487e-10 -6.52384e-08 1.9689e-17 4.67388e-18
183.733 1.16642e-20 1.16642e-20 9.93571e-30 8.51811e-10 -5.77638e-08 1.53842e-17 3.74796e-18
193.164 1.05433e-20 1.05433e-20 8.1235e-30 7.70487e-10 -1.0435e-07 1.19827e-17 2.99659e-18
203.079 9.53137e-21 9.53137e-21 6.64323e-30 6.96986e-10 -6.7141e-08 9.30686e-18 2.38916e-18
213.503 8.61797e-21 8.61797e-21 5.43486e-30 6.30643e-10 -1.18571e-07 7.20969e-18 1.89969e-18
224.463 7.79198e-21 7.79198e-21 4.44537e-30 5.70506e-10 -1.27361e-07 5.57046e-18 1.50621e-18
235.984 7.04501e-21 7.04501e-21 3.63527e-30 5.16007e-10 -2.38456e-07 4.29331e-18 1.19089e-18
248.097 6.37091e-21 6.37091e-21 2.97442e-30 4.66875e-10 -1.10182e-07 3.30203e-18 9.39208e-19
260.832 5.76155e-21 5.76155e-21 2.43385e-30 4.2243e-10 -1.39797e-07 2.53426e-18 7.3878e-19
274.221 5.21028e-21 5.21028e-21 1.99106e-30 3.82142e-10 -7.15601e-08 1.94099e-18 5.79597e-19
288.297 4.7117e-21 4.7117e-21 1.62862e-30 3.45655e-10 -1.032e-07 1.48376e-18 4.53559e-19
303.095 4.26179e-21 4.26179e-21 1.33304e-30 3.1279e-10 -1.69733e-08 1.13247e-18 3.54141e-19
318.653 3.85465e-21 3.85465e-21 1.09086e-30 2.82999e-10 -1.72469e-07 8.62851e-19 2.75845e-19
335.009 3.48622e-21 3.48622e-21 8.92462e-31 2.55997e-10 7.30815e-08 6.56349e-19 2.14353e-19
352.206 3.15326e-21 3.15326e-21 7.30293e-31 2.316e-10 -6.66302e-09 4.98563e-19 1.66212e-19
370.284 2.85241e-21 2.85241e-21 5.9778e-31 2.0957e-10 2.4488e-08 3.78221e-19 1.28621e-19
389.291 2.58011e-21 2.58011e-21 4.89187e-31 1.896e-10 -1.34695e-07 2.86532e-19 9.932e-20
409.273 2.33366e-21 2.33366e-21 4.00223e-31 1.715e-10 -2.80109e-07 2.16788e-19 7.6537e-20
430.282 2.11111e-21 2.11111e-21 3.2761e-31 1.55184e-10 2.59798e-07 1.63855e-19 5.88773e-20
452.368 1.90978e-21 1.90978e-21 2.6816e-31 1.40414e-10 -2.86626e-07 1.23711e-19 4.52096e-20
475.588 1.72753e-21 1.72753e-21 2.19443e-31 1.27027e-10 3.0767e-09 9.32982e-20 3.46513e-20
500 1.56264e-21 1.56264e-21 1.79552e-31 1.14903e-10 -2.9289e-08 7.02917e-20 2.65136e-20
525.665 1.41376e-21 1.41376e-21 1.47004e-31 1.03981e-10 -3.07615e-07 5.29194e-20 2.02582e-20
552.648 1.27896e-21 1.27896e-21 1.20324e-31 9.40795e-11 5.45013e-08 3.98027e-20 1.54536e-20
581.015 1.15693e-21 1.15693e-21 9.84602e-32 8.51044e-11 -1.64765e-07 2.99106e-20 1.17705e-20
610.838 1.04662e-21 1.04662e-21 8.05857e-32 7.69959e-11 3.38721e-07 2.2461e-20 8.95326e-21
642.193 9.46911e-22 9.46911e-22 6.59729e-32 6.96717e-11 2.23916e-07 1.68558e-20 6.80181e-21
675.157 8.56633e-22 8.56633e-22 5.39954e-32 6.30321e-11 -2.75112e-07 1.26397e-20 5.16037e-21
709.813 7.74907e-22 7.74907e-22 4.41815e-32 5.70153e-11 -3.51495e-07 9.47127e-21 3.91004e-21
746.247 7.01092e-22 7.01092e-22 3.61709e-32 5.15922e-11 3.62927e-07 7.09386e-21 2.95973e-21
784.553 6.34296e-22 6.34296e-22 2.96101e-32 4.66818e-11 -6.90073e-07 5.30997e-21 2.23788e-21
824.824 5.73821e-22 5.73821e-22 2.42329e-32 4.22308e-11 -5.48912e-07 3.97219e-21 1.6902e-21
867.162 5.19096e-22 5.19096e-22 1.98301e-32 3.82012e-11 1.10724e-06 2.9698e-21 1.27525e-21
911.674 4.69672e-22 4.69672e-22 1.62363e-32 3.45695e-11 -3.50014e-07 2.21966e-21 9.61431e-22
958.471 4.24919e-22 4.24919e-22 1.32903e-32 3.12771e-11 1.3741e-06 1.65807e-21 7.24129e-22
1007.67 3.84402e-22 3.84402e-22 1.08758e-32 2.82927e-11 9.53847e-07 1.23793e-21 5.44895e-22
1059.39 3.47772e-22 3.47772e-22 8.90226e-33 2.55979e-11 2.65074e-06 9.23929e-22 4.09722e-22
1113.77 3.14655e-22 3.14655e-22 7.28837e-33 2.31631e-11 -6.34697e-07 6.89346e-22 3.07866e-22
1170.94 2.84669e-22 2.84669e-22 5.96532e-33 2.09553e-11 1.34065e-06 5.14088e-22 2.31144e-22
1231.05 2.57521e-22 2.57521e-22 4.88134e-33 1.89552e-11 1.04018e-06 3.83221e-22 1.73409e-22
1294.24 2.33e-22 2.33e-22 3.99656e-33 1.71526e-11 3.04209e-06 2.85619e-22 1.30031e-22
1360.67 2.10809e-22 2.10809e-22 3.27166e-33 1.55196e-11 -2.01875e-06 2.12801e-22 9.74407e-23
1430.51 1.90715e-22 1.90715e-22 2.67757e-33 1.40396e-11 -1.72418e-06 1.58486e-22 7.29691e-23
1503.94 1.72532e-22 1.72532e-22 2.19118e-33 1.27002e-11 -2.83183e-06 1.17998e-22 5.46113e-23
1581.14 1.56109e-22 1.56109e-22 1.79415e-33 1.14929e-11 -3.19501e-06 8.78438e-23 4.08573e-23
1662.3 1.41238e-22 1.41238e-22 1.46864e-33 1.03983e-11 -1.79267e-06 6.53733e-23 3.05492e-23
1747.63 1.27772e-22 1.27772e-22 1.20186e-33 9.40625e-12 5.27825e-06 4.86345e-23 2.28288e-23
1837.33 1.156e-22 1.156e-22 9.8378e-34 8.51024e-12 2.49136e-06 3.61761e-23 1.70531e-23
1931.64 1.04593e-22 1.04593e-22 8.05448e-34 7.70077e-12 3.14747e-06 2.69049e-23 1.2734e-23
2030.79 9.46271e-23 9.46271e-23 6.59255e-34 6.96688e-12 6.11279e-06 2.00039e-23 9.5041e-24
2135.03 8.56035e-23 8.56035e-23 5.3945e-34 6.30173e-12 -3.56609e-06 1.48688e-23 7.09007e-24
2244.63 7.74541e-23 7.74541e-23 4.41685e-34 5.70254e-12 4.37859e-06 1.10517e-23 5.2882e-24
2359.84 7.00777e-23 7.00777e-23 3.61584e-34 5.15976e-12 8.08729e-06 8.21282e-24 3.94271e-24
2480.97 6.33987e-23 6.33987e-23 2.95927e-34 4.66772e-12 4.67102e-06 6.10159e-24 2.93833e-24
2608.32 5.73551e-23 5.73551e-23 2.4218e-34 4.22247e-12 7.14551e-06 4.53227e-24 2.18908e-24
2742.21 5.18958e-23 5.18958e-23 1.9829e-34 3.82093e-12 -1.66904e-05 3.3666e-24 1.63065e-24
