# 8.9125e-06 0 96 : grain size, compostion index, size index
# Heating and cooling timescale: 0.057038 84108.3
# Ratio of heating to cooling to determine stochastic cutoff: 100
# Equilibrium emission is recorded even for those grains in the stochastic regime.
# Emission spectrum was computed for: 
# Type: IRSF
# Scales: 0.25 0.5 1 1.5 2 2.5 3 3.5 4 4.5 5 5.5 6 6.5 7 7.5 8 8.5 9 9.5 10
# StochasticallyHeated: 0 0 0 0 0 0 0 0 0 0 0 0 0 0 0 0 0 0 0 0 0
# Temperature: -1
# Wavelength  CExt  CAbs  CSca  Albedo G EqEm1 StEm1 EqEm2 StEm2 EqEm3 StEm3 EqEm4 StEm4 EqEm5 StEm5 EqEm6 StEm6 EqEm7 StEm7 EqEm8 StEm8 EqEm9 StEm9 EqEm10 StEm10 EqEm11 StEm11 EqEm12 StEm12 EqEm13 StEm13 EqEm14 StEm14 EqEm15 StEm15 EqEm16 StEm16 EqEm17 StEm17 EqEm18 StEm18 EqEm19 StEm19 EqEm20 StEm20 EqEm21 StEm21
0.05 1.63162e-10 7.36675e-11 8.94949e-11 0.548502 0.00576547 0 0 0 0 0 0 0 0 0 0 0 0 0 0 0 0 0 0 0 0 0 0 0 0 0 0 0 0 0 0 0 0 0 0 0 0 0 0 0 0 0 0
0.0525665 1.80343e-10 8.14244e-11 9.89183e-11 0.548502 0.00637255 0 0 0 0 0 0 0 0 0 0 0 0 0 0 0 0 0 0 0 0 0 0 0 0 0 0 0 0 0 0 0 0 0 0 0 0 0 0 0 0 0 0
0.0552647 1.99332e-10 8.9998e-11 1.09334e-10 0.548502 0.00704355 0 0 0 0 0 0 0 0 0 0 0 0 0 0 0 0 0 0 0 0 0 0 0 0 0 0 0 0 0 0 0 0 0 0 0 0 0 0 0 0 0 0
0.0581015 2.20321e-10 9.94743e-11 1.20846e-10 0.548502 0.0077852 0 0 0 0 0 0 0 0 0 0 0 0 0 0 0 0 0 0 0 0 0 0 0 0 0 0 0 0 0 0 0 0 0 0 0 0 0 0 0 0 0 0
0.0610839 2.43519e-10 1.09948e-10 1.33571e-10 0.548502 0.00860494 0 0 0 0 0 0 0 0 0 0 0 0 0 0 0 0 0 0 0 0 0 0 0 0 0 0 0 0 0 0 0 0 0 0 0 0 0 0 0 0 0 0
0.0642193 2.69161e-10 1.21526e-10 1.47635e-10 0.548502 0.009511 0 0 0 0 0 0 0 0 0 0 0 0 0 0 0 0 0 0 0 0 0 0 0 0 0 0 0 0 0 0 0 0 0 0 0 0 0 0 0 0 0 0
0.0675157 2.97502e-10 1.34322e-10 1.6318e-10 0.548502 0.0105125 0 0 0 0 0 0 0 0 0 0 0 0 0 0 0 0 0 0 0 0 0 0 0 0 0 0 0 0 0 0 0 0 0 0 0 0 0 0 0 0 0 0
0.0709813 3.28827e-10 1.48465e-10 1.80362e-10 0.548502 0.0116194 0 0 0 0 0 0 0 0 0 0 0 0 0 0 0 0 0 0 0 0 0 0 0 0 0 0 0 0 0 0 0 0 0 0 0 0 0 0 0 0 0 0
0.0746248 3.63451e-10 1.64098e-10 1.99354e-10 0.548502 0.0128428 0 0 0 0 0 0 0 0 0 0 0 0 0 0 0 0 0 0 0 0 0 0 0 0 0 0 0 0 0 0 0 0 0 0 0 0 0 0 0 0 0 0
0.0784553 4.01721e-10 1.81376e-10 2.20345e-10 0.548502 0.0141951 0 0 0 0 0 0 0 0 0 0 0 0 0 0 0 0 0 0 0 0 0 0 0 0 0 0 0 0 0 0 0 0 0 0 0 0 0 0 0 0 0 0
0.0824824 4.4402e-10 2.00474e-10 2.43546e-10 0.548502 0.0156898 0 0 0 0 0 0 0 0 0 0 0 0 0 0 0 0 0 0 0 0 0 0 0 0 0 0 0 0 0 0 0 0 0 0 0 0 0 0 0 0 0 0
0.0867162 4.90774e-10 2.21583e-10 2.6919e-10 0.548502 0.0173419 0 0 0 0 0 0 0 0 0 0 0 0 0 0 0 0 0 0 0 0 0 0 0 0 0 0 0 0 0 0 0 0 0 0 0 0 0 0 0 0 0 0
0.0911674 5.4245e-10 2.44915e-10 2.97535e-10 0.548502 0.0191679 0 0 0 0 0 0 0 0 0 0 0 0 0 0 0 0 0 0 0 0 0 0 0 0 0 0 0 0 0 0 0 0 0 0 0 0 0 0 0 0 0 0
0.095847 5.99567e-10 2.70703e-10 3.28864e-10 0.548502 0.0211862 0 0 0 0 0 0 0 0 0 0 0 0 0 0 0 0 0 0 0 0 0 0 0 0 0 0 0 0 0 0 0 0 0 0 0 0 0 0 0 0 0 0
0.100767 6.51919e-10 2.96512e-10 3.55408e-10 0.545171 0.0235692 0 0 0 0 0 0 0 0 0 0 0 0 0 0 0 0 0 0 0 0 0 0 0 0 0 0 0 0 0 0 0 0 0 0 0 0 0 0 0 0 0 0
0.105939 6.50194e-10 3.08826e-10 3.41368e-10 0.525025 0.0256046 0 0 0 0 0 0 0 0 0 0 0 0 0 0 0 0 0 0 0 0 0 0 0 0 0 0 0 0 0 0 0 0 0 0 0 0 0 0 0 0 0 0
0.111377 6.52946e-10 3.13861e-10 3.39085e-10 0.519315 0.0289403 0 0 0 0 0 0 0 0 0 0 0 0 0 0 0 0 0 0 0 0 0 0 0 0 0 0 0 0 0 0 0 0 0 0 0 0 0 0 0 0 0 0
0.117094 6.56269e-10 3.26738e-10 3.29531e-10 0.502128 0.0274507 0 0 0 0 0 0 0 0 0 0 0 0 0 0 0 0 0 0 0 0 0 0 0 0 0 0 0 0 0 0 0 0 0 0 0 0 0 0 0 0 0 0
0.123105 6.58239e-10 3.45254e-10 3.12985e-10 0.475489 0.0236555 0 0 0 0 0 0 0 0 0 0 0 0 0 0 0 0 0 0 0 0 0 0 0 0 0 0 0 0 0 0 0 0 0 0 0 0 0 0 0 0 0 0
0.129424 6.58073e-10 3.59436e-10 2.98637e-10 0.453805 0.0199126 0 0 0 0 0 0 0 0 0 0 0 0 0 0 0 0 0 0 0 0 0 0 0 0 0 0 0 0 0 0 0 0 0 0 0 0 0 0 0 0 0 0
0.136067 6.94862e-10 3.60529e-10 3.34333e-10 0.481151 0.0168557 0 0 0 0 0 0 0 0 0 0 0 0 0 0 0 0 0 0 0 0 0 0 0 0 0 0 0 0 0 0 0 0 0 0 0 0 0 0 0 0 0 0
0.143051 7.27408e-10 3.55788e-10 3.7162e-10 0.510883 0.0143876 0 0 0 0 0 0 0 0 0 0 0 0 0 0 0 0 0 0 0 0 0 0 0 0 0 0 0 0 0 0 0 0 0 0 0 0 0 0 0 0 0 0
0.150394 6.9921e-10 3.43814e-10 3.55396e-10 0.508282 0.0122986 0 0 0 0 0 0 0 0 0 0 0 0 0 0 0 0 0 0 0 0 0 0 0 0 0 0 0 0 0 0 0 0 0 0 0 0 0 0 0 0 0 0
0.158114 6.28429e-10 3.34512e-10 2.93917e-10 0.467702 0.01055 0 0 0 0 0 0 0 0 0 0 0 0 0 0 0 0 0 0 0 0 0 0 0 0 0 0 0 0 0 0 0 0 0 0 0 0 0 0 0 0 0 0
0.16623 5.60636e-10 3.28455e-10 2.32182e-10 0.41414 0.00908216 0 0 0 0 0 0 0 0 0 0 0 0 0 0 0 0 0 0 0 0 0 0 0 0 0 0 0 0 0 0 0 0 0 0 0 0 0 0 0 0 0 0
0.174762 5.26497e-10 3.25679e-10 2.00818e-10 0.381423 0.00782097 0 0 0 0 0 0 0 0 0 0 0 0 0 0 0 0 0 0 0 0 0 0 0 0 0 0 0 0 0 0 0 0 0 0 0 0 0 0 0 0 0 0
0.183733 5.26316e-10 3.25429e-10 2.00887e-10 0.381685 0.00667218 0 0 0 0 0 0 0 0 0 0 0 0 0 0 0 0 0 0 0 0 0 0 0 0 0 0 0 0 0 0 0 0 0 0 0 0 0 0 0 0 0 0
0.193164 5.61507e-10 3.29581e-10 2.31926e-10 0.413042 0.00556038 0 0 0 0 0 0 0 0 0 0 0 0 0 0 0 0 0 0 0 0 0 0 0 0 0 0 0 0 0 0 0 0 0 0 0 0 0 0 0 0 0 0
0.203079 6.22044e-10 3.39597e-10 2.82448e-10 0.454063 0.00446034 0 0 0 0 0 0 0 0 0 0 0 0 0 0 0 0 0 0 0 0 0 0 0 0 0 0 0 0 0 0 0 0 0 0 0 0 0 0 0 0 0 0
0.213503 6.91258e-10 3.53779e-10 3.37479e-10 0.48821 0.00342932 0 0 0 0 0 0 0 0 0 0 0 0 0 0 0 0 0 0 0 0 0 0 0 0 0 0 0 0 0 0 0 0 0 0 0 0 0 0 0 0 0 0
0.224463 7.4999e-10 3.64663e-10 3.85327e-10 0.513777 0.00254317 0 0 0 0 0 0 0 0 0 0 0 0 0 0 0 0 0 0 0 0 0 0 0 0 0 0 0 0 0 0 0 0 0 0 0 0 0 0 0 0 0 0
0.235984 7.81323e-10 3.63924e-10 4.17399e-10 0.534221 0.00182186 0 0 0 0 0 0 0 0 0 0 0 0 0 0 0 0 0 0 0 0 0 0 0 0 0 0 0 0 0 0 0 0 0 0 0 0 0 0 0 0 0 0
0.248097 7.84763e-10 3.52546e-10 4.32216e-10 0.550761 0.00138916 0 0 0 0 0 0 0 0 0 0 0 0 0 0 0 0 0 0 0 0 0 0 0 0 0 0 0 0 0 0 0 0 0 0 0 0 0 0 0 0 0 0
0.260832 7.76121e-10 3.43394e-10 4.32728e-10 0.557552 0.00141961 0 0 0 0 0 0 0 0 0 0 0 0 0 0 0 0 0 0 0 0 0 0 0 0 0 0 0 0 0 0 0 0 0 0 0 0 0 0 0 0 0 0
0.274221 7.67264e-10 3.46532e-10 4.20732e-10 0.548354 0.00187131 0 0 0 0 0 0 0 0 0 0 0 0 0 0 0 0 0 0 0 0 0 0 0 0 0 0 0 0 0 0 0 0 0 0 0 0 0 0 0 0 0 0
0.288297 7.62314e-10 3.61285e-10 4.01028e-10 0.526067 0.00251556 0 0 0 0 0 0 0 0 0 0 0 0 0 0 0 0 0 0 0 0 0 0 0 0 0 0 0 0 0 0 0 0 0 0 0 0 0 0 0 0 0 0
0.303095 7.63624e-10 3.8112e-10 3.82503e-10 0.500905 0.0028362 0 0 0 0 0 0 0 0 0 0 0 0 0 0 0 0 0 0 0 0 0 0 0 0 0 0 0 0 0 0 0 0 0 0 0 0 0 0 0 0 0 0
0.318653 7.69841e-10 3.9864e-10 3.71201e-10 0.482179 0.00297223 0 0 0 0 0 0 0 0 0 0 0 0 0 0 0 0 0 0 0 0 0 0 0 0 0 0 0 0 0 0 0 0 0 0 0 0 0 0 0 0 0 0
0.335009 7.75036e-10 4.07784e-10 3.67251e-10 0.473851 0.00293231 0 0 0 0 0 0 0 0 0 0 0 0 0 0 0 0 0 0 0 0 0 0 0 0 0 0 0 0 0 0 0 0 0 0 0 0 0 0 0 0 0 0
0.352205 7.76348e-10 4.08592e-10 3.67756e-10 0.4737 0.00278811 0 0 0 0 0 0 0 0 0 0 0 0 0 0 0 0 0 0 0 0 0 0 0 0 0 0 0 0 0 0 0 0 0 0 0 0 0 0 0 0 0 0
0.370284 7.76771e-10 4.06456e-10 3.70315e-10 0.476737 0.00261033 0 0 0 0 0 0 0 0 0 0 0 0 0 0 0 0 0 0 0 0 0 0 0 0 0 0 0 0 0 0 0 0 0 0 0 0 0 0 0 0 0 0
0.389291 7.79545e-10 4.06115e-10 3.7343e-10 0.479036 0.00243645 0 0 0 0 0 0 0 0 0 0 0 0 0 0 0 0 0 0 0 0 0 0 0 0 0 0 0 0 0 0 0 0 0 0 0 0 0 0 0 0 0 0
0.409273 7.85459e-10 4.09014e-10 3.76445e-10 0.479268 0.00226652 0 0 0 0 0 0 0 0 0 0 0 0 0 0 0 0 0 0 0 0 0 0 0 0 0 0 0 0 0 0 0 0 0 0 0 0 0 0 0 0 0 0
0.430281 7.93372e-10 4.14742e-10 3.78631e-10 0.477242 0.00210471 0 0 0 0 0 0 0 0 0 0 0 0 0 0 0 0 0 0 0 0 0 0 0 0 0 0 0 0 0 0 0 0 0 0 0 0 0 0 0 0 0 0
0.452368 8.00576e-10 4.22129e-10 3.78447e-10 0.472719 0.00193723 0 0 0 0 0 0 0 0 0 0 0 0 0 0 0 0 0 0 0 0 0 0 0 0 0 0 0 0 0 0 0 0 0 0 0 0 0 0 0 0 0 0
0.475588 8.0342e-10 4.29442e-10 3.73979e-10 0.465483 0.00177642 0 0 0 0 0 0 0 0 0 0 0 0 0 0 0 0 0 0 0 0 0 0 0 0 0 0 0 0 0 0 0 0 0 0 0 0 0 0 0 0 0 0
0.5 7.97825e-10 4.345e-10 3.63325e-10 0.455394 0.00162159 0 0 0 0 0 0 0 0 0 0 0 0 0 0 0 0 0 0 0 0 0 0 0 0 0 0 0 0 0 0 0 0 0 0 0 0 0 0 0 0 0 0
0.525665 7.8087e-10 4.35152e-10 3.45718e-10 0.442735 0.0014751 0 0 0 0 0 0 0 0 0 0 0 0 0 0 0 0 0 0 0 0 0 0 0 0 0 0 0 0 0 0 0 0 0 0 0 0 0 0 0 0 0 0
0.552648 7.51594e-10 4.29968e-10 3.21626e-10 0.427925 0.00134175 0 0 0 0 0 0 0 0 0 0 0 0 0 0 0 0 0 0 0 0 0 0 0 0 0 0 0 0 0 0 0 0 0 0 0 0 0 0 0 0 0 0
0.581015 7.11162e-10 4.18543e-10 2.92619e-10 0.411466 0.00121775 0 0 0 0 0 0 0 0 0 0 0 0 0 0 0 0 0 0 0 0 0 0 0 0 0 0 0 0 0 0 0 0 0 0 0 0 0 0 0 0 0 0
0.610839 6.62959e-10 4.01911e-10 2.61049e-10 0.393763 0.00110516 0 0 0 0 0 0 0 0 0 0 0 0 0 0 0 0 0 0 0 0 0 0 0 0 0 0 0 0 0 0 0 0 0 0 0 0 0 0 0 0 0 0
0.642193 6.10626e-10 3.81573e-10 2.29053e-10 0.375112 0.00100302 0 0 0 0 0 0 0 0 0 0 0 0 0 0 0 0 0 0 0 0 0 0 0 0 0 0 0 0 0 0 0 0 0 0 0 0 0 0 0 0 0 0
0.675157 5.5758e-10 3.59226e-10 1.98354e-10 0.355742 0.000910957 0 0 0 0 0 0 0 0 0 0 0 0 0 0 0 0 0 0 0 0 0 0 0 0 0 0 0 0 0 0 0 0 0 0 0 0 0 0 0 0 0 0
0.709813 5.0624e-10 3.36186e-10 1.70053e-10 0.335915 0.00082817 0 0 0 0 0 0 0 0 0 0 0 0 0 0 0 0 0 0 0 0 0 0 0 0 0 0 0 0 0 0 0 0 0 0 0 0 0 0 0 0 0 0
0.746248 4.57931e-10 3.13284e-10 1.44647e-10 0.31587 0.000754183 0 0 0 0 0 0 0 0 0 0 0 0 0 0 0 0 0 0 0 0 0 0 0 0 0 0 0 0 0 0 0 0 0 0 0 0 0 0 0 0 0 0
0.784553 4.1335e-10 2.91044e-10 1.22306e-10 0.29589 0.000686995 0 0 0 0 0 0 0 0 0 0 0 0 0 0 0 0 0 0 0 0 0 0 0 0 0 0 0 0 0 0 0 0 0 0 0 0 0 0 0 0 0 0
0.824824 3.7262e-10 2.6968e-10 1.0294e-10 0.27626 0.000626788 0 0 0 0 0 0 0 0 0 0 0 0 0 0 0 0 0 0 0 0 0 0 0 0 0 0 0 0 0 0 0 0 0 0 0 0 0 0 0 0 0 0
0.867162 3.35611e-10 2.49298e-10 8.63122e-11 0.25718 0.000572518 0 0 0 0 0 0 0 0 0 0 0 0 0 0 0 0 0 0 0 0 0 0 0 0 0 0 0 0 0 0 0 0 0 0 0 0 0 0 0 0 0 0
0.911674 3.02084e-10 2.29942e-10 7.21416e-11 0.238813 0.000523427 0 0 0 0 0 0 0 0 0 0 0 0 0 0 0 0 0 0 0 0 0 0 0 0 0 0 0 0 0 0 0 0 0 0 0 0 0 0 0 0 0 0
0.95847 2.71735e-10 2.11606e-10 6.01298e-11 0.221281 0.00047944 0 0 0 0 0 0 0 0 0 0 0 0 0 0 0 0 0 0 0 0 0 0 0 0 0 0 0 0 0 0 0 0 0 0 0 0 0 0 0 0 0 0
1.00767 2.4429e-10 1.94291e-10 4.9999e-11 0.204671 0.0004395 0 0 0 0 0 0 0 0 0 0 0 0 0 0 0 0 0 0 0 0 0 0 0 0 0 0 0 0 0 0 0 0 0 0 0 0 0 0 0 0 0 0
1.05939 2.19484e-10 1.78003e-10 4.14806e-11 0.188992 0.000403275 0 0 0 0 0 0 0 0 0 0 0 0 0 0 0 0 0 0 0 0 0 0 0 0 0 0 0 0 0 0 0 0 0 0 0 0 0 0 0 0 0 0
1.11377 1.97024e-10 1.6269e-10 3.43341e-11 0.174263 0.000370298 0 0 0 0 0 0 0 0 0 0 0 0 0 0 0 0 0 0 0 0 0 0 0 0 0 0 0 0 0 0 0 0 0 0 0 0 0 0 0 0 0 0
1.17094 1.76813e-10 1.48431e-10 2.83819e-11 0.160519 0.000339515 0 0 0 0 0 0 0 0 0 0 0 0 0 0 0 0 0 0 0 0 0 0 0 0 0 0 0 0 0 0 0 0 0 0 0 0 0 0 0 0 0 0
1.23105 1.58576e-10 1.3516e-10 2.3416e-11 0.147664 0.000311294 0 0 0 0 0 0 0 0 0 0 0 0 0 0 0 0 0 0 0 0 0 0 0 0 0 0 0 0 0 0 0 0 0 0 0 0 0 0 0 0 0 0
1.29424 1.42172e-10 1.22877e-10 1.92947e-11 0.135714 0.000285362 0 0 0 0 0 0 0 0 0 0 0 0 0 0 0 0 0 0 0 0 0 0 0 0 0 0 0 0 0 0 0 0 0 0 0 0 0 0 0 0 0 0
1.36067 1.27415e-10 1.11536e-10 1.58786e-11 0.124621 0.000261742 0 0 0 0 0 0 0 0 0 0 0 0 0 0 0 0 0 0 0 0 0 0 0 0 0 0 0 0 0 0 0 0 0 0 0 0 0 0 0 0 0 0
1.43051 1.14147e-10 1.01097e-10 1.30504e-11 0.11433 0.000240209 0 0 0 0 0 0 0 0 0 0 0 0 0 0 0 0 0 0 0 0 0 0 0 0 0 0 0 0 0 0 0 0 0 0 0 0 0 0 0 0 0 0
1.50394 1.02256e-10 9.15387e-11 1.07173e-11 0.104808 0.000220279 0 0 0 0 0 0 0 0 0 0 0 0 0 0 0 0 0 0 0 0 0 0 0 0 0 0 0 0 0 0 0 0 0 0 0 0 0 0 0 0 0 0
1.58114 9.16006e-11 8.28051e-11 8.79548e-12 0.0960199 0.000201732 0 0 0 0 0 0 0 0 0 0 0 0 0 0 0 0 0 0 0 0 0 0 0 0 0 0 0 0 0 0 0 0 0 0 0 0 0 0 0 0 0 0
1.6623 8.20506e-11 7.48378e-11 7.21279e-12 0.0879067 0.000184534 0 0 0 0 0 0 0 0 0 0 0 0 0 0 0 0 0 0 0 0 0 0 0 0 0 0 0 0 0 0 0 0 0 0 0 0 0 0 0 0 0 0
1.74763 7.35028e-11 6.75906e-11 5.91224e-12 0.0804355 0.000169005 0 0 0 0 0 0 0 0 0 0 0 0 0 0 0 0 0 0 0 0 0 0 0 0 0 0 0 0 0 0 0 0 0 0 0 0 0 0 0 0 0 0
1.83733 6.58531e-11 6.1009e-11 4.8441e-12 0.0735592 0.000154804 0 0 0 0 0 0 0 0 0 0 0 0 0 0 0 0 0 0 0 0 0 0 0 0 0 0 0 0 0 0 0 0 0 0 0 0 0 0 0 0 0 0
1.93164 5.90058e-11 5.50387e-11 3.9671e-12 0.0672324 0.000141793 0 0 0 0 0 0 0 0 0 0 0 0 0 0 0 0 0 0 0 0 0 0 0 0 0 0 0 0 0 0 0 0 0 0 0 0 0 0 0 0 0 0
2.03079 5.2881e-11 4.96331e-11 3.24787e-12 0.0614185 0.000129725 0 0 0 0 0 0 0 0 0 0 0 0 0 0 0 0 0 0 0 0 0 0 0 0 0 0 0 0 0 0 0 0 0 0 0 0 0 0 0 0 0 0
2.13503 4.74052e-11 4.47464e-11 2.65882e-12 0.0560871 0.000118657 0 0 0 0 0 0 0 0 0 0 0 0 0 0 0 0 0 0 0 0 0 0 0 0 0 0 0 0 0 0 0 0 0 0 0 0 0 0 0 0 0 0
2.24463 4.25059e-11 4.03298e-11 2.17606e-12 0.0511944 0.000108569 0 0 0 0 0 0 0 0 0 0 0 0 0 0 0 0 0 0 0 0 0 0 0 0 0 0 0 0 0 0 0 0 0 0 0 0 0 0 0 0 0 0
2.35984 3.81256e-11 3.63448e-11 1.78081e-12 0.0467091 9.92926e-05 0 0 0 0 0 0 0 0 0 0 0 0 0 0 0 0 0 0 0 0 0 0 0 0 0 0 0 0 0 0 0 0 0 0 0 0 0 0 0 0 0 0
2.48097 3.42081e-11 3.2751e-11 1.45709e-12 0.0425948 9.07218e-05 0 0 0 0 0 0 0 0 0 0 0 0 0 0 0 0 0 0 0 0 0 0 0 0 0 0 0 0 0 0 0 0 0 0 0 0 0 0 0 0 0 0
2.60832 3.07036e-11 2.95114e-11 1.19224e-12 0.0388307 8.27967e-05 0 0 0 0 0 0 0 0 0 0 0 0 0 0 0 0 0 0 0 0 0 0 0 0 0 0 0 0 0 0 0 0 0 0 0 0 0 0 0 0 0 0
2.74221 2.75716e-11 2.6596e-11 9.75581e-13 0.0353836 7.55862e-05 0 0 0 0 0 0 0 0 0 0 0 0 0 0 0 0 0 0 0 0 0 0 0 0 0 0 0 0 0 0 0 0 0 0 0 0 0 0 0 0 0 0
2.88297 2.47681e-11 2.397e-11 7.98089e-13 0.0322224 6.90729e-05 0 0 0 0 0 0 0 0 0 0 0 0 0 0 0 0 0 0 0 0 0 0 0 0 0 0 0 0 0 0 0 0 0 0 0 0 0 0 0 0 0 0
3.03095 2.2263e-11 2.16099e-11 6.53038e-13 0.0293329 6.31538e-05 0 0 0 0 0 0 0 0 0 0 0 0 0 0 0 0 0 0 0 0 0 0 0 0 0 0 0 0 0 0 0 0 0 0 0 0 0 0 0 0 0 0
3.18653 2.00216e-11 1.94873e-11 5.34273e-13 0.0266849 5.76567e-05 0 0 0 0 0 0 0 0 0 0 0 0 0 0 0 0 0 0 0 0 0 0 0 0 0 0 0 0 0 0 0 0 0 0 0 0 0 0 0 0 0 0
3.35009 1.80168e-11 1.75797e-11 4.37109e-13 0.0242612 5.2603e-05 0 0 0 0 0 0 0 0 0 0 0 0 0 0 0 0 0 0 0 0 0 0 0 0 0 0 0 0 0 0 0 0 0 0 0 0 0 0 0 0 0 0
3.52205 1.62243e-11 1.58667e-11 3.57639e-13 0.0220434 4.80102e-05 0 0 0 0 0 0 0 0 0 0 0 0 0 0 0 0 0 0 0 0 0 0 0 0 0 0 0 0 0 0 0 0 0 0 0 0 0 0 0 0 0 0
3.70284 1.46211e-11 1.43285e-11 2.9262e-13 0.0200135 4.38066e-05 0 0 0 0 0 0 0 0 0 0 0 0 0 0 0 0 0 0 0 0 0 0 0 0 0 0 0 0 0 0 0 0 0 0 0 0 0 0 0 0 0 0
3.89291 1.31863e-11 1.29469e-11 2.39413e-13 0.0181562 3.9926e-05 0 0 0 0 0 0 0 0 0 0 0 0 0 0 0 0 0 0 0 0 0 0 0 0 0 0 0 0 0 0 0 0 0 0 0 0 0 0 0 0 0 0
4.09273 1.1904e-11 1.17081e-11 1.95901e-13 0.0164567 3.62643e-05 0 0 0 0 0 0 0 0 0 0 0 0 0 0 0 0 0 0 0 0 0 0 0 0 0 0 0 0 0 0 0 0 0 0 0 0 0 0 0 0 0 0
4.30281 1.07572e-11 1.05969e-11 1.603e-13 0.0149016 3.29535e-05 0 0 0 0 0 0 0 0 0 0 0 0 0 0 0 0 0 0 0 0 0 0 0 0 0 0 0 0 0 0 0 0 1.4013e-45 0 2.8026e-45 0 7.00649e-45 0 2.10195e-44 0 5.46506e-44 0
4.52368 9.73111e-12 9.59992e-12 1.31193e-13 0.0134818 2.99416e-05 0 0 0 0 0 0 0 0 0 0 0 0 0 0 0 0 0 0 0 0 0 0 0 0 0 0 1.4013e-45 0 7.00649e-45 0 2.8026e-44 0 9.10844e-44 0 2.9147e-43 0 8.14154e-43 0 2.22666e-42 0 5.57857e-42 0
4.75588 8.81325e-12 8.70588e-12 1.07367e-13 0.0121824 2.71796e-05 0 0 0 0 0 0 0 0 0 0 0 0 0 0 0 0 0 0 0 0 1.4013e-45 0 9.80909e-45 0 4.90454e-44 0 2.14399e-43 0 8.15556e-43 0 2.88527e-42 0 8.91226e-42 0 2.68209e-41 0 7.12364e-41 0 1.85479e-40 0 4.44306e-40 0
5 7.99147e-12 7.9036e-12 8.78703e-14 0.0109955 2.45398e-05 0 0 0 0 0 0 0 0 0 0 0 0 0 0 0 0 2.8026e-45 0 2.66247e-44 0 1.80768e-43 0 9.93521e-43 0 4.78824e-42 0 1.97135e-41 0 7.01854e-41 0 2.3358e-40 0 6.82745e-40 0 1.94709e-39 0 4.93075e-39 0 1.22522e-38 0 2.8124e-38 0
5.25665 7.2561e-12 7.18418e-12 7.19221e-14 0.00991195 2.21678e-05 0 0 0 0 0 0 0 0 0 0 0 0 1.4013e-45 0 2.8026e-44 0 3.20897e-43 0 2.64285e-42 0 1.65185e-41 0 8.34487e-41 0 3.72221e-40 0 1.43017e-39 0 4.78575e-39 0 1.50192e-38 0 4.16607e-38 0 1.12884e-37 0 2.73186e-37 0 6.4932e-37 0 1.43121e-36 0
5.52648 6.5976e-12 6.53873e-12 5.88701e-14 0.00892296 2.00489e-05 0 0 0 0 0 0 0 0 0 0 7.00649e-45 0 1.79366e-43 0 2.70871e-42 0 2.8047e-41 0 2.08233e-40 0 1.19007e-39 0 5.55501e-39 0 2.30337e-38 0 8.28719e-38 0 2.61432e-37 0 7.75899e-37 0 2.04763e-36 0 5.28473e-36 0 1.22492e-35 0 2.79094e-35 0 5.91885e-35 0
5.81015 6.00761e-12 5.95942e-12 4.81908e-14 0.00802163 1.8115e-05 0 0 0 0 0 0 0 0 1.26117e-44 0 6.69821e-43 0 1.58865e-41 0 2.09906e-40 0 1.93891e-39 0 1.30534e-38 0 6.85149e-38 0 2.96638e-37 0 1.14749e-36 0 3.87832e-36 0 1.15674e-35 0 3.25547e-35 0 8.19379e-35 0 2.01907e-34 0 4.4917e-34 0 9.83088e-34 0 2.00973e-33 0
6.10839 5.47825e-12 5.43878e-12 3.94639e-14 0.00720375 1.63023e-05 0 0 0 0 0 0 7.00649e-45 0 1.22193e-42 0 5.47529e-41 0 1.11188e-39 0 1.2952e-38 0 1.07332e-37 0 6.58354e-37 0 3.18688e-36 0 1.2845e-35 0 4.65126e-35 0 1.4813e-34 0 4.18854e-34 0 1.12073e-33 0 2.6965e-33 0 6.35834e-33 0 1.36034e-32 0 2.86564e-32 0 5.65725e-32 0
6.42193 4.97779e-12 4.94557e-12 3.2225e-14 0.00647377 1.48144e-05 0 0 0 0 0 0 7.31478e-43 0 9.5015e-41 0 3.53497e-39 0 6.19717e-38 0 6.40345e-37 0 4.78594e-36 0 2.68681e-35 0 1.20421e-34 0 4.53436e-34 0 1.54194e-33 0 4.64064e-33 0 1.24726e-32 0 3.18073e-32 0 7.33176e-32 0 1.65792e-31 0 3.41776e-31 0 6.9425e-31 0 1.3258e-30 0
6.75157 4.58072e-12 4.5543e-12 2.64134e-14 0.00576622 1.32279e-05 0 0 0 0 5.88545e-44 0 5.80656e-41 0 5.9464e-39 0 1.85423e-37 0 2.82647e-36 0 2.60583e-35 0 1.76543e-34 0 9.11039e-34 0 3.79487e-33 0 1.33935e-32 0 4.29036e-32 0 1.22361e-31 0 3.1337e-31 0 7.63442e-31 0 1.68947e-30 0 3.67117e-30 0 7.30538e-30 0 1.43348e-29 0 2.65237e-29 0
7.09813 4.20001e-12 4.17838e-12 2.16256e-14 0.00514893 1.18448e-05 0 0 0 0 5.19181e-42 0 3.6488e-39 0 2.98078e-37 0 7.85781e-36 0 1.04862e-34 0 8.67403e-34 0 5.35249e-33 0 2.54945e-32 0 9.90495e-32 0 3.28708e-31 0 9.94772e-31 0 2.69556e-30 0 6.59363e-30 0 1.53802e-29 0 3.27411e-29 0 6.85e-29 0 1.31807e-28 0 2.50261e-28 0 4.49355e-28 0
7.46248 3.85875e-12 3.84105e-12 1.77042e-14 0.00458805 1.05694e-05 0 0 2.8026e-45 0 3.618e-40 0 1.8463e-37 0 1.21653e-35 0 2.73349e-34 0 3.21435e-33 0 2.39824e-32 0 1.35407e-31 0 5.97633e-31 0 2.17301e-30 0 6.80119e-30 0 1.94993e-29 0 5.03277e-29 0 1.17846e-28 0 2.63751e-28 0 5.41133e-28 0 1.09207e-27 0 2.03525e-27 0 3.74522e-27 0 6.53527e-27 0
7.84553 3.55217e-12 3.53768e-12 1.44941e-14 0.00408036 9.34187e-06 0 0 3.06884e-43 0 2.02005e-38 0 7.6031e-36 0 4.08327e-34 0 7.88155e-33 0 8.21726e-32 0 5.55794e-31 0 2.88375e-30 0 1.18378e-29 0 4.04135e-29 0 1.19634e-28 0 3.25803e-28 0 8.02857e-28 0 1.80346e-27 0 3.88062e-27 0 7.6873e-27 0 1.4991e-26 0 2.71019e-26 0 4.84091e-26 0 8.22067e-26 0
8.24824 3.27537e-12 3.2635e-12 1.18659e-14 0.00362276 8.19911e-06 0 0 2.38557e-41 0 9.133e-37 0 2.57329e-34 0 1.13773e-32 0 1.90053e-31 0 1.76718e-30 0 1.08877e-29 0 5.21276e-29 0 1.99727e-28 0 6.42179e-28 0 1.80291e-27 0 4.67551e-27 0 1.10253e-26 0 2.38065e-26 0 4.93451e-26 0 9.45412e-26 0 1.78449e-25 0 3.13422e-25 0 5.44197e-25 0 9.00551e-25 0
8.67162 3.02751e-12 3.01779e-12 9.71504e-15 0.00320892 7.20916e-06 1.96182e-44 0 1.47847e-39 0 3.38119e-35 0 7.23321e-33 0 2.65791e-31 0 3.86965e-30 0 3.22698e-29 0 1.81926e-28 0 8.06904e-28 0 2.89539e-27 0 8.79353e-27 0 2.34742e-26 0 5.81088e-26 0 1.31405e-25 0 2.73273e-25 0 5.46624e-25 0 1.01456e-24 0 1.85654e-24 0 3.1723e-24 0 5.36169e-24 0 8.65712e-24 0
9.11674 2.80429e-12 2.79634e-12 7.95409e-15 0.0028364 6.32492e-06 1.68716e-42 0 7.38675e-38 0 1.03484e-33 0 1.70358e-31 0 5.2499e-30 0 6.70646e-29 0 5.0425e-28 0 2.6126e-27 0 1.07749e-26 0 3.63252e-26 0 1.04498e-25 0 2.65899e-25 0 6.2972e-25 0 1.36841e-24 0 2.74584e-24 0 5.30966e-24 0 9.56189e-24 0 1.69885e-23 0 2.82791e-23 0 4.65871e-23 0 7.34815e-23 0
9.5847 2.60385e-12 2.59734e-12 6.51225e-15 0.00250101 5.52644e-06 1.15798e-40 0 3.008e-36 0 2.64394e-32 0 3.39253e-30 0 8.84349e-29 0 9.97585e-28 0 6.79712e-27 0 3.24991e-26 0 1.25074e-25 0 3.97368e-25 0 1.08565e-24 0 2.63933e-24 0 5.99298e-24 0 1.25387e-23 0 2.4319e-23 0 4.5536e-23 0 7.96817e-23 0 1.37652e-22 0 2.23505e-22 0 3.59337e-22 0 5.54309e-22 0
10.0767 2.4241e-12 2.41877e-12 5.33249e-15 0.00219978 4.78203e-06 6.3785e-39 0 1.00869e-34 0 5.69077e-31 0 5.76113e-29 0 1.28076e-27 0 1.28356e-26 0 7.96346e-26 0 3.52753e-25 0 1.27113e-24 0 3.81685e-24 0 9.9286e-24 0 2.3113e-23 0 5.04217e-23 0 1.01759e-22 0 1.91082e-22 0 3.47e-22 0 5.90839e-22 0 9.93804e-22 0 1.5759e-21 0 2.47557e-21 0 3.73881e-21 0
