# 0.01 1 120 : grain size, compostion index, size index
# This grain was stochastically heated: No
# Heating and cooling timescale: 3.73406e-08 inf
# Ratio of heating to cooling to determine stochastic cutoff: 100
# Equilibrium emission is recorded even for those grains in the stochastic regime.
# Emission spectrum was computed for: 
# Type: IRSF
# Scales:  0.5 1 2 5 10
# Temperature: -1
# Wavelength  CExt  CAbs  CSca  Albedo G EqEm1 StEm1 EqEm2 StEm2 EqEm3 StEm3 EqEm4 StEm4 EqEm5 StEm5
0.05 0.00062942 0.000222694 0.000406726 0.646192 0.853674 0 0 0 0 0 0 0 0 0 0
0.0525665 0.000629466 0.000219063 0.000410402 0.651985 0.841155 0 0 0 0 0 0 0 0 0 0
0.0552647 0.000629513 0.000216312 0.000413201 0.656382 0.830758 0 0 0 0 0 0 0 0 0 0
0.0581015 0.000629559 0.000215063 0.000414496 0.658391 0.824377 0 0 0 0 0 0 0 0 0 0
0.0610839 0.000629607 0.000212009 0.000417598 0.663267 0.815584 0 0 0 0 0 0 0 0 0 0
0.0642193 0.00062966 0.000204399 0.000425261 0.675382 0.797249 0 0 0 0 0 0 0 0 0 0
0.0675157 0.000629721 0.000196828 0.000432893 0.687437 0.777221 0 0 0 0 0 0 0 0 0 0
0.0709813 0.000629785 0.000196044 0.000433741 0.688713 0.770076 0 0 0 0 0 0 0 0 0 0
0.0746248 0.00062985 0.000198997 0.000430853 0.684056 0.771423 0 0 0 0 0 0 0 0 0 0
0.0784553 0.000629913 0.000203124 0.000426789 0.677536 0.776331 0 0 0 0 0 0 0 0 0 0
0.0824824 0.000629978 0.00020784 0.000422138 0.670084 0.782218 0 0 0 0 0 0 0 0 0 0
0.0867162 0.000630044 0.000208918 0.000421126 0.668407 0.781082 0 0 0 0 0 0 0 0 0 0
0.0911674 0.000630118 0.000207911 0.000422207 0.670044 0.775912 0 0 0 0 0 0 0 0 0 0
0.095847 0.000630192 0.000208746 0.000421447 0.668759 0.774157 0 0 0 0 0 0 0 0 0 0
0.100767 0.000630256 0.000216048 0.000414208 0.657206 0.785654 0 0 0 0 0 0 0 0 0 0
0.105939 0.000630314 0.000223408 0.000406906 0.645561 0.80035 0 0 0 0 0 0 0 0 0 0
0.111377 0.000630358 0.000236867 0.000393491 0.624234 0.828453 0 0 0 0 0 0 0 0 0 0
0.117094 0.000630393 0.000250798 0.000379596 0.602157 0.860866 0 0 0 0 0 0 0 0 0 0
0.123105 0.000630444 0.000259772 0.000370672 0.587954 0.883557 0 0 0 0 0 0 0 0 0 0
0.129424 0.000630505 0.000267377 0.000363128 0.575932 0.903583 0 0 0 0 0 0 0 0 0 0
0.136067 0.000630566 0.000273443 0.000357123 0.566353 0.919831 0 0 0 0 0 0 0 0 0 0
0.143051 0.000630624 0.000278145 0.000352479 0.558937 0.932511 0 0 0 0 0 0 0 0 0 0
0.150394 0.000630674 0.00028083 0.000349843 0.554714 0.940686 0 0 0 0 0 0 0 0 0 0
0.158114 0.000630721 0.000279921 0.000350801 0.55619 0.941568 0 0 0 0 0 0 0 0 0 0
0.16623 0.000630793 0.00027335 0.000357442 0.566656 0.930713 0 0 0 0 0 0 0 0 0 0
0.174762 0.000630898 0.000260275 0.000370623 0.587453 0.90408 0 0 0 0 0 0 0 0 0 0
0.183733 0.000631022 0.000243744 0.000387278 0.613731 0.868107 0 0 0 0 0 0 0 0 0 0
0.193164 0.000631156 0.00022654 0.000404615 0.641071 0.831082 0 0 0 0 0 0 0 0 0 0
0.203079 0.000631297 0.000211572 0.000419726 0.664862 0.800477 0 0 0 0 0 0 0 0 0 0
0.213503 0.000631448 0.000198708 0.00043274 0.685313 0.77556 0 0 0 0 0 0 0 0 0 0
0.224463 0.000631612 0.000190091 0.000441521 0.699038 0.758305 0 0 0 0 0 0 0 0 0 0
0.235984 0.000631793 0.000185146 0.000446647 0.706951 0.746662 0 0 0 0 0 0 0 0 0 0
0.248097 0.000631982 0.000185831 0.000446151 0.705955 0.742854 0 0 0 0 0 0 0 0 0 0
0.260832 0.000632157 0.000190169 0.000441988 0.699175 0.744999 0 0 0 0 0 0 0 0 0 0
0.274221 0.000632315 0.000195484 0.00043683 0.690843 0.749246 0 0 0 0 0 0 0 0 0 0
0.288297 0.00063243 0.000202633 0.000429797 0.679595 0.758774 0 0 0 0 0 0 0 0 0 0
0.303095 0.000632546 0.000207533 0.000425013 0.671908 0.766022 0 0 0 0 0 0 0 0 0 0
0.318653 0.000632664 0.000211521 0.000421143 0.665667 0.772391 0 0 0 0 0 0 0 0 0 0
0.335009 0.000632787 0.00021467 0.000418117 0.660755 0.777854 0 0 0 0 0 0 0 0 0 0
0.352205 0.000632922 0.000216811 0.000416111 0.657444 0.781697 0 0 0 0 0 0 0 0 0 0
0.370284 0.00063307 0.000218163 0.000414907 0.655389 0.784059 0 0 0 0 0 0 0 0 0 0
0.389291 0.000633224 0.000218827 0.000414397 0.654424 0.78495 0 0 0 0 0 0 0 0 0 0
0.409273 0.000633386 0.000219287 0.000414099 0.653786 0.785473 0 0 0 0 0 0 0 0 0 0
0.430281 0.000633553 0.000219654 0.000413899 0.653298 0.785834 0 0 0 0 0 0 0 0 0 0
0.452368 0.000633728 0.000220024 0.000413704 0.65281 0.78638 0 0 0 0 0 0 0 0 0 0
0.475588 0.000633909 0.000220339 0.00041357 0.652412 0.786869 0 0 0 0 0 0 0 0 0 0
0.5 0.000634097 0.000220502 0.000413595 0.652258 0.787091 0 0 0 0 0 0 0 0 0 0
0.525665 0.000634297 0.000220564 0.000413733 0.65227 0.787148 0 0 0 0 0 0 0 0 0 0
0.552647 0.000634505 0.00022057 0.000413935 0.652375 0.787084 0 0 0 0 0 0 0 0 0 0
0.581015 0.000634724 0.000220186 0.000414538 0.653099 0.78621 0 0 0 0 0 0 0 0 0 0
0.610839 0.000634954 0.000219783 0.000415172 0.653861 0.785297 0 0 0 0 0 0 0 0 0 0
0.642193 0.000635192 0.000219357 0.000415834 0.65466 0.784341 0 0 0 0 0 0 0 0 0 0
0.675157 0.000635438 0.00021878 0.000416658 0.655702 0.783064 0 0 0 0 0 0 0 0 0 0
0.709813 0.000635698 0.000218063 0.000417635 0.656971 0.781488 0 0 0 0 0 0 0 0 0 0
0.746248 0.000635968 0.000217278 0.00041869 0.658351 0.779756 0 0 0 0 0 0 0 0 0 0
0.784553 0.000636249 0.000216467 0.000419782 0.659777 0.777982 0 0 0 0 0 0 0 0 0 0
0.824824 0.00063654 0.000215636 0.000420904 0.661237 0.776158 0 0 0 0 0 0 0 0 0 0
0.867162 0.000636842 0.000214784 0.000422058 0.662736 0.77429 0 0 0 0 0 0 0 0 0 0
0.911674 0.000637154 0.000213927 0.000423227 0.664246 0.772414 0 0 0 0 0 0 0 0 0 0
0.95847 0.000637478 0.000213106 0.000424372 0.665704 0.77059 0 0 0 0 0 0 0 0 0 0
1.00767 0.000637812 0.000212277 0.000425535 0.667179 0.768758 0 0 0 0 0 0 0 0 0 0
1.05939 0.000638155 0.000211512 0.000426643 0.668557 0.767037 0 0 0 0 0 0 0 0 0 0
1.11377 0.000638509 0.000210724 0.000427786 0.669976 0.765278 0 0 0 0 0 0 0 0 0 0
1.17094 0.000638876 0.000209988 0.000428888 0.671316 0.763625 0 0 0 0 0 0 0 0 0 0
1.23105 0.000639256 0.000209255 0.000430001 0.672659 0.761977 0 0 0 0 0 0 0 0 0 0
1.29424 0.000639651 0.00020845 0.000431201 0.67412 0.760199 0 0 0 0 0 0 0 0 0 0
1.36067 0.000640057 0.000207671 0.000432386 0.675543 0.75847 0 0 0 0 0 0 0 0 0 0
1.43051 0.000640476 0.000206935 0.00043354 0.676904 0.756822 0 0 0 0 0 0 0 0 0 0
1.50394 0.000640906 0.000206227 0.000434679 0.678226 0.755223 0 0 0 0 0 0 0 0 0 0
1.58114 0.000641352 0.00020549 0.000435862 0.679598 0.75358 0 0 0 0 0 0 0 0 0 0
1.6623 0.000641816 0.000204692 0.000437125 0.681075 0.751834 0 0 0 0 0 0 0 0 0 0
1.74762 0.000642295 0.000203882 0.000438413 0.682572 0.75007 0 0 0 0 0 0 0 0 0 0
1.83733 0.000642786 0.000203101 0.000439684 0.68403 0.748359 0 0 0 0 0 0 0 0 0 0
1.93164 0.000643292 0.000202323 0.00044097 0.685489 0.74666 0 0 0 0 0 0 0 0 0 0
2.03079 0.000643814 0.00020154 0.000442274 0.686959 0.744962 0 0 0 0 0 0 0 0 0 0
2.13503 0.000644351 0.000200717 0.000443634 0.688498 0.743192 0 0 0 0 0 0 0 0 0 0
2.24463 0.000644903 0.000199904 0.000444999 0.690025 0.741455 0 0 0 0 0 0 0 0 0 0
2.35984 0.000645471 0.000199115 0.000446356 0.69152 0.739759 0 0 0 0 0 0 0 0 0 0
2.48097 0.000646053 0.000198336 0.000447716 0.693003 0.738097 0 0 0 0 0 0 0 0 0 0
2.60832 0.000646654 0.00019747 0.000449185 0.694629 0.736296 0 0 0 0 0 0 0 0 0 0
2.74221 0.00064727 0.000196578 0.000450693 0.696298 0.734466 0 0 0 0 0 0 0 0 0 0
2.88297 0.000647895 0.000195752 0.000452142 0.697864 0.732757 0 0 0 0 0 0 0 0 0 0
3.03095 0.000648532 0.000194914 0.000453617 0.699453 0.731043 0 0 0 0 0 0 0 0 0 0
3.18653 0.000649185 0.000194057 0.000455128 0.701076 0.72931 0 0 0 0 0 0 0 0 0 0
3.35009 0.000649852 0.000193195 0.000456657 0.70271 0.727582 0 0 0 0 0 0 0 0 0 0
3.52205 0.000650528 0.000192349 0.000458179 0.704319 0.725895 0 0 0 0 0 0 0 0 0 0
3.70284 0.000651216 0.000191513 0.000459703 0.705914 0.724242 0 0 0 0 0 0 0 0 0 0
3.89291 0.000651914 0.000190705 0.00046121 0.70747 0.722647 0 0 0 0 0 0 0 0 0 0
4.09273 0.000652637 0.000189844 0.000462793 0.709112 0.721005 0 0 0 0 0 0 0 0 0 0
4.30281 0.000653363 0.000188982 0.000464381 0.710755 0.719378 0 0 0 0 0 0 0 0 0 0
4.52368 0.000654097 0.00018812 0.000465978 0.712398 0.717771 0 0 0 0 0 0 0 0 0 0
4.75588 0.000654842 0.00018726 0.000467582 0.714038 0.716185 0 0 0 0 0 0 0 0 0 0
5 0.000655609 0.000186393 0.000469216 0.715695 0.714628 0 0 0 0 0 0 0 0 0 0
5.25665 0.000656357 0.000185454 0.000470903 0.717449 0.712996 0 0 0 0 0 0 0 0 0 0
5.52648 0.000657137 0.000184509 0.000472629 0.719224 0.711385 0 0 0 0 0 0 0 0 0 0
5.81015 0.00065789 0.000183607 0.000474283 0.720916 0.709864 0 0 0 0 0 0 0 0 0 0
6.10839 0.000658693 0.000182704 0.000475989 0.722627 0.708373 0 0 0 0 0 0 0 0 0 0
6.42193 0.000659453 0.000181866 0.000477587 0.724217 0.70699 0 0 0 0 0 0 0 0 0 0
6.75157 0.000660236 0.000180958 0.000479278 0.725919 0.705555 0 0 0 0 0 0 0 0 0 0
7.09813 0.000661008 0.00018007 0.000480938 0.727583 0.704164 0 0 0 0 0 0 0 0 0 0
7.46248 0.000661827 0.00017921 0.000482617 0.729219 0.70287 0 0 0 0 0 0 0 0 0 0
7.84553 0.000662673 0.000178337 0.000484337 0.730883 0.7016 0 0 0 0 0 0 0 0 0 0
8.24824 0.000663447 0.000177353 0.000486095 0.73268 0.700226 0 0 0 0 0 0 0 0 0 0
8.67162 0.000664313 0.00017639 0.000487923 0.734478 0.698946 0 0 0 0 0 0 0 0 0 0
9.11674 0.00066502 0.000175471 0.000489549 0.736141 0.697713 0 0 0 0 0 0 0 0 0 0
9.5847 0.000665876 0.00017463 0.000491246 0.737744 0.696665 0 0 0 0 0 0 0 0 0 0
10.0767 0.000666667 0.000173819 0.000492848 0.739272 0.695661 0 0 0 0 0 0 0 0 0 0
10.5939 0.000667474 0.000173008 0.000494466 0.740802 0.694739 0 0 0 0 0 0 0 0 0 0
11.1377 0.000668329 0.000172324 0.000496005 0.742157 0.694175 0 0 0 0 0 0 0 0 0 0
11.7094 0.000669137 0.000170693 0.000498444 0.744905 0.691313 0 0 0 0 0 0 0 0 0 0
12.3105 0.000670012 0.000170338 0.000499675 0.745769 0.691644 0 0 0 0 0 0 0 0 0 0
12.9424 0.000670831 0.000169359 0.000501472 0.747539 0.690806 0 0 0 0 0 0 0 0 0 0
13.6067 0.000671623 0.000168405 0.000503219 0.749257 0.69001 0 0 0 0 0 0 0 0 0 0
14.3051 0.000672401 0.000167531 0.00050487 0.750847 0.689348 0 0 0 0 0 0 0 0 0 0
15.0394 0.000673176 0.000166705 0.000506471 0.75236 0.688764 0 0 0 0 0 0 0 0 0 0
15.8114 0.000673961 0.000165948 0.000508013 0.753772 0.688304 0 0 0 0 0 0 0 0 5.60519e-45 0
16.623 0.000674723 0.000165127 0.000509595 0.755267 0.687849 0 0 0 0 0 0 0 0 1.06218e-42 0
17.4762 0.000675435 0.000164238 0.000511197 0.75684 0.687383 0 0 0 0 0 0 0 0 1.65158e-40 0
18.3733 0.000676083 0.000163317 0.000512766 0.758437 0.686941 0 0 0 0 0 0 1.4013e-45 0 1.98189e-38 0
19.3164 0.000676635 0.000162194 0.000514441 0.760293 0.686297 0 0 0 0 0 0 2.11596e-43 0 1.85672e-36 0
20.3079 0.000676955 0.000160521 0.000516434 0.762878 0.685123 0 0 0 0 0 0 3.42197e-41 0 1.37152e-34 0
21.3503 0.00067703 0.000158635 0.000518395 0.76569 0.683529 0 0 0 0 0 0 4.2434e-39 0 8.09589e-33 0
22.4463 0.000676989 0.000156342 0.000520647 0.769063 0.681158 0 0 0 0 0 0 4.09464e-37 0 3.85588e-31 0
23.5984 0.000677021 0.000153339 0.000523682 0.773509 0.677428 0 0 0 0 4.2039e-44 0 3.10519e-35 0 1.49392e-29 0
24.8097 0.00067738 0.000149202 0.000528178 0.779737 0.671629 0 0 0 0 6.93923e-42 0 1.86649e-33 0 4.74062e-28 0
26.0832 0.000678291 0.000144403 0.000533888 0.787108 0.663619 0 0 0 0 8.64475e-40 0 9.01329e-32 0 1.24683e-26 0
27.4221 0.000679717 0.000139275 0.000540442 0.795099 0.654331 0 0 1.54143e-44 0 8.36357e-38 0 3.54032e-30 0 2.74768e-25 0
28.8297 0.000681816 0.000134292 0.000547524 0.803038 0.644151 0 0 2.40323e-42 0 6.38064e-36 0 1.14592e-28 0 5.13255e-24 0
30.3095 0.000684331 0.000129429 0.000554902 0.810868 0.633865 0 0 3.01111e-40 0 3.88307e-34 0 3.08517e-27 0 8.19158e-23 0
31.8653 0.000687169 0.000125335 0.000561834 0.817607 0.624509 7.00649e-45 0 2.95276e-38 0 1.91574e-32 0 7.00728e-26 0 1.13145e-21 0
33.5009 0.000690339 0.000121357 0.000568981 0.824206 0.615545 1.19671e-42 0 2.28266e-36 0 7.70516e-31 0 1.34758e-24 0 1.35576e-20 0
35.2206 0.000693507 0.000118555 0.000574952 0.82905 0.608399 1.50769e-40 0 1.42021e-34 0 2.57499e-29 0 2.23228e-23 0 1.43203e-19 0
37.0284 0.000696793 0.000115798 0.000580995 0.833813 0.601684 1.48053e-38 0 7.12497e-33 0 7.1527e-28 0 3.18074e-22 0 1.33e-18 0
38.9291 0.00069984 0.000113585 0.000586255 0.837698 0.596098 1.15163e-36 0 2.92578e-31 0 1.67389e-26 0 3.94478e-21 0 1.09783e-17 0
40.9273 0.000702651 0.000111433 0.000591218 0.841411 0.591034 7.14867e-35 0 9.89154e-30 0 3.3149e-25 0 4.27042e-20 0 8.06883e-17 0
43.0282 0.000704995 0.000109558 0.000595437 0.844598 0.58667 3.58792e-33 0 2.78532e-28 0 5.6123e-24 0 4.07052e-19 0 5.32139e-16 0
45.2368 0.000706967 0.000107577 0.00059939 0.847833 0.582508 1.46621e-31 0 6.56866e-27 0 8.15816e-23 0 3.42604e-18 0 3.15511e-15 0
47.5588 0.000708529 0.000106279 0.00060225 0.850001 0.579116 4.96417e-30 0 1.31836e-25 0 1.03337e-21 0 2.58066e-17 0 1.70305e-14 0
50 0.000709815 0.000104681 0.000605134 0.852524 0.575665 1.39292e-28 0 2.24961e-24 0 1.13815e-20 0 1.7337e-16 0 8.3332e-14 0
52.5665 0.00071089 0.00010356 0.000607331 0.854324 0.572679 3.29304e-27 0 3.31373e-23 0 1.1055e-19 0 1.05223e-15 0 3.7412e-13 0
55.2648 0.00071173 0.000102529 0.000609201 0.855944 0.569828 6.59143e-26 0 4.22933e-22 0 9.49502e-19 0 5.77831e-15 0 1.54225e-12 0
58.1015 0.000712536 0.00010165 0.000610885 0.85734 0.567121 1.12701e-24 0 4.71335e-21 0 7.25995e-18 0 2.88717e-14 0 5.86628e-12 0
61.0839 0.000713126 0.000100807 0.00061232 0.858641 0.564414 1.65688e-23 0 4.61195e-20 0 4.96429e-17 0 1.31721e-13 0 2.06473e-11 0
64.2193 0.000713749 0.000100114 0.000613635 0.859735 0.561782 2.11259e-22 0 3.99234e-19 0 3.0561e-16 0 5.51822e-13 0 6.75817e-11 0
67.5157 0.000714337 9.95548e-05 0.000614782 0.860633 0.559156 2.35212e-21 0 3.07542e-18 0 1.70231e-15 0 2.13142e-12 0 2.06421e-10 0
70.9813 0.000714946 9.90941e-05 0.000615852 0.861396 0.556526 2.30146e-20 0 2.11978e-17 0 8.61974e-15 0 7.61878e-12 0 5.90202e-10 0
74.6248 0.000715624 9.88297e-05 0.000616795 0.861897 0.553919 1.99354e-19 0 1.31579e-16 0 3.99022e-14 0 2.53241e-11 0 1.58641e-09 0
78.4553 0.000716352 9.86964e-05 0.000617655 0.862224 0.551192 1.53705e-18 0 7.38901e-16 0 1.69522e-13 0 7.85111e-11 0 4.01866e-09 0
82.4824 0.000717291 9.88523e-05 0.000618439 0.862187 0.5487 1.0626e-17 0 3.77857e-15 0 6.6483e-13 0 2.28174e-10 0 9.63761e-09 0
86.7162 0.000718273 9.92849e-05 0.000618988 0.861773 0.545905 6.62214e-17 0 1.76769e-14 0 2.41636e-12 0 6.23621e-10 0 2.19407e-08 0
91.1674 0.000719596 9.97463e-05 0.00061985 0.861386 0.543297 3.73023e-16 0 7.58012e-14 0 8.14993e-12 0 1.60384e-09 0 4.74233e-08 0
95.847 0.000720986 0.000100538 0.000620447 0.860554 0.540621 1.91435e-15 0 3.00109e-13 0 2.56787e-11 0 3.90461e-09 0 9.78583e-08 0
100.767 0.000722321 0.000101476 0.000620844 0.859513 0.537385 8.9762e-15 0 1.09944e-12 0 7.57044e-11 0 9.00723e-09 0 1.92888e-07 0
105.939 0.000724717 0.000103119 0.000621597 0.857711 0.535047 3.88353e-14 0 3.76145e-12 0 2.10655e-10 0 1.98477e-08 0 3.65976e-07 0
111.377 0.000727159 0.000105436 0.000621722 0.855002 0.532764 1.55605e-13 0 1.20554e-11 0 5.54677e-10 0 4.18592e-08 0 6.69476e-07 0
117.094 0.000729558 0.000107648 0.00062191 0.852447 0.529375 5.75318e-13 0 3.60437e-11 0 1.37563e-09 0 8.4057e-08 0 1.17419e-06 0
123.105 0.000733449 0.000109664 0.000623785 0.850482 0.526359 1.96897e-12 0 1.00792e-10 0 3.22016e-09 0 1.60971e-07 0 1.97696e-06 0
129.424 0.000737655 0.000110282 0.000627373 0.850496 0.523221 6.19377e-12 0 2.61635e-10 0 7.05815e-09 0 2.91485e-07 0 3.16728e-06 0
136.067 0.000740086 0.000108697 0.000631389 0.853129 0.517498 1.78428e-11 0 6.27808e-10 0 1.44196e-08 0 4.96572e-07 0 4.80249e-06 0
143.051 0.000740541 0.000102493 0.000638048 0.861597 0.507529 4.60972e-11 0 1.36313e-09 0 2.68665e-08 0 7.78386e-07 0 6.73854e-06 0
150.394 0.000742023 9.52215e-05 0.000646802 0.871673 0.497927 1.10351e-10 0 2.76583e-09 0 4.71289e-08 0 1.15849e-06 0 9.02605e-06 0
158.114 0.000742641 8.88665e-05 0.000653774 0.880337 0.490027 2.50299e-10 0 5.36048e-09 0 7.95318e-08 0 1.67206e-06 0 1.17849e-05 0
166.23 0.000740738 8.30891e-05 0.000657648 0.887829 0.480941 5.38042e-10 0 9.92172e-09 0 1.29043e-07 0 2.3381e-06 0 1.49808e-05 0
174.763 0.000737523 7.7623e-05 0.0006599 0.894752 0.468428 1.09609e-09 0 1.75315e-08 0 2.01173e-07 0 3.16427e-06 0 1.85168e-05 0
183.733 0.000736936 7.39652e-05 0.000662971 0.899632 0.455415 2.16587e-09 0 3.02566e-08 0 3.08198e-07 0 4.23749e-06 0 2.27482e-05 0
193.164 0.000739407 7.11005e-05 0.000668306 0.903841 0.444901 4.11578e-09 0 5.05508e-08 0 4.59751e-07 0 5.56199e-06 0 2.75072e-05 0
203.079 0.000742315 6.92182e-05 0.000673097 0.906754 0.437534 7.56873e-09 0 8.22462e-08 0 6.7158e-07 0 7.19361e-06 0 3.29069e-05 0
213.503 0.000742511 6.81396e-05 0.000674371 0.908231 0.430168 1.3478e-08 0 1.30357e-07 0 9.60706e-07 0 9.16572e-06 0 3.89307e-05 0
224.463 0.000739293 6.67668e-05 0.000672526 0.909688 0.418493 2.29264e-08 0 1.98485e-07 0 1.32689e-06 0 1.13396e-05 0 4.4884e-05 0
235.984 0.000735467 6.50071e-05 0.00067046 0.911611 0.401091 3.72635e-08 0 2.90341e-07 0 1.76902e-06 0 1.36151e-05 0 5.0396e-05 0
248.097 0.000734703 6.31633e-05 0.00067154 0.914029 0.380346 5.82325e-08 0 4.10448e-07 0 2.28964e-06 0 1.59519e-05 0 5.53995e-05 0
260.832 0.000738632 6.2039e-05 0.000676593 0.916008 0.360862 8.87886e-08 0 5.6891e-07 0 2.91818e-06 0 1.84942e-05 0 6.04542e-05 0
274.221 0.000745351 6.14538e-05 0.000683897 0.917551 0.345411 1.32008e-07 0 7.72511e-07 0 3.65861e-06 0 2.11906e-05 0 6.53946e-05 0
288.297 0.000751359 6.12419e-05 0.000690117 0.918492 0.334128 1.91226e-07 0 1.02658e-06 0 4.50653e-06 0 2.39608e-05 0 7.00106e-05 0
303.095 0.000753131 6.11597e-05 0.000691971 0.918793 0.324574 2.69258e-07 0 1.33164e-06 0 5.43868e-06 0 2.6658e-05 0 7.3953e-05 0
318.653 0.000749114 6.10179e-05 0.000688096 0.918547 0.312722 3.67939e-07 0 1.6831e-06 0 6.4182e-06 0 2.91192e-05 0 7.68996e-05 0
335.009 0.000739961 6.03551e-05 0.000679606 0.918435 0.294243 4.84923e-07 0 2.05959e-06 0 7.35785e-06 0 3.10192e-05 0 7.81794e-05 0
352.206 0.000728797 5.91584e-05 0.000669639 0.918827 0.266079 6.1692e-07 0 2.44171e-06 0 8.19838e-06 0 3.22349e-05 0 7.77249e-05 0
370.284 0.000719897 5.7817e-05 0.00066208 0.919687 0.227882 7.63286e-07 0 2.82497e-06 0 8.94234e-06 0 3.29084e-05 0 7.60894e-05 0
389.291 0.000716252 5.64748e-05 0.000659777 0.921152 0.181996 9.21736e-07 0 3.2006e-06 0 9.5796e-06 0 3.31079e-05 0 7.35703e-05 0
409.273 0.000719157 5.53826e-05 0.000663774 0.92299 0.132368 1.09257e-06 0 3.57061e-06 0 1.01335e-05 0 3.29975e-05 0 7.0621e-05 0
430.282 0.000728216 5.48507e-05 0.000673365 0.924678 0.083179 1.28019e-06 0 3.94949e-06 0 1.06567e-05 0 3.2797e-05 0 6.77423e-05 0
452.368 0.000741182 5.48008e-05 0.000686381 0.926063 0.0372216 1.48267e-06 0 4.33043e-06 0 1.11378e-05 0 3.24932e-05 0 6.48997e-05 0
475.588 0.000755082 5.51314e-05 0.000699951 0.926986 -0.00414367 1.69592e-06 0 4.70228e-06 0 1.15566e-05 0 3.20516e-05 0 6.20212e-05 0
500 0.000766539 5.57106e-05 0.000710828 0.927322 -0.0405881 1.91295e-06 0 5.04851e-06 0 1.18841e-05 0 3.14194e-05 0 5.90075e-05 0
525.665 0.000772127 5.65793e-05 0.000715547 0.926723 -0.0722233 2.13104e-06 0 5.3666e-06 0 1.21273e-05 0 3.06442e-05 0 5.59527e-05 0
552.648 0.000768509 5.7311e-05 0.000711198 0.925426 -0.0999158 2.3288e-06 0 5.60963e-06 0 1.21956e-05 0 2.95277e-05 0 5.25017e-05 0
581.015 0.000753218 5.76992e-05 0.000695519 0.923396 -0.124306 2.48991e-06 0 5.75019e-06 0 1.20519e-05 0 2.80265e-05 0 4.86028e-05 0
610.838 0.000724866 5.7562e-05 0.000667304 0.92059 -0.145944 2.59884e-06 0 5.76682e-06 0 1.16757e-05 0 2.61382e-05 0 4.4275e-05 0
642.193 0.000683761 5.67833e-05 0.000626978 0.916955 -0.165321 2.64449e-06 0 5.65038e-06 0 1.10719e-05 0 2.39137e-05 0 3.96215e-05 0
675.157 0.000631942 5.53404e-05 0.000576601 0.912428 -0.182849 2.62309e-06 0 5.40767e-06 0 1.02742e-05 0 2.1454e-05 0 3.48153e-05 0
709.813 0.000572611 5.33619e-05 0.000519249 0.90681 -0.198772 2.54174e-06 0 5.06565e-06 0 9.34808e-06 0 1.89096e-05 0 3.00933e-05 0
746.247 0.000509648 5.10724e-05 0.000458575 0.899789 -0.213204 2.41543e-06 0 4.66244e-06 0 8.37094e-06 0 1.64343e-05 0 2.56793e-05 0
784.553 0.000446478 4.84518e-05 0.000398026 0.89148 -0.22646 2.2495e-06 0 4.21305e-06 0 7.37089e-06 0 1.407e-05 0 2.16101e-05 0
