# 6.60833e-05 0 72 : grain size, compostion index, size index
# Heating and cooling timescale: 0.000424088 1.45943e+06
# Ratio of heating to cooling to determine stochastic cutoff: 100
# Equilibrium emission is recorded even for those grains in the stochastic regime.
# Emission spectrum was computed for: 
# Type: ISRF
# Scales: 0.25 0.5 1 1.5 2 2.5 3 3.5 4 4.5 5 5.5 6 6.5 7 7.5 8 8.5 9 9.5 10
# StochasticallyHeated: 0 0 0 0 0 0 0 0 0 0 0 0 0 0 0 0 0 0 0 0 0
# Temperature: -1
# Wavelength  CExt  CAbs  CSca  Albedo G EqEm1 StEm1 EqEm2 StEm2 EqEm3 StEm3 EqEm4 StEm4 EqEm5 StEm5 EqEm6 StEm6 EqEm7 StEm7 EqEm8 StEm8 EqEm9 StEm9 EqEm10 StEm10 EqEm11 StEm11 EqEm12 StEm12 EqEm13 StEm13 EqEm14 StEm14 EqEm15 StEm15 EqEm16 StEm16 EqEm17 StEm17 EqEm18 StEm18 EqEm19 StEm19 EqEm20 StEm20 EqEm21 StEm21
0.05 2.7482e-08 1.30826e-08 1.43994e-08 0.523957 0.98854 0 0 0 0 0 0 0 0 0 0 0 0 0 0 0 0 0 0 0 0 0 0 0 0 0 0 0 0 0 0 0 0 0 0 0 0 0 0 0 0 0 0
0.0525665 2.77248e-08 1.28995e-08 1.48253e-08 0.534731 0.981786 0 0 0 0 0 0 0 0 0 0 0 0 0 0 0 0 0 0 0 0 0 0 0 0 0 0 0 0 0 0 0 0 0 0 0 0 0 0 0 0 0 0
0.0552647 2.78581e-08 1.28958e-08 1.49623e-08 0.537089 0.978104 0 0 0 0 0 0 0 0 0 0 0 0 0 0 0 0 0 0 0 0 0 0 0 0 0 0 0 0 0 0 0 0 0 0 0 0 0 0 0 0 0 0
0.0581015 2.79574e-08 1.2925e-08 1.50324e-08 0.537689 0.975518 0 0 0 0 0 0 0 0 0 0 0 0 0 0 0 0 0 0 0 0 0 0 0 0 0 0 0 0 0 0 0 0 0 0 0 0 0 0 0 0 0 0
0.0610839 2.80377e-08 1.2963e-08 1.50747e-08 0.537657 0.973556 0 0 0 0 0 0 0 0 0 0 0 0 0 0 0 0 0 0 0 0 0 0 0 0 0 0 0 0 0 0 0 0 0 0 0 0 0 0 0 0 0 0
0.0642193 2.81069e-08 1.29961e-08 1.51108e-08 0.537619 0.971817 0 0 0 0 0 0 0 0 0 0 0 0 0 0 0 0 0 0 0 0 0 0 0 0 0 0 0 0 0 0 0 0 0 0 0 0 0 0 0 0 0 0
0.0675157 2.81713e-08 1.30172e-08 1.51541e-08 0.537927 0.969992 0 0 0 0 0 0 0 0 0 0 0 0 0 0 0 0 0 0 0 0 0 0 0 0 0 0 0 0 0 0 0 0 0 0 0 0 0 0 0 0 0 0
0.0709813 2.82369e-08 1.30285e-08 1.52084e-08 0.538599 0.967912 0 0 0 0 0 0 0 0 0 0 0 0 0 0 0 0 0 0 0 0 0 0 0 0 0 0 0 0 0 0 0 0 0 0 0 0 0 0 0 0 0 0
0.0746248 2.83074e-08 1.30361e-08 1.52713e-08 0.539479 0.96557 0 0 0 0 0 0 0 0 0 0 0 0 0 0 0 0 0 0 0 0 0 0 0 0 0 0 0 0 0 0 0 0 0 0 0 0 0 0 0 0 0 0
0.0784553 2.83814e-08 1.30461e-08 1.53352e-08 0.540328 0.963127 0 0 0 0 0 0 0 0 0 0 0 0 0 0 0 0 0 0 0 0 0 0 0 0 0 0 0 0 0 0 0 0 0 0 0 0 0 0 0 0 0 0
0.0824824 2.8458e-08 1.30597e-08 1.53983e-08 0.541089 0.960639 0 0 0 0 0 0 0 0 0 0 0 0 0 0 0 0 0 0 0 0 0 0 0 0 0 0 0 0 0 0 0 0 0 0 0 0 0 0 0 0 0 0
0.0867162 2.85374e-08 1.3076e-08 1.54614e-08 0.541795 0.958097 0 0 0 0 0 0 0 0 0 0 0 0 0 0 0 0 0 0 0 0 0 0 0 0 0 0 0 0 0 0 0 0 0 0 0 0 0 0 0 0 0 0
0.0911674 2.86201e-08 1.30952e-08 1.55249e-08 0.542448 0.955489 0 0 0 0 0 0 0 0 0 0 0 0 0 0 0 0 0 0 0 0 0 0 0 0 0 0 0 0 0 0 0 0 0 0 0 0 0 0 0 0 0 0
0.095847 2.87072e-08 1.31185e-08 1.55887e-08 0.543024 0.952821 0 0 0 0 0 0 0 0 0 0 0 0 0 0 0 0 0 0 0 0 0 0 0 0 0 0 0 0 0 0 0 0 0 0 0 0 0 0 0 0 0 0
0.100767 2.8799e-08 1.31481e-08 1.56509e-08 0.543452 0.950151 0 0 0 0 0 0 0 0 0 0 0 0 0 0 0 0 0 0 0 0 0 0 0 0 0 0 0 0 0 0 0 0 0 0 0 0 0 0 0 0 0 0
0.105939 2.88971e-08 1.31927e-08 1.57044e-08 0.54346 0.947676 0 0 0 0 0 0 0 0 0 0 0 0 0 0 0 0 0 0 0 0 0 0 0 0 0 0 0 0 0 0 0 0 0 0 0 0 0 0 0 0 0 0
0.111377 2.89931e-08 1.32535e-08 1.57395e-08 0.542872 0.945759 0 0 0 0 0 0 0 0 0 0 0 0 0 0 0 0 0 0 0 0 0 0 0 0 0 0 0 0 0 0 0 0 0 0 0 0 0 0 0 0 0 0
0.117094 2.90812e-08 1.33218e-08 1.57594e-08 0.54191 0.94436 0 0 0 0 0 0 0 0 0 0 0 0 0 0 0 0 0 0 0 0 0 0 0 0 0 0 0 0 0 0 0 0 0 0 0 0 0 0 0 0 0 0
0.123105 2.91714e-08 1.33844e-08 1.5787e-08 0.541181 0.942742 0 0 0 0 0 0 0 0 0 0 0 0 0 0 0 0 0 0 0 0 0 0 0 0 0 0 0 0 0 0 0 0 0 0 0 0 0 0 0 0 0 0
0.129424 2.9268e-08 1.34625e-08 1.58055e-08 0.540027 0.941399 0 0 0 0 0 0 0 0 0 0 0 0 0 0 0 0 0 0 0 0 0 0 0 0 0 0 0 0 0 0 0 0 0 0 0 0 0 0 0 0 0 0
0.136067 2.93502e-08 1.35617e-08 1.57885e-08 0.537934 0.941199 0 0 0 0 0 0 0 0 0 0 0 0 0 0 0 0 0 0 0 0 0 0 0 0 0 0 0 0 0 0 0 0 0 0 0 0 0 0 0 0 0 0
0.143051 2.94277e-08 1.3643e-08 1.57847e-08 0.53639 0.940584 0 0 0 0 0 0 0 0 0 0 0 0 0 0 0 0 0 0 0 0 0 0 0 0 0 0 0 0 0 0 0 0 0 0 0 0 0 0 0 0 0 0
0.150394 2.9517e-08 1.37653e-08 1.57517e-08 0.533648 0.940886 0 0 0 0 0 0 0 0 0 0 0 0 0 0 0 0 0 0 0 0 0 0 0 0 0 0 0 0 0 0 0 0 0 0 0 0 0 0 0 0 0 0
0.158114 2.95184e-08 1.39288e-08 1.55896e-08 0.528132 0.944974 0 0 0 0 0 0 0 0 0 0 0 0 0 0 0 0 0 0 0 0 0 0 0 0 0 0 0 0 0 0 0 0 0 0 0 0 0 0 0 0 0 0
0.16623 2.94516e-08 1.39409e-08 1.55106e-08 0.526649 0.945928 0 0 0 0 0 0 0 0 0 0 0 0 0 0 0 0 0 0 0 0 0 0 0 0 0 0 0 0 0 0 0 0 0 0 0 0 0 0 0 0 0 0
0.174762 2.94466e-08 1.38498e-08 1.55968e-08 0.529663 0.942127 0 0 0 0 0 0 0 0 0 0 0 0 0 0 0 0 0 0 0 0 0 0 0 0 0 0 0 0 0 0 0 0 0 0 0 0 0 0 0 0 0 0
0.183733 2.95053e-08 1.37246e-08 1.57808e-08 0.534845 0.935703 0 0 0 0 0 0 0 0 0 0 0 0 0 0 0 0 0 0 0 0 0 0 0 0 0 0 0 0 0 0 0 0 0 0 0 0 0 0 0 0 0 0
0.193164 2.96378e-08 1.35541e-08 1.60837e-08 0.542675 0.925884 0 0 0 0 0 0 0 0 0 0 0 0 0 0 0 0 0 0 0 0 0 0 0 0 0 0 0 0 0 0 0 0 0 0 0 0 0 0 0 0 0 0
0.203079 2.9864e-08 1.34317e-08 1.64323e-08 0.550238 0.914415 0 0 0 0 0 0 0 0 0 0 0 0 0 0 0 0 0 0 0 0 0 0 0 0 0 0 0 0 0 0 0 0 0 0 0 0 0 0 0 0 0 0
0.213503 3.00896e-08 1.33803e-08 1.67093e-08 0.555319 0.904797 0 0 0 0 0 0 0 0 0 0 0 0 0 0 0 0 0 0 0 0 0 0 0 0 0 0 0 0 0 0 0 0 0 0 0 0 0 0 0 0 0 0
0.224463 3.03144e-08 1.33618e-08 1.69526e-08 0.559226 0.896112 0 0 0 0 0 0 0 0 0 0 0 0 0 0 0 0 0 0 0 0 0 0 0 0 0 0 0 0 0 0 0 0 0 0 0 0 0 0 0 0 0 0
0.235984 3.05414e-08 1.33443e-08 1.7197e-08 0.563073 0.887394 0 0 0 0 0 0 0 0 0 0 0 0 0 0 0 0 0 0 0 0 0 0 0 0 0 0 0 0 0 0 0 0 0 0 0 0 0 0 0 0 0 0
0.248097 3.08083e-08 1.33198e-08 1.74885e-08 0.567656 0.877224 0 0 0 0 0 0 0 0 0 0 0 0 0 0 0 0 0 0 0 0 0 0 0 0 0 0 0 0 0 0 0 0 0 0 0 0 0 0 0 0 0 0
0.260832 3.10884e-08 1.33547e-08 1.77337e-08 0.570429 0.868513 0 0 0 0 0 0 0 0 0 0 0 0 0 0 0 0 0 0 0 0 0 0 0 0 0 0 0 0 0 0 0 0 0 0 0 0 0 0 0 0 0 0
0.274221 3.13661e-08 1.34262e-08 1.794e-08 0.571953 0.861078 0 0 0 0 0 0 0 0 0 0 0 0 0 0 0 0 0 0 0 0 0 0 0 0 0 0 0 0 0 0 0 0 0 0 0 0 0 0 0 0 0 0
0.288297 3.16301e-08 1.35177e-08 1.81124e-08 0.572633 0.854778 0 0 0 0 0 0 0 0 0 0 0 0 0 0 0 0 0 0 0 0 0 0 0 0 0 0 0 0 0 0 0 0 0 0 0 0 0 0 0 0 0 0
0.303095 3.18931e-08 1.36265e-08 1.82666e-08 0.572745 0.849065 0 0 0 0 0 0 0 0 0 0 0 0 0 0 0 0 0 0 0 0 0 0 0 0 0 0 0 0 0 0 0 0 0 0 0 0 0 0 0 0 0 0
0.318653 3.21459e-08 1.37437e-08 1.84022e-08 0.572459 0.843956 0 0 0 0 0 0 0 0 0 0 0 0 0 0 0 0 0 0 0 0 0 0 0 0 0 0 0 0 0 0 0 0 0 0 0 0 0 0 0 0 0 0
0.335009 3.23935e-08 1.38659e-08 1.85276e-08 0.571954 0.839151 0 0 0 0 0 0 0 0 0 0 0 0 0 0 0 0 0 0 0 0 0 0 0 0 0 0 0 0 0 0 0 0 0 0 0 0 0 0 0 0 0 0
0.352205 3.2636e-08 1.39924e-08 1.86435e-08 0.571257 0.834608 0 0 0 0 0 0 0 0 0 0 0 0 0 0 0 0 0 0 0 0 0 0 0 0 0 0 0 0 0 0 0 0 0 0 0 0 0 0 0 0 0 0
0.370284 3.2876e-08 1.41171e-08 1.87589e-08 0.570597 0.830051 0 0 0 0 0 0 0 0 0 0 0 0 0 0 0 0 0 0 0 0 0 0 0 0 0 0 0 0 0 0 0 0 0 0 0 0 0 0 0 0 0 0
0.389291 3.31132e-08 1.42418e-08 1.88714e-08 0.569906 0.825526 0 0 0 0 0 0 0 0 0 0 0 0 0 0 0 0 0 0 0 0 0 0 0 0 0 0 0 0 0 0 0 0 0 0 0 0 0 0 0 0 0 0
0.409273 3.33499e-08 1.43628e-08 1.89872e-08 0.569332 0.820852 0 0 0 0 0 0 0 0 0 0 0 0 0 0 0 0 0 0 0 0 0 0 0 0 0 0 0 0 0 0 0 0 0 0 0 0 0 0 0 0 0 0
0.430281 3.35857e-08 1.44813e-08 1.91044e-08 0.568826 0.816039 0 0 0 0 0 0 0 0 0 0 0 0 0 0 0 0 0 0 0 0 0 0 0 0 0 0 0 0 0 0 0 0 0 0 0 0 0 0 0 0 0 0
0.452368 3.38172e-08 1.45999e-08 1.92173e-08 0.568271 0.811223 0 0 0 0 0 0 0 0 0 0 0 0 0 0 0 0 0 0 0 0 0 0 0 0 0 0 0 0 0 0 0 0 0 0 0 0 0 0 0 0 0 0
0.475588 3.40448e-08 1.47162e-08 1.93286e-08 0.56774 0.806292 0 0 0 0 0 0 0 0 0 0 0 0 0 0 0 0 0 0 0 0 0 0 0 0 0 0 0 0 0 0 0 0 0 0 0 0 0 0 0 0 0 0
0.5 3.42622e-08 1.48356e-08 1.94266e-08 0.566997 0.801552 0 0 0 0 0 0 0 0 0 0 0 0 0 0 0 0 0 0 0 0 0 0 0 0 0 0 0 0 0 0 0 0 0 0 0 0 0 0 0 0 0 0
0.525665 3.447e-08 1.49593e-08 1.95107e-08 0.566019 0.796964 0 0 0 0 0 0 0 0 0 0 0 0 0 0 0 0 0 0 0 0 0 0 0 0 0 0 0 0 0 0 0 0 0 0 0 0 0 0 0 0 0 0
0.552648 3.46687e-08 1.5085e-08 1.95837e-08 0.56488 0.792541 0 0 0 0 0 0 0 0 0 0 0 0 0 0 0 0 0 0 0 0 0 0 0 0 0 0 0 0 0 0 0 0 0 0 0 0 0 0 0 0 0 0
0.581015 3.48647e-08 1.52168e-08 1.96478e-08 0.563546 0.78815 0 0 0 0 0 0 0 0 0 0 0 0 0 0 0 0 0 0 0 0 0 0 0 0 0 0 0 0 0 0 0 0 0 0 0 0 0 0 0 0 0 0
0.610839 3.50543e-08 1.53446e-08 1.97097e-08 0.562262 0.783589 0 0 0 0 0 0 0 0 0 0 0 0 0 0 0 0 0 0 0 0 0 0 0 0 0 0 0 0 0 0 0 0 0 0 0 0 0 0 0 0 0 0
0.642193 3.5248e-08 1.54781e-08 1.97699e-08 0.560881 0.779015 0 0 0 0 0 0 0 0 0 0 0 0 0 0 0 0 0 0 0 0 0 0 0 0 0 0 0 0 0 0 0 0 0 0 0 0 0 0 0 0 0 0
0.675157 3.54397e-08 1.5613e-08 1.98267e-08 0.55945 0.774128 0 0 0 0 0 0 0 0 0 0 0 0 0 0 0 0 0 0 0 0 0 0 0 0 0 0 0 0 0 0 0 0 0 0 0 0 0 0 0 0 0 0
0.709813 3.56268e-08 1.57406e-08 1.98862e-08 0.558181 0.768982 0 0 0 0 0 0 0 0 0 0 0 0 0 0 0 0 0 0 0 0 0 0 0 0 0 0 0 0 0 0 0 0 0 0 0 0 0 0 0 0 0 0
0.746248 3.58247e-08 1.5881e-08 1.99437e-08 0.556703 0.763846 0 0 0 0 0 0 0 0 0 0 0 0 0 0 0 0 0 0 0 0 0 0 0 0 0 0 0 0 0 0 0 0 0 0 0 0 0 0 0 0 0 0
0.784553 3.60138e-08 1.60245e-08 1.99893e-08 0.555046 0.758322 0 0 0 0 0 0 0 0 0 0 0 0 0 0 0 0 0 0 0 0 0 0 0 0 0 0 0 0 0 0 0 0 0 0 0 0 0 0 0 0 0 0
0.824824 3.61889e-08 1.61677e-08 2.00212e-08 0.553242 0.752774 0 0 0 0 0 0 0 0 0 0 0 0 0 0 0 0 0 0 0 0 0 0 0 0 0 0 0 0 0 0 0 0 0 0 0 0 0 0 0 0 0 0
0.867162 3.63855e-08 1.63408e-08 2.00447e-08 0.550897 0.747785 0 0 0 0 0 0 0 0 0 0 0 0 0 0 0 0 0 0 0 0 0 0 0 0 0 0 0 0 0 0 0 0 0 0 0 0 0 0 0 0 0 0
0.911674 3.65984e-08 1.65382e-08 2.00602e-08 0.548117 0.742638 0 0 0 0 0 0 0 0 0 0 0 0 0 0 0 0 0 0 0 0 0 0 0 0 0 0 0 0 0 0 0 0 0 0 0 0 0 0 0 0 0 0
0.95847 3.67989e-08 1.67144e-08 2.00845e-08 0.545791 0.736249 0 0 0 0 0 0 0 0 0 0 0 0 0 0 0 0 0 0 0 0 0 0 0 0 0 0 0 0 0 0 0 0 0 0 0 0 0 0 0 0 0 0
1.00767 3.69988e-08 1.68708e-08 2.0128e-08 0.544017 0.729105 0 0 0 0 0 0 0 0 0 0 0 0 0 0 0 0 0 0 0 0 0 0 0 0 0 0 0 0 0 0 0 0 0 0 0 0 0 0 0 0 0 0
1.05939 3.72353e-08 1.70545e-08 2.01808e-08 0.54198 0.722302 0 0 0 0 0 0 0 0 0 0 0 0 0 0 0 0 0 0 0 0 0 0 0 0 0 0 0 0 0 0 0 0 0 0 0 0 0 0 0 0 0 0
1.11377 3.74913e-08 1.72696e-08 2.02216e-08 0.539369 0.71545 0 0 0 0 0 0 0 0 0 0 0 0 0 0 0 0 0 0 0 0 0 0 0 0 0 0 0 0 0 0 0 0 0 0 0 0 0 0 0 0 0 0
1.17094 3.77176e-08 1.74715e-08 2.02461e-08 0.536782 0.707257 0 0 0 0 0 0 0 0 0 0 0 0 0 0 0 0 0 0 0 0 0 0 0 0 0 0 0 0 0 0 0 0 0 0 0 0 0 0 0 0 0 0
1.23105 3.79123e-08 1.764e-08 2.02723e-08 0.534715 0.697529 0 0 0 0 0 0 0 0 0 0 0 0 0 0 0 0 0 0 0 0 0 0 0 0 0 0 0 0 0 0 0 0 0 0 0 0 0 0 0 0 0 0
1.29424 3.81288e-08 1.78087e-08 2.032e-08 0.532932 0.687438 0 0 0 0 0 0 0 0 0 0 0 0 0 0 0 0 0 0 0 0 0 0 0 0 0 0 0 0 0 0 0 0 0 0 0 0 0 0 0 0 0 0
1.36067 3.84068e-08 1.80342e-08 2.03726e-08 0.530442 0.678389 0 0 0 0 0 0 0 0 0 0 0 0 0 0 0 0 0 0 0 0 0 0 0 0 0 0 0 0 0 0 0 0 0 0 0 0 0 0 0 0 0 0
1.43051 3.87228e-08 1.83133e-08 2.04096e-08 0.527068 0.669851 0 0 0 0 0 0 0 0 0 0 0 0 0 0 0 0 0 0 0 0 0 0 0 0 0 0 0 0 0 0 0 0 0 0 0 0 0 0 0 0 0 0
1.50394 3.90061e-08 1.85853e-08 2.04207e-08 0.523527 0.659857 0 0 0 0 0 0 0 0 0 0 0 0 0 0 0 0 0 0 0 0 0 0 0 0 0 0 0 0 0 0 0 0 0 0 0 0 0 0 0 0 0 0
1.58114 3.92136e-08 1.88145e-08 2.03991e-08 0.520205 0.647212 0 0 0 0 0 0 0 0 0 0 0 0 0 0 0 0 0 0 0 0 0 0 0 0 0 0 0 0 0 0 0 0 0 0 0 0 0 0 0 0 0 0
1.6623 3.93644e-08 1.89971e-08 2.03674e-08 0.517405 0.631774 0 0 0 0 0 0 0 0 0 0 0 0 0 0 0 0 0 0 0 0 0 0 0 0 0 0 0 0 0 0 0 0 0 0 0 0 0 0 0 0 0 0
1.74763 3.95226e-08 1.91707e-08 2.03518e-08 0.514942 0.614703 0 0 0 0 0 0 0 0 0 0 0 0 0 0 0 0 0 0 0 0 0 0 0 0 0 0 0 0 0 0 0 0 0 0 0 0 0 0 0 0 0 0
1.83733 3.97524e-08 1.93814e-08 2.03711e-08 0.512448 0.59747 0 0 0 0 0 0 0 0 0 0 0 0 0 0 0 0 0 0 0 0 0 0 0 0 0 0 0 0 0 0 0 0 0 0 0 0 0 0 0 0 0 0
1.93164 4.00764e-08 1.96515e-08 2.04249e-08 0.509648 0.581023 0 0 0 0 0 0 0 0 0 0 0 0 0 0 0 0 0 0 0 0 0 0 0 0 0 0 0 0 0 0 0 0 0 0 0 0 0 0 0 0 0 0
2.03079 4.04768e-08 2.00178e-08 2.0459e-08 0.505451 0.566169 0 0 0 0 0 0 0 0 0 0 0 0 0 0 0 0 0 0 0 0 0 0 0 0 0 0 0 0 0 0 0 0 0 0 0 0 0 0 0 0 0 0
2.13503 4.09073e-08 2.04485e-08 2.04589e-08 0.500127 0.55191 0 0 0 0 0 0 0 0 0 0 0 0 0 0 0 0 0 0 0 0 0 0 0 0 0 0 0 0 0 0 0 0 0 0 0 0 0 0 0 0 0 0
2.24463 4.12812e-08 2.08717e-08 2.04095e-08 0.494401 0.536365 0 0 0 0 0 0 0 0 0 0 0 0 0 0 0 0 0 0 0 0 0 0 0 0 0 0 0 0 0 0 0 0 0 0 0 0 0 0 0 0 0 0
2.35984 4.15099e-08 2.12068e-08 2.03031e-08 0.489115 0.517212 0 0 0 0 0 0 0 0 0 0 0 0 0 0 0 0 0 0 0 0 0 0 0 0 0 0 0 0 0 0 0 0 0 0 0 0 0 0 0 0 0 0
2.48097 4.15355e-08 2.13872e-08 2.01484e-08 0.485087 0.491785 0 0 0 0 0 0 0 0 0 0 0 0 0 0 0 0 0 0 0 0 0 0 0 0 0 0 0 0 0 0 0 0 0 0 0 0 0 0 0 0 0 0
2.60832 4.14558e-08 2.14611e-08 1.99947e-08 0.482314 0.459472 0 0 0 0 0 0 0 0 0 0 0 0 0 0 0 0 0 0 0 0 0 0 0 0 0 0 0 0 0 0 0 0 0 0 0 0 0 0 0 0 0 0
2.74221 4.14324e-08 2.14336e-08 1.99989e-08 0.482686 0.419303 0 0 0 0 0 0 0 0 0 0 0 0 0 0 0 0 0 0 0 0 0 0 0 0 0 0 0 0 0 0 0 0 0 0 0 0 0 0 0 0 0 0
2.88297 4.16731e-08 2.14613e-08 2.02117e-08 0.485007 0.374794 0 0 0 0 0 0 0 0 0 0 0 0 0 0 0 0 0 0 0 0 0 0 0 0 0 0 0 0 0 0 0 0 0 0 0 0 0 0 0 0 0 0
3.03095 4.23746e-08 2.16369e-08 2.07377e-08 0.48939 0.330479 0 0 0 0 0 0 0 0 0 0 0 0 0 0 0 0 0 0 0 0 0 0 0 0 0 0 0 0 0 0 0 0 0 0 0 0 0 0 0 0 0 0
3.18653 4.34713e-08 2.19313e-08 2.154e-08 0.4955 0.288462 0 0 0 0 0 0 0 0 0 0 0 0 0 0 0 0 0 0 0 0 0 0 0 0 0 0 0 0 0 0 0 0 0 0 0 0 0 0 0 0 0 0
3.35009 4.48874e-08 2.23843e-08 2.25031e-08 0.501324 0.251113 0 0 0 0 0 0 0 0 0 0 0 0 0 0 0 0 0 0 0 0 0 0 0 0 0 0 0 0 0 0 0 0 0 0 0 0 0 0 0 0 0 0
3.52205 4.64934e-08 2.29371e-08 2.35563e-08 0.506658 0.2199 0 0 0 0 0 0 0 0 0 0 0 0 0 0 0 0 0 0 0 0 0 0 0 0 0 0 0 0 0 0 0 0 0 0 0 0 0 0 0 0 0 0
3.70284 4.78989e-08 2.35127e-08 2.43862e-08 0.509118 0.193077 0 0 0 0 0 0 0 0 0 0 0 0 0 0 0 0 0 0 0 0 0 0 0 0 0 0 0 0 0 0 0 0 0 0 0 0 0 0 0 0 0 0
3.89291 4.88444e-08 2.40495e-08 2.47949e-08 0.507631 0.17057 0 0 0 0 0 0 0 0 0 0 0 0 0 0 0 0 0 0 0 0 0 0 0 0 0 0 0 0 0 0 0 0 0 0 0 0 0 0 0 0 0 0
4.09273 4.90286e-08 2.44622e-08 2.45664e-08 0.501063 0.153251 0 0 0 0 0 0 0 0 0 0 0 0 0 0 0 0 0 0 0 0 0 0 0 0 0 0 0 0 0 0 0 0 0 0 0 0 0 0 0 0 0 0
4.30281 4.82779e-08 2.46753e-08 2.36026e-08 0.488891 0.14189 0 0 0 0 0 0 0 0 0 0 0 0 0 0 0 0 0 0 0 0 0 0 0 0 0 0 0 0 0 0 0 0 0 0 0 0 0 0 0 0 0 0
4.52368 4.65343e-08 2.45886e-08 2.19457e-08 0.471602 0.135441 0 0 0 0 0 0 0 0 0 0 0 0 0 0 0 0 0 0 0 0 0 0 0 0 0 0 0 0 0 0 0 0 0 0 0 0 0 0 0 0 0 0
4.75588 4.38383e-08 2.41181e-08 1.97202e-08 0.449839 0.133384 0 0 0 0 0 0 0 0 0 0 0 0 0 0 0 0 0 0 0 0 0 0 0 0 0 0 0 0 0 0 0 0 0 0 0 0 0 0 0 0 0 0
5 4.0499e-08 2.32648e-08 1.72342e-08 0.425546 0.135784 0 0 0 0 0 0 0 0 0 0 0 0 0 0 0 0 0 0 0 0 0 0 0 0 0 0 0 0 0 0 0 0 0 0 0 0 0 0 0 0 0 0
5.25665 3.65367e-08 2.19438e-08 1.45929e-08 0.399404 0.143316 0 0 0 0 0 0 0 0 0 0 0 0 0 0 0 0 0 0 0 0 0 0 0 0 0 0 0 0 0 0 0 0 0 0 0 0 0 0 0 0 0 0
5.52648 3.22458e-08 2.0182e-08 1.20638e-08 0.37412 0.151003 0 0 0 0 0 0 0 0 0 0 0 0 0 0 0 0 0 0 0 0 0 0 0 0 0 0 0 0 0 0 0 0 0 0 1.4013e-45 0 2.8026e-45 0 9.80909e-45 0 2.52234e-44 0
5.81015 2.7761e-08 1.80312e-08 9.72984e-09 0.350485 0.155468 0 0 0 0 0 0 0 0 0 0 0 0 0 0 0 0 0 0 0 0 0 0 0 0 0 0 1.4013e-45 0 4.2039e-45 0 1.54143e-44 0 5.32493e-44 0 1.7236e-43 0 5.11474e-43 0 1.41391e-42 0 3.65319e-42 0
6.10839 2.38598e-08 1.60263e-08 7.83353e-09 0.328314 0.147803 0 0 0 0 0 0 0 0 0 0 0 0 0 0 0 0 0 0 0 0 1.4013e-45 0 5.60519e-45 0 3.08286e-44 0 1.45735e-43 0 5.95552e-43 0 2.17482e-42 0 7.1214e-42 0 2.16024e-41 0 6.09369e-41 0 1.60444e-40 0 3.95634e-40 0
6.42193 2.09805e-08 1.45254e-08 6.45508e-09 0.30767 0.135652 0 0 0 0 0 0 0 0 0 0 0 0 0 0 0 0 1.4013e-45 0 1.82169e-44 0 1.41531e-43 0 8.58996e-43 0 4.30339e-42 0 1.84845e-41 0 7.06381e-41 0 2.41945e-40 0 7.4782e-40 0 2.14874e-39 0 5.76191e-39 0 1.44703e-38 0 3.41438e-38 0
6.75157 1.81418e-08 1.29088e-08 5.23298e-09 0.288449 0.130421 0 0 0 0 0 0 0 0 0 0 0 0 1.4013e-45 0 2.24208e-44 0 2.8026e-43 0 2.53775e-42 0 1.73046e-41 0 9.64177e-41 0 4.46379e-40 0 1.78593e-39 0 6.39226e-39 0 2.06171e-38 0 6.03085e-38 0 1.64583e-37 0 4.20584e-37 0 1.00981e-36 0 2.28491e-36 0
7.09813 1.5711e-08 1.14848e-08 4.22624e-09 0.268998 0.120953 0 0 0 0 0 0 0 0 0 0 5.60519e-45 0 1.68156e-43 0 2.90769e-42 0 3.27329e-41 0 2.65584e-40 0 1.64921e-39 0 8.44979e-39 0 3.62995e-38 0 1.35725e-37 0 4.5647e-37 0 1.39045e-36 0 3.85964e-36 0 1.00292e-35 0 2.44815e-35 0 5.63189e-35 0 1.22453e-34 0
7.46248 1.38063e-08 1.03507e-08 3.45561e-09 0.250292 0.111038 0 0 0 0 0 0 0 0 1.12104e-44 0 7.28675e-43 0 1.99643e-41 0 3.00883e-40 0 3.00886e-39 0 2.20411e-38 0 1.25195e-37 0 5.92258e-37 0 2.3695e-36 0 8.30716e-36 0 2.63321e-35 0 7.59645e-35 0 2.00611e-34 0 4.97536e-34 0 1.16272e-33 0 2.56818e-33 0 5.37614e-33 0
7.84553 1.20682e-08 9.2537e-09 2.8145e-09 0.233216 0.104708 0 0 0 0 0 0 7.00649e-45 0 1.42372e-42 0 7.86885e-41 0 1.83293e-39 0 2.41975e-38 0 2.16247e-37 0 1.43733e-36 0 7.5003e-36 0 3.28891e-35 0 1.2297e-34 0 4.05504e-34 0 1.21497e-33 0 3.32832e-33 0 8.38258e-33 0 1.98879e-32 0 4.45902e-32 0 9.47517e-32 0 1.91323e-31 0
8.24824 1.05943e-08 8.29652e-09 2.29781e-09 0.216891 0.0985166 0 0 0 0 0 0 8.67404e-43 0 1.4653e-40 0 6.65694e-39 0 1.32971e-37 0 1.54763e-36 0 1.24282e-35 0 7.53096e-35 0 3.62527e-34 0 1.479e-33 0 5.18505e-33 0 1.61305e-32 0 4.58091e-32 0 1.19466e-31 0 2.87613e-31 0 6.54184e-31 0 1.41004e-30 0 2.888e-30 0 5.63478e-30 0
8.67162 9.24617e-09 7.37829e-09 1.86788e-09 0.202017 0.0943877 0 0 0 0 5.88545e-44 0 8.91898e-41 0 1.1721e-38 0 4.41972e-37 0 7.62749e-36 0 7.875e-35 0 5.71239e-34 0 3.16999e-33 0 1.41327e-32 0 5.38322e-32 0 1.77512e-31 0 5.22465e-31 0 1.41003e-30 0 3.50909e-30 0 8.0934e-30 0 1.76847e-29 0 3.67151e-29 0 7.26118e-29 0 1.37125e-28 0
9.11674 8.02612e-09 6.51259e-09 1.51352e-09 0.188575 0.0915535 0 0 0 0 6.77948e-42 0 7.12567e-39 0 7.37959e-37 0 2.33074e-35 0 3.50015e-34 0 3.22444e-33 0 2.12327e-32 0 1.0837e-31 0 4.4914e-31 0 1.60265e-30 0 4.98568e-30 0 1.39208e-29 0 3.57918e-29 0 8.51957e-29 0 1.8864e-28 0 3.96759e-28 0 7.94849e-28 0 1.5205e-27 0 2.78365e-27 0
9.5847 6.93832e-09 5.71478e-09 1.22355e-09 0.176346 0.0890144 0 0 2.8026e-45 0 5.99543e-40 0 4.48686e-37 0 3.70475e-35 0 9.88576e-34 0 1.30064e-32 0 1.07508e-31 0 6.45692e-31 0 3.04345e-30 0 1.17677e-29 0 3.94618e-29 0 1.16144e-28 0 3.08436e-28 0 7.57287e-28 0 1.72785e-27 0 3.68016e-27 0 7.46439e-27 0 1.4455e-26 0 2.67897e-26 0 4.76182e-26 0
10.0767 5.98033e-09 4.99426e-09 9.8607e-10 0.164886 0.0856333 0 0 2.84464e-43 0 4.16456e-38 0 2.25614e-35 0 1.50174e-33 0 3.41359e-32 0 3.96019e-31 0 2.95266e-30 0 1.62475e-29 0 7.09989e-29 0 2.56981e-28 0 8.12326e-28 0 2.26809e-27 0 5.74274e-27 0 1.34949e-26 0 2.95748e-26 0 6.07088e-26 0 1.18955e-25 0 2.23046e-25 0 4.01109e-25 0 6.93218e-25 0
10.5939 5.17227e-09 4.37914e-09 7.93131e-10 0.153343 0.0804983 0 0 2.82081e-41 0 2.31567e-36 0 9.22566e-34 0 5.00276e-32 0 9.76316e-31 0 1.0049e-29 0 6.79237e-29 0 3.43903e-28 0 1.3984e-27 0 4.75341e-27 0 1.42047e-26 0 3.77215e-26 0 9.12743e-26 0 2.05723e-25 0 4.33909e-25 0 8.59963e-25 0 1.6306e-24 0 2.96504e-24 0 5.18147e-24 0 8.71888e-24 0
11.1377 4.59108e-09 3.9478e-09 6.43275e-10 0.140114 0.0731782 1.12104e-44 0 2.26028e-39 0 1.06791e-34 0 3.17613e-32 0 1.41723e-30 0 2.39232e-29 0 2.19743e-28 0 1.35299e-27 0 6.32874e-27 0 2.40309e-26 0 7.69484e-26 0 2.17978e-25 0 5.51902e-25 0 1.27904e-24 0 2.77068e-24 0 5.63481e-24 0 1.08008e-23 0 1.98498e-23 0 3.50558e-23 0 5.96138e-23 0 9.77957e-23 0
11.7094 4.07123e-09 3.54675e-09 5.24482e-10 0.128826 0.0681768 1.34805e-42 0 1.43222e-37 0 4.00094e-33 0 9.01085e-31 0 3.34018e-29 0 4.9116e-28 0 4.04852e-27 0 2.28106e-26 0 9.89567e-26 0 3.52052e-25 0 1.06502e-24 0 2.86743e-24 0 6.93817e-24 0 1.54328e-23 0 3.21927e-23 0 6.32409e-23 0 1.17429e-22 0 2.09496e-22 0 3.59847e-22 0 5.96276e-22 0 9.54826e-22 0
12.3105 3.59741e-09 3.17079e-09 4.26621e-10 0.118591 0.0637187 1.19995e-40 0 7.24718e-36 0 1.22812e-31 0 2.12315e-29 0 6.59751e-28 0 8.50812e-27 0 6.32676e-26 0 3.27613e-25 0 1.32298e-24 0 4.4239e-24 0 1.26791e-23 0 3.25252e-23 0 7.53763e-23 0 1.61244e-22 0 3.24493e-22 0 6.16778e-22 0 1.11118e-21 0 1.92712e-21 0 3.2239e-21 0 5.21197e-21 0 8.15634e-21 0
