# 1.70392e-07 0 15 : grain size, compostion index, size index
# Heating and cooling timescale: 16408.6 80.8695
# Ratio of heating to cooling to determine stochastic cutoff: 100
# Equilibrium emission is recorded even for those grains in the stochastic regime.
# Emission spectrum was computed for: 
# Type: IRSF
# Scales: 0.25 0.5 1 1.5 2 2.5 3 3.5 4 4.5 5 5.5 6 6.5 7 7.5 8 8.5 9 9.5 10
# StochasticallyHeated: 1 1 1 1 1 1 1 1 1 1 1 1 1 1 1 1 1 1 1 1 1
# Temperature: -1
# Wavelength  CExt  CAbs  CSca  Albedo G EqEm1 StEm1 EqEm2 StEm2 EqEm3 StEm3 EqEm4 StEm4 EqEm5 StEm5 EqEm6 StEm6 EqEm7 StEm7 EqEm8 StEm8 EqEm9 StEm9 EqEm10 StEm10 EqEm11 StEm11 EqEm12 StEm12 EqEm13 StEm13 EqEm14 StEm14 EqEm15 StEm15 EqEm16 StEm16 EqEm17 StEm17 EqEm18 StEm18 EqEm19 StEm19 EqEm20 StEm20 EqEm21 StEm21
0.05 2.06325e-14 2.05561e-14 7.64372e-17 0.0037047 0.00641664 0 0 0 0 0 0 0 0 0 0 0 0 0 0 0 0 0 0 0 0 0 0 0 0 0 0 0 0 0 0 0 0 0 0 0 0 0 0 0 0 0 0
0.0525665 2.38964e-14 2.38143e-14 8.20844e-17 0.00343501 0.00571449 0 0 0 0 0 0 0 0 0 0 0 0 0 0 0 0 0 0 0 0 0 0 0 0 0 0 0 0 0 0 0 0 0 0 0 0 0 0 0 0 0 0
0.0552647 2.75841e-14 2.74961e-14 8.80698e-17 0.00319277 0.00508682 0 0 0 0 0 0 0 0 0 0 0 0 0 0 0 0 0 0 0 0 0 0 0 0 0 0 0 0 0 0 0 0 0 0 0 0 0 0 0 0 0 0
0.0581015 3.27239e-14 3.26308e-14 9.30389e-17 0.00284315 0.00452508 0 0 0 0 0 0 0 0 0 0 0 0 0 0 0 0 0 0 0 0 0 0 0 0 0 0 0 0 0 0 0 0 0 0 0 0 0 0 0 0 0 0
0.0610839 4.59011e-14 4.5802e-14 9.91423e-17 0.00215991 0.00398421 0 0 0 0 0 0 0 0 0 0 0 0 0 0 0 0 0 0 0 0 0 0 0 0 0 0 0 0 0 0 0 0 0 0 0 0 0 0 0 0 0 0
0.0642193 5.79955e-14 5.78847e-14 1.1082e-16 0.00191084 0.00344591 0 0 0 0 0 0 0 0 0 0 0 0 0 0 0 0 0 0 0 0 0 0 0 0 0 0 0 0 0 0 0 0 0 0 0 0 0 0 0 0 0 0
0.0675157 6.93702e-14 6.92393e-14 1.30949e-16 0.00188768 0.00290255 0 0 0 0 0 0 0 0 0 0 0 0 0 0 0 0 0 0 0 0 0 0 0 0 0 0 0 0 0 0 0 0 0 0 0 0 0 0 0 0 0 0
0.0709813 7.96885e-14 7.95521e-14 1.36396e-16 0.00171161 0.00242914 0 0 0 0 0 0 0 0 0 0 0 0 0 0 0 0 0 0 0 0 0 0 0 0 0 0 0 0 0 0 0 0 0 0 0 0 0 0 0 0 0 0
0.0746248 7.44434e-14 7.43232e-14 1.20203e-16 0.00161469 0.00209025 0 0 0 0 0 0 0 0 0 0 0 0 0 0 0 0 0 0 0 0 0 0 0 0 0 0 0 0 0 0 0 0 0 0 0 0 0 0 0 0 0 0
0.0784553 5.84983e-14 5.84045e-14 9.38581e-17 0.00160446 0.00186471 0 0 0 0 0 0 0 0 0 0 0 0 0 0 0 0 0 0 0 0 0 0 0 0 0 0 0 0 0 0 0 0 0 0 0 0 0 0 0 0 0 0
0.0824824 4.64256e-14 4.63594e-14 6.61984e-17 0.0014259 0.00173916 0 0 0 0 0 0 0 0 0 0 0 0 0 0 0 0 0 0 0 0 0 0 0 0 0 0 0 0 0 0 0 0 0 0 0 0 0 0 0 0 0 0
0.0867162 3.88863e-14 3.88353e-14 5.09914e-17 0.0013113 0.00166658 0 0 0 0 0 0 0 0 0 0 0 0 0 0 0 0 0 0 0 0 0 0 0 0 0 0 0 0 0 0 0 0 0 0 0 0 0 0 0 0 0 0
0.0911674 3.39292e-14 3.38864e-14 4.28006e-17 0.00126147 0.00161525 0 0 0 0 0 0 0 0 0 0 0 0 0 0 0 0 0 0 0 0 0 0 0 0 0 0 0 0 0 0 0 0 0 0 0 0 0 0 0 0 0 0
0.095847 3.03604e-14 3.03264e-14 3.40153e-17 0.00112038 0.00170042 0 0 0 0 0 0 0 0 0 0 0 0 0 0 0 0 0 0 0 0 0 0 0 0 0 0 0 0 0 0 0 0 0 0 0 0 0 0 0 0 0 0
0.100767 2.66455e-14 2.66223e-14 2.32113e-17 0.000871113 0.00198378 0 0 0 0 0 0 0 0 0 0 0 0 0 0 0 0 0 0 0 0 0 0 0 0 0 0 0 0 0 0 0 0 0 0 0 0 0 0 0 0 0 0
0.105939 2.32271e-14 2.3211e-14 1.60762e-17 0.00069213 0.0021424 0 0 0 0 0 0 0 0 0 0 0 0 0 0 0 0 0 0 0 0 0 0 0 0 0 0 0 0 0 0 0 0 0 0 0 0 0 0 0 0 0 0
0.111377 1.99296e-14 1.99198e-14 9.81939e-18 0.000492703 0.00245268 0 0 0 0 0 0 0 0 0 0 0 0 0 0 0 0 0 0 0 0 0 0 0 0 0 0 0 0 0 0 0 0 0 0 0 0 0 0 0 0 0 0
0.117094 1.68901e-14 1.68839e-14 6.113e-18 0.000361929 0.00225093 0 0 0 0 0 0 0 0 0 0 0 0 0 0 0 0 0 0 0 0 0 0 0 0 0 0 0 0 0 0 0 0 0 0 0 0 0 0 0 0 0 0
0.123105 1.41967e-14 1.41928e-14 3.97929e-18 0.000280296 0.00193199 0 0 0 0 0 0 0 0 0 0 0 0 0 0 0 0 0 0 0 0 0 0 0 0 0 0 0 0 0 0 0 0 0 0 0 0 0 0 0 0 0 0
0.129424 1.19414e-14 1.19389e-14 2.55779e-18 0.000214194 0.00162502 0 0 0 0 0 0 0 0 0 0 0 0 0 0 0 0 0 0 0 0 0 0 0 0 0 0 0 0 0 0 0 0 0 0 0 0 0 0 0 0 0 0
0.136067 1.08291e-14 1.08275e-14 1.65621e-18 0.00015294 0.00137504 0 0 0 0 0 0 0 0 0 0 0 0 0 0 0 0 0 0 0 0 0 0 0 0 0 0 0 0 0 0 0 0 0 0 0 0 0 0 0 0 0 0
0.143051 9.82832e-15 9.82723e-15 1.0874e-18 0.000110639 0.00117308 0 0 0 0 0 0 0 0 0 0 0 0 0 0 0 0 0 0 0 0 0 0 0 0 0 0 0 0 0 0 0 0 0 0 0 0 0 0 0 0 0 0
0.150394 9.28377e-15 9.28303e-15 7.40506e-19 7.97635e-05 0.00100149 0 0 0 0 0 0 0 0 0 0 0 0 0 0 0 0 0 0 0 0 0 0 0 0 0 0 0 0 0 0 0 0 0 0 0 0 0 0 0 0 0 0
0.158114 9.17594e-15 9.17538e-15 5.5976e-19 6.1003e-05 0.00085771 0 0 0 0 0 0 0 0 0 0 0 0 0 0 0 0 0 0 0 0 0 0 0 0 0 0 0 0 0 0 0 0 0 0 0 0 0 0 0 0 0 0
0.16623 9.54042e-15 9.5399e-15 5.1675e-19 5.41643e-05 0.000737434 0 0 0 0 0 0 0 0 0 0 0 0 0 0 0 0 0 0 0 0 0 0 0 0 0 0 0 0 0 0 0 0 0 0 0 0 0 0 0 0 0 0
0.174762 1.04523e-14 1.04517e-14 6.22176e-19 5.9525e-05 0.000634149 0 0 0 0 0 0 0 0 0 0 0 0 0 0 0 0 0 0 0 0 0 0 0 0 0 0 0 0 0 0 0 0 0 0 0 0 0 0 0 0 0 0
0.183733 1.20769e-14 1.2076e-14 8.87895e-19 7.35203e-05 0.000540165 0 0 0 0 0 0 0 0 0 0 0 0 0 0 0 0 0 0 0 0 0 0 0 0 0 0 0 0 0 0 0 0 0 0 0 0 0 0 0 0 0 0
0.193164 1.49494e-14 1.49479e-14 1.41019e-18 9.4331e-05 0.000449535 0 0 0 0 0 0 0 0 0 0 0 0 0 0 0 0 0 0 0 0 0 0 0 0 0 0 0 0 0 0 0 0 0 0 0 0 0 0 0 0 0 0
0.203079 1.95813e-14 1.95791e-14 2.15407e-18 0.000110007 0.000360483 0 0 0 0 0 0 0 0 0 0 0 0 0 0 0 0 0 0 0 0 0 0 0 0 0 0 0 0 0 0 0 0 0 0 0 0 0 0 0 0 0 0
0.213503 2.41224e-14 2.41198e-14 2.64801e-18 0.000109774 0.000277237 0 0 0 0 0 0 0 0 0 0 0 0 0 0 0 0 0 0 0 0 0 0 0 0 0 0 0 0 0 0 0 0 0 0 0 0 0 0 0 0 0 0
0.224463 2.31651e-14 2.31629e-14 2.20287e-18 9.50942e-05 0.000205285 0 0 0 0 0 0 0 0 0 0 0 0 0 0 0 0 0 0 0 0 0 0 0 0 0 0 0 0 0 0 0 0 0 0 0 0 0 0 0 0 0 0
0.235984 1.79003e-14 1.78988e-14 1.49428e-18 8.34783e-05 0.000146545 0 0 0 0 0 0 0 0 0 0 0 0 0 0 0 0 0 0 0 0 0 0 0 0 0 0 0 0 0 0 0 0 0 0 0 0 0 0 0 0 0 0
0.248097 1.35197e-14 1.35187e-14 9.66709e-19 7.15039e-05 0.000112207 0 0 0 0 0 0 0 0 0 0 0 0 0 0 0 0 0 0 0 0 0 0 0 0 0 0 0 0 0 0 0 0 0 0 0 0 0 0 0 0 0 0
0.260832 1.08202e-14 1.08195e-14 6.63591e-19 6.1329e-05 0.00011659 0 0 0 0 0 0 0 0 0 0 0 0 0 0 0 0 0 0 0 0 0 0 0 0 0 0 0 0 0 0 0 0 0 0 0 0 0 0 0 0 0 0
0.274221 9.20387e-15 9.20339e-15 4.78466e-19 5.19853e-05 0.000155755 0 0 0 0 0 0 0 0 0 0 0 0 0 0 0 0 0 0 0 0 0 0 0 0 0 0 0 0 0 0 0 0 0 0 0 0 0 0 0 0 0 0
0.288297 8.19502e-15 8.19467e-15 3.56535e-19 4.35063e-05 0.000209044 0 0 0 0 0 0 0 0 0 0 0 0 0 0 0 0 0 0 0 0 0 0 0 0 0 0 0 0 0 0 0 0 0 0 0 0 0 0 0 0 0 0
0.303095 7.42574e-15 7.42547e-15 2.74695e-19 3.69923e-05 0.000234489 0 0 0 0 0 0 0 0 0 0 0 0 0 0 0 0 0 0 0 0 0 0 0 0 0 0 0 0 0 0 0 0 0 0 0 0 0 0 0 0 0 0
0.318653 6.49169e-15 6.49148e-15 2.13867e-19 3.29448e-05 0.000244748 0 0 0 0 0 0 0 0 0 0 0 0 0 0 0 0 0 0 0 0 0 0 0 0 0 0 0 0 0 0 0 0 0 0 0 0 0 0 0 0 0 0
0.335009 5.70457e-15 5.7044e-15 1.68435e-19 2.95263e-05 0.000240738 0 0 0 0 0 0 0 0 0 0 0 0 0 0 0 0 0 0 0 0 0 0 0 0 0 0 0 0 0 0 0 0 0 0 0 0 0 0 0 0 0 0
0.352205 4.98014e-15 4.98001e-15 1.34292e-19 2.69655e-05 0.000228465 0 0 0 0 0 0 0 0 0 0 0 0 0 0 0 0 0 0 0 0 0 0 0 0 0 0 0 0 0 0 0 0 0 0 0 0 0 0 0 0 0 0
0.370284 4.31702e-15 4.31692e-15 1.08019e-19 2.50217e-05 0.000213612 0 0 0 0 0 0 0 0 0 0 0 0 0 0 0 0 0 0 0 0 0 0 0 0 0 0 0 0 0 0 0 0 0 0 0 0 0 0 0 0 0 0
0.389291 3.71432e-15 3.71423e-15 8.7556e-20 2.35726e-05 0.00019917 0 0 0 0 0 0 0 0 0 0 0 0 0 0 0 0 0 0 0 0 0 0 0 0 0 0 0 0 0 0 0 0 0 0 0 0 0 0 0 0 0 0
0.409273 3.17195e-15 3.17188e-15 7.11817e-20 2.2441e-05 0.000185145 0 0 0 0 0 0 0 0 0 0 0 0 0 0 0 0 0 0 0 0 0 0 0 0 0 0 0 0 0 0 0 0 0 0 0 0 0 0 0 0 0 0
0.430281 2.68673e-15 2.68667e-15 5.79274e-20 2.15606e-05 0.000171819 0 0 0 0 0 0 0 0 0 0 0 0 0 0 0 0 0 0 0 0 0 0 0 0 0 0 0 0 0 0 0 0 0 0 0 0 0 0 0 0 0 0
0.452368 2.25596e-15 2.25591e-15 4.71344e-20 2.08933e-05 0.00015805 0 0 0 0 0 0 0 0 0 0 0 0 0 0 0 0 0 0 0 0 0 0 0 0 0 0 0 0 0 0 0 0 0 0 0 0 0 0 0 0 0 0
0.475588 1.87705e-15 1.87701e-15 3.83779e-20 2.04459e-05 0.000144862 0 0 0 0 0 0 0 0 0 0 0 0 0 0 0 0 0 0 0 0 0 0 0 0 0 0 0 0 0 0 0 0 0 0 0 0 0 0 0 0 0 0
0.5 1.54756e-15 1.54753e-15 3.13307e-20 2.02453e-05 0.000132207 0 0 0 0 0 0 0 0 0 0 0 0 0 0 0 0 0 0 0 0 0 0 0 0 0 0 0 0 0 0 0 0 0 0 0 0 0 0 0 0 0 0
0.525665 1.26285e-15 1.26283e-15 2.5605e-20 2.02755e-05 0.000120241 0 0 0 0 0 0 0 0 0 0 0 0 0 0 0 0 0 0 0 0 0 0 0 0 0 0 0 0 0 0 0 0 0 0 0 0 0 0 0 0 0 0
0.552648 1.01926e-15 1.01924e-15 2.09336e-20 2.0538e-05 0.000109341 0 0 0 0 0 0 0 0 0 0 0 0 0 0 0 0 0 0 0 0 0 0 0 0 0 0 0 0 0 0 0 0 0 0 0 0 0 0 0 0 0 0
0.581015 8.1338e-16 8.13363e-16 1.71978e-20 2.11437e-05 9.92096e-05 0 0 0 0 0 0 0 0 0 0 0 0 0 0 0 0 0 0 0 0 0 0 0 0 0 0 0 0 0 0 0 0 0 0 0 0 0 0 0 0 0 0
0.610839 6.41083e-16 6.41069e-16 1.41329e-20 2.20454e-05 9.00327e-05 0 0 0 0 0 0 0 0 0 0 0 0 0 0 0 0 0 0 0 0 0 0 0 0 0 0 0 0 0 0 0 0 0 0 0 0 0 0 0 0 0 0
0.642193 4.97864e-16 4.97853e-16 1.16123e-20 2.33242e-05 8.17075e-05 0 0 0 0 0 0 0 0 0 0 0 0 0 0 0 0 0 0 0 0 0 1.4013e-45 0 1.4013e-45 0 1.4013e-45 0 1.4013e-45 0 1.4013e-45 0 2.8026e-45 0 2.8026e-45 0 2.8026e-45 0 4.2039e-45 0 5.60519e-45 0 5.60519e-45
0.675157 3.79438e-16 3.79428e-16 9.5522e-21 2.51746e-05 7.41875e-05 0 0 0 0 0 1.4013e-45 0 1.4013e-45 0 2.8026e-45 0 5.60519e-45 0 7.00649e-45 0 9.80909e-45 0 1.4013e-44 0 1.82169e-44 0 2.38221e-44 0 2.94273e-44 0 3.78351e-44 0 4.76441e-44 0 5.74532e-44 0 7.00649e-44 0 8.40779e-44 0 9.66896e-44 0 1.14906e-43 0 1.35926e-43 0 1.59748e-43
0.709813 2.80926e-16 2.80918e-16 7.87086e-21 2.80175e-05 6.74423e-05 0 1.4013e-45 0 4.2039e-45 0 1.82169e-44 0 4.34403e-44 0 7.9874e-44 0 1.26117e-43 0 1.84971e-43 0 2.5924e-43 0 3.48923e-43 0 4.59626e-43 0 5.87144e-43 0 7.3428e-43 0 9.20653e-43 0 1.12384e-42 0 1.35786e-42 0 1.62691e-42 0 1.93379e-42 0 2.23647e-42 0 2.62183e-42 0 3.05903e-42 0 3.55229e-42
0.746248 1.93135e-16 1.93128e-16 6.48663e-21 3.3586e-05 6.14158e-05 0 1.82169e-44 0 8.54792e-44 0 3.75548e-43 0 8.68805e-43 0 1.57366e-42 0 2.49711e-42 0 3.65739e-42 0 5.10773e-42 0 6.83553e-42 0 8.94309e-42 0 1.13491e-41 0 1.41307e-41 0 1.75218e-41 0 2.12311e-41 0 2.54518e-41 0 3.0226e-41 0 3.56196e-41 0 4.10622e-41 0 4.77184e-41 0 5.51369e-41 0 6.34172e-41
0.784553 1.07696e-16 1.07691e-16 5.34419e-21 4.96229e-05 5.59427e-05 0 2.63444e-43 0 1.19811e-42 0 5.16519e-42 0 1.18872e-41 0 2.14903e-41 0 3.40586e-41 0 4.97839e-41 0 6.92802e-41 0 9.24016e-41 0 1.20236e-40 0 1.5192e-40 0 1.88271e-40 0 2.31567e-40 0 2.78972e-40 0 3.3238e-40 0 3.9218e-40 0 4.5899e-40 0 5.27637e-40 0 6.08782e-40 0 6.98275e-40 0 7.96989e-40
0.824824 6.06197e-17 6.06153e-17 4.40197e-21 7.26163e-05 5.10307e-05 0 3.2412e-42 0 1.44292e-41 0 6.13713e-41 0 1.40762e-40 0 2.53935e-40 0 4.01789e-40 0 5.86362e-40 0 8.13464e-40 0 1.08194e-39 0 1.4015e-39 0 1.76463e-39 0 2.17865e-39 0 2.66291e-39 0 3.19348e-39 0 3.78648e-39 0 4.44521e-39 0 5.1748e-39 0 5.93436e-39 0 6.80905e-39 0 7.76562e-39 0 8.81098e-39
0.867162 4.23796e-17 4.2376e-17 3.62722e-21 8.55887e-05 4.66111e-05 0 4.31642e-41 0 1.86897e-40 0 7.83329e-40 0 1.78962e-39 0 3.22085e-39 0 5.08771e-39 0 7.41292e-39 0 1.02561e-38 0 1.36077e-38 0 1.75615e-38 0 2.20473e-38 0 2.71361e-38 0 3.30051e-38 0 3.94382e-38 0 4.65834e-38 0 5.44716e-38 0 6.31492e-38 0 7.22687e-38 0 8.25644e-38 0 9.37498e-38 0 1.05885e-37
0.911674 2.38376e-17 2.38346e-17 2.98724e-21 0.000125316 4.26129e-05 0 4.09382e-40 0 1.70893e-39 0 7.02919e-39 0 1.59725e-38 0 2.86587e-38 0 4.51769e-38 0 6.57048e-38 0 9.06721e-38 0 1.20028e-37 0 1.54409e-37 0 1.9336e-37 0 2.37368e-37 0 2.87575e-37 0 3.42615e-37 0 4.03449e-37 0 4.70282e-37 0 5.43418e-37 0 6.20784e-37 0 7.06839e-37 0 7.99855e-37 0 9.00212e-37
0.95847 7.27815e-18 7.27569e-18 2.45813e-21 0.000337741 3.90295e-05 0 1.90946e-39 0 7.56387e-39 0 3.02773e-38 0 6.82207e-38 0 1.21848e-37 0 1.91512e-37 0 2.77874e-37 0 3.82413e-37 0 5.05024e-37 0 6.47768e-37 0 8.09259e-37 0 9.9109e-37 0 1.1968e-36 0 1.42227e-36 0 1.67051e-36 0 1.94218e-36 0 2.23825e-36 0 2.55282e-36 0 2.89886e-36 0 3.27142e-36 0 3.67165e-36
1.00767 1.95771e-18 1.95568e-18 2.02289e-21 0.00103329 3.57756e-05 0 7.2971e-39 0 2.68347e-38 0 1.03076e-37 0 2.29064e-37 0 4.06137e-37 0 6.35375e-37 0 9.18694e-37 0 1.26006e-36 0 1.65939e-36 0 2.12191e-36 0 2.64437e-36 0 3.23086e-36 0 3.88994e-36 0 4.61206e-36 0 5.40451e-36 0 6.26903e-36 0 7.20806e-36 0 8.20859e-36 0 9.30012e-36 0 1.04716e-35 0 1.17259e-35
1.05939 6.29778e-19 6.28114e-19 1.66401e-21 0.00264222 3.28241e-05 0 3.17176e-38 0 1.05922e-37 0 3.83017e-37 0 8.32642e-37 0 1.45897e-36 0 2.26549e-36 0 3.2581e-36 0 4.44812e-36 0 5.83589e-36 0 7.43559e-36 0 9.23921e-36 0 1.1258e-35 0 1.35142e-35 0 1.59843e-35 0 1.86873e-35 0 2.16281e-35 0 2.48134e-35 0 2.82127e-35 0 3.18979e-35 0 3.58427e-35 0 4.0055e-35
1.11377 2.32361e-19 2.30993e-19 1.36838e-21 0.00588901 3.01372e-05 0 1.51738e-37 0 4.54653e-37 0 1.51732e-36 0 3.19303e-36 0 5.49499e-36 0 8.43474e-36 0 1.20306e-35 0 1.6316e-35 0 2.12934e-35 0 2.70026e-35 0 3.34238e-35 0 4.0589e-35 0 4.85575e-35 0 5.72703e-35 0 6.67791e-35 0 7.7098e-35 0 8.82463e-35 0 1.00151e-34 0 1.12992e-34 0 1.26708e-34 0 1.41318e-34
1.17094 9.64025e-20 9.52777e-20 1.12479e-21 0.0116676 2.76289e-05 0 7.77286e-37 0 2.09862e-36 0 6.38129e-36 0 1.2865e-35 0 2.15914e-35 0 3.25981e-35 0 4.59426e-35 0 6.17242e-35 0 7.99548e-35 0 1.00748e-34 0 1.24054e-34 0 1.49967e-34 0 1.78648e-34 0 2.09948e-34 0 2.44009e-34 0 2.80874e-34 0 3.206e-34 0 3.6301e-34 0 4.08567e-34 0 4.57117e-34 0 5.08723e-34
1.23105 4.62629e-20 4.5338e-20 9.24982e-22 0.019994 2.53325e-05 0 4.31175e-36 0 1.06751e-35 0 2.95676e-35 0 5.67291e-35 0 9.22925e-35 0 1.36384e-34 0 1.89188e-34 0 2.51014e-34 0 3.2191e-34 0 4.02216e-34 0 4.91809e-34 0 5.90969e-34 0 7.00165e-34 0 8.19001e-34 0 9.47894e-34 0 1.08698e-33 0 1.23643e-33 0 1.3958e-33 0 1.56634e-33 0 1.74768e-33 0 1.93999e-33
1.29424 2.65557e-20 2.57948e-20 7.60913e-22 0.0286535 2.322e-05 0 2.6379e-35 0 6.12188e-35 0 1.56227e-34 0 2.85145e-34 0 4.48411e-34 0 6.46468e-34 0 8.79952e-34 0 1.1499e-33 0 1.4565e-33 0 1.80087e-33 0 2.18268e-33 0 2.60285e-33 0 3.06287e-33 0 3.56159e-33 0 4.10035e-33 0 4.67962e-33 0 5.29999e-33 0 5.96021e-33 0 6.66408e-33 0 7.4105e-33 0 8.20011e-33
1.36067 1.89604e-20 1.83348e-20 6.25582e-22 0.0329942 2.12957e-05 0 1.8369e-34 0 4.07515e-34 0 9.74707e-34 0 1.7015e-33 0 2.58939e-33 0 3.64004e-33 0 4.85584e-33 0 6.2408e-33 0 7.79557e-33 0 9.52447e-33 0 1.14263e-32 0 1.35046e-32 0 1.5765e-32 0 1.82034e-32 0 2.08248e-32 0 2.36311e-32 0 2.66246e-32 0 2.98011e-32 0 3.31742e-32 0 3.67401e-32 0 4.05013e-32
1.43051 1.64968e-20 1.59827e-20 5.14082e-22 0.0311625 1.95426e-05 0 1.41976e-33 0 3.05575e-33 0 6.96773e-33 0 1.17309e-32 0 1.73495e-32 0 2.38302e-32 0 3.11823e-32 0 3.94229e-32 0 4.85539e-32 0 5.85943e-32 0 6.95385e-32 0 8.1402e-32 0 9.4208e-32 0 1.0794e-31 0 1.2262e-31 0 1.38255e-31 0 1.54856e-31 0 1.72407e-31 0 1.90962e-31 0 2.10507e-31 0 2.31054e-31
1.50394 1.6335e-20 1.59124e-20 4.22608e-22 0.0258713 1.79221e-05 0 1.13187e-32 0 2.38759e-32 0 5.26274e-32 0 8.61924e-32 0 1.24573e-31 0 1.6779e-31 0 2.15876e-31 0 2.68908e-31 0 3.26885e-31 0 3.89894e-31 0 4.57903e-31 0 5.30983e-31 0 6.0924e-31 0 6.92593e-31 0 7.81145e-31 0 8.74926e-31 0 9.73984e-31 0 1.07825e-30 0 1.18796e-30 0 1.30307e-30 0 1.42362e-30
1.58114 1.72824e-20 1.6935e-20 3.47417e-22 0.0201023 1.64114e-05 0 8.71763e-32 0 1.81436e-31 0 3.90573e-31 0 6.26836e-31 0 8.90096e-31 0 1.18037e-30 0 1.49773e-30 0 1.84251e-30 0 2.2146e-30 0 2.61443e-30 0 3.04178e-30 0 3.49696e-30 0 3.98047e-30 0 4.49187e-30 0 5.03164e-30 0 5.5999e-30 0 6.19687e-30 0 6.82217e-30 0 7.47699e-30 0 8.16099e-30 0 8.8744e-30
1.6623 1.88714e-20 1.85858e-20 2.85632e-22 0.0151357 1.501e-05 0 6.27243e-31 0 1.29362e-30 0 2.73914e-30 0 4.33207e-30 0 6.07087e-30 0 7.95507e-30 0 9.98446e-30 0 1.21602e-29 0 1.44814e-29 0 1.69499e-29 0 1.95642e-29 0 2.23257e-29 0 2.52366e-29 0 2.82944e-29 0 3.15013e-29 0 3.48578e-29 0 3.83647e-29 0 4.202e-29 0 4.58292e-29 0 4.97907e-29 0 5.39053e-29
1.74763 2.09253e-20 2.06904e-20 2.34862e-22 0.0112238 1.37473e-05 0 4.1609e-30 0 8.5275e-30 0 1.78473e-29 0 2.79286e-29 0 3.8759e-29 0 5.03328e-29 0 6.2646e-29 0 7.57021e-29 0 8.94934e-29 0 1.04028e-28 0 1.19297e-28 0 1.35305e-28 0 1.52062e-28 0 1.69553e-28 0 1.8779e-28 0 2.06772e-28 0 2.26502e-28 0 2.4697e-28 0 2.68202e-28 0 2.90188e-28 0 3.12932e-28
1.83733 2.34009e-20 2.32078e-20 1.93094e-22 0.00825158 1.25932e-05 0 2.5372e-29 0 5.17667e-29 0 1.07442e-28 0 1.66837e-28 0 2.29869e-28 0 2.96496e-28 0 3.66682e-28 0 4.40433e-28 0 5.17699e-28 0 5.98514e-28 0 6.82821e-28 0 7.70639e-28 0 8.62006e-28 0 9.56848e-28 0 1.05521e-27 0 1.15708e-27 0 1.26248e-27 0 1.37134e-27 0 1.48379e-27 0 1.59977e-27 0 1.71929e-27
1.93164 2.63303e-20 2.61716e-20 1.58694e-22 0.00602706 1.15335e-05 0 1.42457e-28 0 2.89716e-28 0 5.97645e-28 0 9.22732e-28 0 1.2645e-27 0 1.62268e-27 0 1.99705e-27 0 2.38759e-27 0 2.79401e-27 0 3.21643e-27 0 3.65455e-27 0 4.10843e-27 0 4.57821e-27 0 5.06352e-27 0 5.56452e-27 0 6.08118e-27 0 6.61351e-27 0 7.16121e-27 0 7.72484e-27 0 8.3041e-27 0 8.89906e-27
2.03079 2.98037e-20 2.96733e-20 1.30393e-22 0.00437507 1.05502e-05 0 7.3941e-28 0 1.50011e-27 0 3.08041e-27 0 4.73553e-27 0 6.46297e-27 0 8.26131e-27 0 1.01293e-26 0 1.20666e-26 0 1.40717e-26 0 1.61452e-26 0 1.82854e-26 0 2.04925e-26 0 2.27671e-26 0 2.51073e-26 0 2.75138e-26 0 2.99863e-26 0 3.25248e-26 0 3.51278e-26 0 3.77978e-26 0 4.05333e-26 0 4.33345e-26
2.13503 3.39862e-20 3.38789e-20 1.07223e-22 0.00315489 9.65072e-06 0 3.56717e-27 0 7.22369e-27 0 1.47817e-26 0 2.26488e-26 0 3.08132e-26 0 3.92677e-26 0 4.80062e-26 0 5.70268e-26 0 6.63222e-26 0 7.58943e-26 0 8.57358e-26 0 9.58467e-26 0 1.06229e-25 0 1.16875e-25 0 1.27786e-25 0 1.38962e-25 0 1.50401e-25 0 1.62097e-25 0 1.74061e-25 0 1.86285e-25 0 1.9877e-25
2.24463 3.91285e-20 3.90404e-20 8.8129e-23 0.00225229 8.83104e-06 0 1.60923e-26 0 3.25407e-26 0 6.64051e-26 0 1.01484e-25 0 1.37724e-25 0 1.75093e-25 0 2.13564e-25 0 2.53127e-25 0 2.9375e-25 0 3.3544e-25 0 3.78163e-25 0 4.2192e-25 0 4.66718e-25 0 5.12521e-25 0 5.59338e-25 0 6.07162e-25 0 6.55989e-25 0 7.05792e-25 0 7.5661e-25 0 8.08417e-25 0 8.61214e-25
2.35984 4.56671e-20 4.55947e-20 7.24081e-23 0.00158556 8.07545e-06 0 6.8413e-26 0 1.3818e-25 0 2.81364e-25 0 4.29104e-25 0 5.8118e-25 0 7.37462e-25 0 8.97829e-25 0 1.06224e-24 0 1.23056e-24 0 1.40282e-24 0 1.57887e-24 0 1.75872e-24 0 1.94238e-24 0 2.12972e-24 0 2.32077e-24 0 2.51549e-24 0 2.71387e-24 0 2.91579e-24 0 3.12141e-24 0 3.33062e-24 0 3.54342e-24
2.48097 5.44266e-20 5.43672e-20 5.94812e-23 0.00109287 7.37754e-06 0 2.77077e-25 0 5.59106e-25 0 1.13643e-24 0 1.73024e-24 0 2.33965e-24 0 2.96416e-24 0 3.60329e-24 0 4.25687e-24 0 4.92437e-24 0 5.60586e-24 0 6.30084e-24 0 7.00926e-24 0 7.73121e-24 0 8.46612e-24 0 9.21412e-24 0 9.97506e-24 1.4013e-45 1.07489e-23 2.8026e-45 1.15351e-23 5.60519e-45 1.23344e-23 1.26117e-44 1.31463e-23 2.38221e-44 1.39707e-23
2.60832 6.72008e-20 6.71519e-20 4.89032e-23 0.000727718 6.73363e-06 0 1.08824e-24 0 2.19421e-24 0 4.45335e-24 0 6.77081e-24 0 9.14335e-24 0 1.1569e-23 0 1.40459e-23 0 1.65734e-23 0 1.91495e-23 0 2.17744e-23 0 2.44463e-23 0 2.71648e-23 1.4013e-45 2.99304e-23 5.60519e-45 3.27409e-23 1.54143e-44 3.55968e-23 3.78351e-44 3.84973e-23 8.96831e-44 4.14424e-23 1.96182e-43 4.44303e-23 4.1058e-43 4.74632e-23 8.16957e-43 5.05394e-23 1.55965e-42 5.3659e-23
2.74221 8.82737e-20 8.82335e-20 4.01927e-23 0.000455319 6.1476e-06 0 4.27032e-24 0 8.60447e-24 0 1.74418e-23 0 2.64871e-23 0 3.57282e-23 0 4.51574e-23 0 5.4768e-23 0 6.45573e-23 0 7.45177e-23 2.8026e-45 8.465e-23 1.26117e-44 9.49469e-23 4.62428e-44 1.05408e-22 1.44334e-43 1.16034e-22 4.1058e-43 1.26816e-22 1.07059e-42 1.37757e-22 2.58119e-42 1.48855e-22 5.76634e-42 1.60107e-22 1.21675e-41 1.71509e-22 2.46376e-41 1.83067e-22 4.73233e-41 1.94776e-22 8.75784e-41 2.06636e-22
2.88297 1.30946e-19 1.30912e-19 3.30082e-23 0.000252076 5.6173e-06 0 1.78256e-23 0 3.58972e-23 0 7.26885e-23 0 1.10274e-22 0 1.48606e-22 0 1.87652e-22 1.4013e-45 2.27386e-22 9.80909e-45 2.67796e-22 5.60519e-44 3.08853e-22 2.67648e-43 3.50558e-22 1.03556e-42 3.92883e-22 3.50044e-42 4.35825e-22 1.02981e-41 4.79387e-22 2.7799e-41 5.23538e-22 6.92368e-41 5.68284e-22 1.59836e-40 6.13614e-22 3.4345e-40 6.59525e-22 6.98685e-40 7.05994e-22 1.36685e-39 7.53048e-22 2.54308e-39 8.00665e-22 4.56702e-39 8.48844e-22
