# 2.32712e-06 2 40 : grain size, compostion index, size index
# Heating and cooling timescale: 27.2439 54206.3
# Ratio of heating to cooling to determine stochastic cutoff: 100
# Equilibrium emission is recorded even for those grains in the stochastic regime.
# Emission spectrum was computed for: 
# Type: ISRF
# Scales: 0.25 0.5 1 1.5 2 2.5 3 3.5 4 4.5 5 5.5 6 6.5 7 7.5 8 8.5 9 9.5 10
# StochasticallyHeated: 1 1 0 0 0 0 0 0 0 0 0 0 0 0 0 0 0 0 0 0 0
# Temperature: -1
# Wavelength  CExt  CAbs  CSca  Albedo G EqEm1 StEm1 EqEm2 StEm2 EqEm3 StEm3 EqEm4 StEm4 EqEm5 StEm5 EqEm6 StEm6 EqEm7 StEm7 EqEm8 StEm8 EqEm9 StEm9 EqEm10 StEm10 EqEm11 StEm11 EqEm12 StEm12 EqEm13 StEm13 EqEm14 StEm14 EqEm15 StEm15 EqEm16 StEm16 EqEm17 StEm17 EqEm18 StEm18 EqEm19 StEm19 EqEm20 StEm20 EqEm21 StEm21
0.05 2.77169e-11 1.77001e-11 1.00168e-11 0.361396 0.772383 0 0 0 0 0 0 0 0 0 0 0 0 0 0 0 0 0 0 0 0 0 0 0 0 0 0 0 0 0 0 0 0 0 0 0 0 0 0 0 0 0 0
0.0525665 2.83405e-11 1.81268e-11 1.02137e-11 0.360394 0.754892 0 0 0 0 0 0 0 0 0 0 0 0 0 0 0 0 0 0 0 0 0 0 0 0 0 0 0 0 0 0 0 0 0 0 0 0 0 0 0 0 0 0
0.0552647 2.91692e-11 1.85385e-11 1.06306e-11 0.364448 0.734226 0 0 0 0 0 0 0 0 0 0 0 0 0 0 0 0 0 0 0 0 0 0 0 0 0 0 0 0 0 0 0 0 0 0 0 0 0 0 0 0 0 0
0.0581015 3.06843e-11 1.91932e-11 1.14911e-11 0.374494 0.710133 0 0 0 0 0 0 0 0 0 0 0 0 0 0 0 0 0 0 0 0 0 0 0 0 0 0 0 0 0 0 0 0 0 0 0 0 0 0 0 0 0 0
0.0610839 3.29317e-11 2.03013e-11 1.26305e-11 0.383535 0.686398 0 0 0 0 0 0 0 0 0 0 0 0 0 0 0 0 0 0 0 0 0 0 0 0 0 0 0 0 0 0 0 0 0 0 0 0 0 0 0 0 0 0
0.0642193 3.53803e-11 2.16833e-11 1.3697e-11 0.387137 0.66589 0 0 0 0 0 0 0 0 0 0 0 0 0 0 0 0 0 0 0 0 0 0 0 0 0 0 0 0 0 0 0 0 0 0 0 0 0 0 0 0 0 0
0.0675157 3.77103e-11 2.31139e-11 1.45964e-11 0.387067 0.6481 0 0 0 0 0 0 0 0 0 0 0 0 0 0 0 0 0 0 0 0 0 0 0 0 0 0 0 0 0 0 0 0 0 0 0 0 0 0 0 0 0 0
0.0709813 3.97822e-11 2.44539e-11 1.53283e-11 0.385305 0.631924 0 0 0 0 0 0 0 0 0 0 0 0 0 0 0 0 0 0 0 0 0 0 0 0 0 0 0 0 0 0 0 0 0 0 0 0 0 0 0 0 0 0
0.0746248 4.14985e-11 2.5611e-11 1.58875e-11 0.382845 0.616376 0 0 0 0 0 0 0 0 0 0 0 0 0 0 0 0 0 0 0 0 0 0 0 0 0 0 0 0 0 0 0 0 0 0 0 0 0 0 0 0 0 0
0.0784553 4.26879e-11 2.64959e-11 1.6192e-11 0.37931 0.600463 0 0 0 0 0 0 0 0 0 0 0 0 0 0 0 0 0 0 0 0 0 0 0 0 0 0 0 0 0 0 0 0 0 0 0 0 0 0 0 0 0 0
0.0824824 4.30604e-11 2.69809e-11 1.60796e-11 0.373419 0.58289 0 0 0 0 0 0 0 0 0 0 0 0 0 0 0 0 0 0 0 0 0 0 0 0 0 0 0 0 0 0 0 0 0 0 0 0 0 0 0 0 0 0
0.0867162 4.25013e-11 2.70479e-11 1.54534e-11 0.363598 0.55517 0 0 0 0 0 0 0 0 0 0 0 0 0 0 0 0 0 0 0 0 0 0 0 0 0 0 0 0 0 0 0 0 0 0 0 0 0 0 0 0 0 0
0.0911674 4.3327e-11 2.74358e-11 1.58911e-11 0.366772 0.520603 0 0 0 0 0 0 0 0 0 0 0 0 0 0 0 0 0 0 0 0 0 0 0 0 0 0 0 0 0 0 0 0 0 0 0 0 0 0 0 0 0 0
0.095847 4.42734e-11 2.76464e-11 1.6627e-11 0.375553 0.485694 0 0 0 0 0 0 0 0 0 0 0 0 0 0 0 0 0 0 0 0 0 0 0 0 0 0 0 0 0 0 0 0 0 0 0 0 0 0 0 0 0 0
0.100767 4.4816e-11 2.764e-11 1.7176e-11 0.383255 0.450256 0 0 0 0 0 0 0 0 0 0 0 0 0 0 0 0 0 0 0 0 0 0 0 0 0 0 0 0 0 0 0 0 0 0 0 0 0 0 0 0 0 0
0.105939 4.50272e-11 2.74743e-11 1.75529e-11 0.389829 0.420575 0 0 0 0 0 0 0 0 0 0 0 0 0 0 0 0 0 0 0 0 0 0 0 0 0 0 0 0 0 0 0 0 0 0 0 0 0 0 0 0 0 0
0.111377 4.4578e-11 2.72168e-11 1.73612e-11 0.389456 0.394815 0 0 0 0 0 0 0 0 0 0 0 0 0 0 0 0 0 0 0 0 0 0 0 0 0 0 0 0 0 0 0 0 0 0 0 0 0 0 0 0 0 0
0.117094 4.38733e-11 2.68368e-11 1.70365e-11 0.388311 0.371017 0 0 0 0 0 0 0 0 0 0 0 0 0 0 0 0 0 0 0 0 0 0 0 0 0 0 0 0 0 0 0 0 0 0 0 0 0 0 0 0 0 0
0.123105 4.27026e-11 2.61778e-11 1.65248e-11 0.386975 0.348674 0 0 0 0 0 0 0 0 0 0 0 0 0 0 0 0 0 0 0 0 0 0 0 0 0 0 0 0 0 0 0 0 0 0 0 0 0 0 0 0 0 0
0.129424 4.09742e-11 2.51365e-11 1.58377e-11 0.386529 0.327302 0 0 0 0 0 0 0 0 0 0 0 0 0 0 0 0 0 0 0 0 0 0 0 0 0 0 0 0 0 0 0 0 0 0 0 0 0 0 0 0 0 0
0.136067 3.87362e-11 2.36797e-11 1.50565e-11 0.388694 0.307198 0 0 0 0 0 0 0 0 0 0 0 0 0 0 0 0 0 0 0 0 0 0 0 0 0 0 0 0 0 0 0 0 0 0 0 0 0 0 0 0 0 0
0.143051 3.62451e-11 2.17628e-11 1.44823e-11 0.399566 0.291716 0 0 0 0 0 0 0 0 0 0 0 0 0 0 0 0 0 0 0 0 0 0 0 0 0 0 0 0 0 0 0 0 0 0 0 0 0 0 0 0 0 0
0.150394 3.09467e-11 1.74772e-11 1.34694e-11 0.435246 0.282131 0 0 0 0 0 0 0 0 0 0 0 0 0 0 0 0 0 0 0 0 0 0 0 0 0 0 0 0 0 0 0 0 0 0 0 0 0 0 0 0 0 0
0.158114 2.28779e-11 1.16509e-11 1.1227e-11 0.490735 0.255807 0 0 0 0 0 0 0 0 0 0 0 0 0 0 0 0 0 0 0 0 0 0 0 0 0 0 0 0 0 0 0 0 0 0 0 0 0 0 0 0 0 0
0.16623 1.58492e-11 7.12851e-12 8.72066e-12 0.550228 0.21921 0 0 0 0 0 0 0 0 0 0 0 0 0 0 0 0 0 0 0 0 0 0 0 0 0 0 0 0 0 0 0 0 0 0 0 0 0 0 0 0 0 0
0.174762 1.10752e-11 4.46518e-12 6.60999e-12 0.59683 0.18667 0 0 0 0 0 0 0 0 0 0 0 0 0 0 0 0 0 0 0 0 0 0 0 0 0 0 0 0 0 0 0 0 0 0 0 0 0 0 0 0 0 0
0.183733 7.74793e-12 2.77363e-12 4.9743e-12 0.642017 0.160418 0 0 0 0 0 0 0 0 0 0 0 0 0 0 0 0 0 0 0 0 0 0 0 0 0 0 0 0 0 0 0 0 0 0 0 0 0 0 0 0 0 0
0.193164 5.5274e-12 1.77364e-12 3.75376e-12 0.679118 0.139546 0 0 0 0 0 0 0 0 0 0 0 0 0 0 0 0 0 0 0 0 0 0 0 0 0 0 0 0 0 0 0 0 0 0 0 0 0 0 0 0 0 0
0.203079 4.01757e-12 1.16839e-12 2.84918e-12 0.70918 0.122564 0 0 0 0 0 0 0 0 0 0 0 0 0 0 0 0 0 0 0 0 0 0 0 0 0 0 0 0 0 0 0 0 0 0 0 0 0 0 0 0 0 0
0.213503 2.99382e-12 8.23277e-13 2.17054e-12 0.725008 0.108341 0 0 0 0 0 0 0 0 0 0 0 0 0 0 0 0 0 0 0 0 0 0 0 0 0 0 0 0 0 0 0 0 0 0 0 0 0 0 0 0 0 0
0.224463 2.33245e-12 6.65328e-13 1.66712e-12 0.714751 0.0963267 0 0 0 0 0 0 0 0 0 0 0 0 0 0 0 0 0 0 0 0 0 0 0 0 0 0 0 0 0 0 0 0 0 0 0 0 0 0 0 0 0 0
0.235984 1.90577e-12 6.09638e-13 1.29614e-12 0.68011 0.0860903 0 0 0 0 0 0 0 0 0 0 0 0 0 0 0 0 0 0 0 0 0 0 0 0 0 0 0 0 0 0 0 0 0 0 0 0 0 0 0 0 0 0
0.248097 1.60622e-12 5.87526e-13 1.01869e-12 0.634218 0.0772257 0 0 0 0 0 0 0 0 0 0 0 0 0 0 0 0 0 0 0 0 0 0 0 0 0 0 0 0 0 0 0 0 0 0 0 0 0 0 0 0 0 0
0.260832 1.36379e-12 5.57717e-13 8.06076e-13 0.591055 0.0694181 0 0 0 0 0 0 0 0 0 0 0 0 0 0 0 0 0 0 0 0 0 0 0 0 0 0 0 0 0 0 0 0 0 0 0 0 0 0 0 0 0 0
0.274221 1.16787e-12 5.27036e-13 6.40832e-13 0.548719 0.0624865 0 0 0 0 0 0 0 0 0 0 0 0 0 0 0 0 0 0 0 0 0 0 0 0 0 0 0 0 0 0 0 0 0 0 0 0 0 0 0 0 0 0
0.288297 1.00955e-12 4.97545e-13 5.12002e-13 0.50716 0.0563225 0 0 0 0 0 0 0 0 0 0 0 0 0 0 0 0 0 0 0 0 0 0 0 0 0 0 0 0 0 0 0 0 0 0 0 0 0 0 0 0 0 0
0.303095 8.80441e-13 4.70027e-13 4.10414e-13 0.466146 0.0508079 0 0 0 0 0 0 0 0 0 0 0 0 0 0 0 0 0 0 0 0 0 0 0 0 0 0 0 0 0 0 0 0 0 0 0 0 0 0 0 0 0 0
0.318653 7.73749e-13 4.44027e-13 3.29722e-13 0.426136 0.0458569 0 0 0 0 0 0 0 0 0 0 0 0 0 0 0 0 0 0 0 0 0 0 0 0 0 0 0 0 0 0 0 0 0 0 0 0 0 0 0 0 0 0
0.335009 6.85232e-13 4.19598e-13 2.65634e-13 0.387655 0.0414136 0 0 0 0 0 0 0 0 0 0 0 0 0 0 0 0 0 0 0 0 0 0 0 0 0 0 0 0 0 0 0 0 0 0 0 0 0 0 0 0 0 0
0.352205 6.1122e-13 3.96787e-13 2.14433e-13 0.350828 0.0374162 0 0 0 0 0 0 0 0 0 0 0 0 0 0 0 0 0 0 0 0 0 0 0 0 0 0 0 0 0 0 0 0 0 0 0 0 0 0 0 0 0 0
0.370284 5.48651e-13 3.75321e-13 1.7333e-13 0.315921 0.0338119 0 0 0 0 0 0 0 0 0 0 0 0 0 0 0 0 0 0 0 0 0 0 0 0 0 0 0 0 0 0 0 0 0 0 0 0 0 0 0 0 0 0
0.389291 4.95557e-13 3.55214e-13 1.40343e-13 0.283202 0.0305629 0 0 0 0 0 0 0 0 0 0 0 0 0 0 0 0 0 0 0 0 0 0 0 0 0 0 0 0 0 0 0 0 0 0 0 0 0 0 0 0 0 0
0.409273 4.50046e-13 3.36182e-13 1.13864e-13 0.253006 0.0276372 0 0 0 0 0 0 0 0 0 0 0 0 0 0 0 0 0 0 0 0 0 0 0 0 0 0 0 0 0 0 0 0 0 0 0 0 0 0 0 0 0 0
0.430281 4.10628e-13 3.18201e-13 9.24271e-14 0.225087 0.0249919 0 0 0 0 0 0 0 0 0 0 0 0 0 0 0 0 0 0 0 0 0 0 0 0 0 0 0 0 0 0 0 0 0 0 0 0 0 0 0 0 0 0
0.452368 3.76438e-13 3.01302e-13 7.51365e-14 0.199598 0.0226047 0 0 0 0 0 0 0 0 0 0 0 0 0 0 0 0 0 0 0 0 0 0 0 0 0 0 0 0 0 0 0 0 0 0 0 0 0 0 0 0 0 0
0.475588 3.46498e-13 2.85383e-13 6.11153e-14 0.17638 0.0204461 0 0 0 0 0 0 0 0 0 0 0 0 0 0 0 0 0 0 0 0 0 0 0 0 0 0 0 0 0 0 0 0 0 0 0 0 0 0 0 0 0 0
0.5 3.20261e-13 2.70487e-13 4.97741e-14 0.155417 0.0184979 0 0 0 0 0 0 0 0 0 0 0 0 0 0 0 0 0 0 0 0 0 0 0 0 0 0 0 0 0 0 0 0 0 0 0 0 0 0 0 0 0 0
0.525665 2.97055e-13 2.56506e-13 4.05487e-14 0.136502 0.0167347 0 0 0 0 0 0 0 0 0 0 0 0 0 0 0 0 0 0 0 0 0 0 0 0 0 0 0 0 0 0 0 0 0 0 0 0 0 0 0 0 0 0
0.552648 2.76418e-13 2.43389e-13 3.30289e-14 0.119489 0.0151377 0 0 0 0 0 0 0 0 0 0 0 0 0 0 0 0 0 0 0 0 0 0 0 0 0 0 0 0 0 0 0 0 0 0 0 0 0 0 0 0 0 0
0.581015 2.57887e-13 2.30928e-13 2.69593e-14 0.104539 0.0136984 0 0 0 0 0 0 0 0 0 0 0 0 0 0 0 0 0 0 0 0 0 0 0 0 0 0 0 0 0 0 0 0 0 0 0 0 0 0 0 0 0 0
0.610839 2.41245e-13 2.19234e-13 2.20104e-14 0.0912369 0.0123961 0 0 0 0 0 0 0 0 0 0 0 0 0 0 0 0 0 0 0 0 0 0 0 0 0 0 0 0 0 0 0 0 0 0 0 0 0 0 0 0 0 0
0.642193 2.26199e-13 2.08234e-13 1.79654e-14 0.0794228 0.0112159 0 0 0 0 0 0 0 0 0 0 0 0 0 0 0 0 0 0 0 0 0 0 0 0 0 0 0 0 0 0 0 0 0 0 0 0 0 0 0 0 0 0
0.675157 2.1256e-13 1.97892e-13 1.46681e-14 0.0690066 0.010148 0 0 0 0 0 0 0 0 0 0 0 0 0 0 0 0 0 0 0 0 0 0 0 0 0 0 0 0 0 0 0 0 0 0 0 0 0 0 0 0 0 0
0.709813 2.00169e-13 1.8818e-13 1.19889e-14 0.0598939 0.00918383 0 0 0 0 0 0 0 0 0 0 0 0 0 0 0 0 0 0 0 0 0 0 0 0 0 0 0 0 0 0 0 0 0 0 0 0 0 0 0 0 0 0
0.746248 1.88833e-13 1.79034e-13 9.79891e-15 0.051892 0.00831073 0 0 0 0 0 0 0 0 0 0 0 0 0 0 0 0 0 0 0 0 0 0 0 0 0 0 0 0 0 0 0 0 0 0 0 0 0 0 0 0 0 0
0.784553 1.78408e-13 1.70401e-13 8.00702e-15 0.0448804 0.00751973 0 0 0 0 0 0 0 0 0 0 0 0 0 0 0 0 0 0 0 0 0 0 0 0 0 0 0 0 0 0 0 0 0 0 0 0 0 0 0 0 0 0
0.824824 1.68714e-13 1.62169e-13 6.54582e-15 0.0387982 0.00680436 0 0 0 0 0 0 0 0 0 0 0 0 0 0 0 0 0 0 0 0 0 0 0 0 0 0 0 0 0 0 0 0 0 0 0 0 0 0 0 0 0 0
0.867162 1.59706e-13 1.5435e-13 5.3561e-15 0.0335372 0.00615827 0 0 0 0 0 0 0 0 0 0 0 0 0 0 0 0 0 0 0 0 0 0 0 0 0 0 0 0 0 0 0 0 0 0 0 0 0 0 0 0 0 0
0.911674 1.51316e-13 1.46935e-13 4.38185e-15 0.0289582 0.00557299 0 0 0 0 0 0 0 0 0 0 0 0 0 0 0 0 0 0 0 0 0 0 0 0 0 0 0 0 0 0 0 0 0 0 0 0 0 0 0 0 0 0
0.95847 1.43446e-13 1.39861e-13 3.58456e-15 0.024989 0.005043 0 0 0 0 0 0 0 0 0 0 0 0 0 0 0 0 0 0 0 0 0 0 0 0 0 0 0 0 0 0 0 0 0 0 0 0 0 0 0 0 0 0
1.00767 1.36112e-13 1.33178e-13 2.93322e-15 0.0215501 0.00456365 0 0 0 0 0 0 0 0 0 0 0 0 0 0 0 0 0 0 0 0 0 0 0 0 0 0 0 0 0 0 0 0 0 0 0 0 0 0 0 0 0 0
1.05939 1.29291e-13 1.26891e-13 2.40056e-15 0.018567 0.00412993 0 0 0 0 0 0 0 0 0 0 0 0 0 0 0 0 0 0 0 0 0 0 0 0 0 0 0 0 0 0 0 0 0 0 0 0 0 0 0 0 0 0
1.11377 1.22896e-13 1.20932e-13 1.96413e-15 0.0159821 0.00373705 0 0 0 0 0 0 0 0 0 0 0 0 0 0 0 0 0 0 0 0 0 0 0 0 0 0 0 0 0 0 0 0 0 0 0 0 0 0 0 0 0 0
1.17094 1.16865e-13 1.15258e-13 1.60646e-15 0.0137463 0.00338115 0 0 0 0 0 0 0 0 0 0 0 0 0 0 0 0 0 0 0 0 0 0 0 0 0 0 0 0 0 0 0 0 0 0 0 0 0 0 0 0 0 0
1.23105 1.11193e-13 1.09878e-13 1.31462e-15 0.0118228 0.00305956 0 0 0 0 0 0 0 0 0 0 0 0 0 0 0 0 0 0 0 0 0 0 0 0 0 0 0 0 0 0 0 0 0 0 0 0 0 0 0 0 0 0
1.29424 1.0611e-13 1.05035e-13 1.07541e-15 0.0101349 0.00276826 0 0 0 0 0 0 0 0 0 0 0 0 0 0 0 0 0 0 0 0 0 0 0 0 0 0 0 0 0 0 0 0 0 0 0 0 0 0 0 0 0 0
1.36067 1.0138e-13 1.005e-13 8.80103e-16 0.0086812 0.00250481 0 0 0 0 0 0 0 0 0 0 0 0 0 0 0 0 0 0 0 0 0 0 0 0 0 0 0 0 0 0 0 0 0 0 0 0 0 0 0 0 0 0
1.43051 9.6914e-14 9.61943e-14 7.19737e-16 0.00742655 0.00226603 0 0 0 0 0 0 0 0 0 0 0 0 0 0 0 0 0 0 0 0 0 0 0 0 0 0 0 0 0 0 0 0 0 0 0 0 0 0 0 0 0 0
1.50394 9.26947e-14 9.21057e-14 5.89024e-16 0.00635445 0.00205038 0 0 0 0 0 0 0 0 0 0 0 0 0 0 0 0 0 0 0 0 0 0 0 0 0 0 0 0 0 0 0 0 0 0 0 0 0 0 0 0 0 0
1.58114 8.86808e-14 8.81988e-14 4.81918e-16 0.0054343 0.00185509 0 0 0 0 0 0 0 0 0 0 0 0 0 0 0 0 0 0 0 0 0 0 0 0 0 0 0 0 0 0 0 0 0 0 0 0 0 0 0 0 0 0
1.6623 8.48554e-14 8.44614e-14 3.93964e-16 0.00464277 0.00167805 0 0 0 0 0 0 0 0 0 0 0 0 0 0 0 0 0 0 0 0 0 0 0 0 0 0 0 0 0 0 0 0 0 0 0 0 0 0 0 0 0 0
1.74763 8.1269e-14 8.09469e-14 3.22145e-16 0.00396393 0.00151799 0 0 0 0 0 0 0 0 0 0 0 0 0 0 0 0 0 0 0 0 0 0 0 0 0 0 0 0 0 0 0 0 0 0 0 0 0 0 0 0 0 0
1.83733 7.80042e-14 7.77408e-14 2.63363e-16 0.00337626 0.00137314 0 0 0 0 0 0 0 0 0 0 0 0 0 0 0 0 0 0 0 0 0 0 0 0 0 0 0 0 0 0 0 0 0 0 0 0 0 0 0 0 0 0
1.93164 7.49634e-14 7.47482e-14 2.15217e-16 0.00287096 0.00124196 0 0 0 0 0 0 0 0 0 0 0 0 0 0 0 0 0 0 0 0 0 0 0 0 0 0 0 0 0 0 0 0 0 0 0 0 0 0 0 0 0 0
2.03079 7.21016e-14 7.19257e-14 1.75848e-16 0.00243889 0.00112325 0 0 0 0 0 0 0 0 0 0 0 0 0 0 0 0 0 0 0 0 0 0 0 0 0 0 0 0 0 0 0 0 0 0 0 0 0 0 0 0 0 0
2.13503 6.93981e-14 6.92544e-14 1.43688e-16 0.00207049 0.00101593 0 0 0 0 0 0 0 0 0 0 0 0 0 0 0 0 0 0 0 0 0 0 0 0 0 0 0 0 0 0 0 0 0 0 0 0 0 0 0 0 0 0
2.24463 6.68854e-14 6.67681e-14 1.17335e-16 0.00175427 0.000918719 0 0 0 0 0 0 0 0 0 0 0 0 0 0 0 0 0 0 0 0 0 0 0 0 0 0 0 0 0 0 0 0 0 0 0 0 0 0 0 0 0 0
2.35984 6.44909e-14 6.43952e-14 9.57688e-17 0.001485 0.000830699 0 0 0 0 0 0 0 0 0 0 0 0 0 0 0 0 0 0 0 0 0 0 0 0 0 0 0 0 0 0 0 0 0 0 0 0 0 0 0 0 0 0
2.48097 6.22319e-14 6.21538e-14 7.80913e-17 0.00125484 0.000750951 0 0 0 0 0 0 0 0 0 0 0 0 0 0 0 0 0 0 0 0 0 0 0 0 0 0 0 0 0 0 0 0 0 0 0 0 0 0 0 0 0 0
2.60832 6.01459e-14 6.00822e-14 6.3697e-17 0.00105904 0.000678928 0 0 0 0 0 0 0 0 0 0 0 0 0 0 0 0 0 0 0 0 0 0 0 0 0 0 0 0 0 0 0 0 0 0 0 0 0 0 0 0 0 0
2.74221 5.81686e-14 5.81167e-14 5.19302e-17 0.000892752 0.000613732 0 0 0 0 0 0 0 0 0 0 0 0 0 0 0 0 0 0 0 0 0 0 0 0 0 0 0 0 0 0 0 0 0 0 0 0 0 0 0 0 0 0
2.88297 5.63357e-14 5.62934e-14 4.22649e-17 0.000750234 0.00055458 0 0 0 0 0 0 0 0 0 0 0 0 0 0 0 0 0 0 0 0 0 0 0 0 0 0 0 0 0 0 0 0 0 0 0 0 0 0 0 0 0 0
3.03095 5.46057e-14 5.45713e-14 3.43935e-17 0.000629852 0.000501127 0 0 0 0 0 0 0 0 0 0 0 0 0 0 0 0 0 0 0 0 0 0 0 0 0 0 0 0 0 0 0 0 0 0 0 0 0 0 0 0 0 0
3.18653 5.30961e-14 5.30681e-14 2.79743e-17 0.000526862 0.00045278 0 0 0 0 0 0 0 0 0 0 0 0 0 0 0 0 0 0 0 0 0 0 0 0 0 0 0 0 0 0 0 0 0 0 0 0 0 0 0 0 0 0
3.35009 5.16702e-14 5.16475e-14 2.27233e-17 0.000439776 0.000408977 0 0 0 0 0 0 0 0 0 0 0 0 0 0 0 0 0 0 0 0 0 0 0 0 0 0 0 0 0 0 0 0 0 0 0 0 0 0 0 0 0 0
3.52205 5.01257e-14 5.01073e-14 1.84253e-17 0.000367582 0.000369274 0 0 0 0 0 0 0 0 0 0 0 0 0 0 0 0 0 0 0 0 0 0 0 0 0 0 0 0 0 0 0 0 0 0 0 0 0 0 0 0 0 0
3.70284 4.8606e-14 4.85911e-14 1.49315e-17 0.000307194 0.000333405 0 0 0 0 0 0 0 0 0 0 0 0 0 0 0 0 0 0 0 0 0 0 0 0 0 0 0 0 0 0 0 0 0 0 0 0 0 0 0 0 0 0
3.89291 4.71385e-14 4.71264e-14 1.20759e-17 0.00025618 0.000300899 0 0 0 0 0 0 0 0 0 0 0 0 0 0 0 0 0 0 0 0 0 0 0 0 0 0 0 0 0 0 0 0 0 0 0 0 0 0 0 0 0 0
4.09273 4.57489e-14 4.57392e-14 9.74007e-18 0.000212903 0.000271413 0 0 0 0 0 0 0 0 0 0 0 0 0 0 0 0 0 0 0 0 0 0 0 0 0 0 0 0 0 0 0 0 0 0 0 0 0 0 0 0 0 0
4.30281 4.42955e-14 4.42877e-14 7.83388e-18 0.000176855 0.00024469 0 0 0 0 0 0 0 0 0 0 0 0 0 0 0 0 0 0 0 0 0 0 0 0 0 0 0 0 0 0 0 0 0 0 0 0 0 0 0 0 0 0
4.52368 4.29579e-14 4.29516e-14 6.28391e-18 0.000146281 0.000220502 0 0 0 0 0 0 0 0 0 0 0 0 0 0 0 0 0 0 0 0 0 0 0 0 0 0 0 0 0 0 0 0 0 0 0 0 0 0 0 0 0 0
4.75588 4.17976e-14 4.17925e-14 5.01977e-18 0.000120097 0.000198555 0 0 0 0 0 0 0 0 0 0 0 0 0 0 0 0 0 0 0 0 0 0 0 0 0 0 0 0 0 0 0 0 0 0 0 0 0 0 0 0 0 0
5 4.09261e-14 4.09221e-14 3.98506e-18 9.73722e-05 0.000178597 0 0 0 0 0 0 0 0 0 0 0 0 0 0 0 0 0 0 0 0 0 0 0 0 0 0 0 0 0 0 0 0 0 0 0 0 0 0 0 0 0 0
5.25665 4.04511e-14 4.04479e-14 3.14338e-18 7.77082e-05 0.000160483 0 0 0 0 0 0 0 0 0 0 0 0 0 0 0 0 0 0 0 0 0 0 0 0 0 0 0 0 0 0 0 0 0 0 0 0 0 0 0 0 0 0
5.52648 4.03173e-14 4.03149e-14 2.46295e-18 6.10892e-05 0.000144067 0 0 0 0 0 0 0 0 0 0 0 0 0 0 0 0 0 0 0 0 0 0 0 0 0 0 0 0 0 0 0 0 0 0 0 0 0 0 0 0 0 0
5.81015 4.07257e-14 4.07238e-14 1.90678e-18 4.68202e-05 0.000129099 0 0 0 0 0 0 0 0 0 0 0 0 0 0 0 0 0 0 0 0 0 0 0 0 0 0 0 0 0 0 0 0 1.4013e-45 0 2.8026e-45 0 7.00649e-45 0 1.54143e-44 0 3.36312e-44 0
6.10839 4.15026e-14 4.15012e-14 1.45735e-18 3.51146e-05 0.000115494 0 0 0 0 0 0 0 0 0 0 0 0 0 0 0 0 0 0 0 0 0 0 0 0 1.4013e-45 0 4.2039e-45 0 1.26117e-44 0 3.50325e-44 0 9.52883e-44 0 2.42425e-43 0 5.81539e-43 0 1.28919e-42 0 2.82222e-42 0
6.42193 4.21163e-14 4.21152e-14 1.09366e-18 2.59675e-05 0.000103114 0 0 0 0 0 0 0 0 0 0 0 0 0 0 0 0 0 0 1.4013e-45 0 5.60519e-45 0 2.52234e-44 0 9.94922e-44 0 3.33509e-43 0 1.02295e-42 0 2.86986e-42 0 7.39745e-42 0 1.7966e-41 0 4.12346e-41 0 8.79581e-41 0 1.85207e-40 0
6.75157 4.22238e-14 4.22231e-14 7.90345e-19 1.8718e-05 9.16818e-05 0 0 0 0 0 0 0 0 0 0 0 0 0 0 1.4013e-45 0 1.54143e-44 0 9.80909e-44 0 4.91856e-43 0 2.04449e-42 0 7.47312e-42 0 2.37436e-41 0 6.89201e-41 0 1.83775e-40 0 4.52363e-40 0 1.05214e-39 0 2.31883e-39 0 4.76679e-39 0 9.67868e-39 0
7.09813 4.28986e-14 4.28981e-14 5.29283e-19 1.2338e-05 8.09203e-05 0 0 0 0 0 0 0 0 0 0 1.4013e-45 0 1.68156e-44 0 1.76564e-43 0 1.32283e-42 0 7.42828e-42 0 3.43753e-41 0 1.33303e-40 0 4.57387e-40 0 1.37337e-39 0 3.78431e-39 0 9.61908e-39 0 2.26587e-38 0 5.05737e-38 0 1.07242e-37 0 2.12833e-37 0 4.17458e-37 0
7.46248 5.2856e-14 5.28557e-14 2.98229e-19 5.64229e-06 7.04325e-05 0 0 0 0 0 0 0 0 2.8026e-45 0 1.03696e-43 0 1.65914e-42 0 1.55951e-41 0 1.05616e-40 0 5.45165e-40 0 2.3412e-39 0 8.49748e-39 0 2.74532e-38 0 7.81238e-38 0 2.04875e-37 0 4.97571e-37 0 1.12406e-36 0 2.41243e-36 0 4.93123e-36 0 9.4645e-36 0 1.79633e-35 0
7.84553 1.02722e-13 1.02722e-13 1.49049e-19 1.451e-06 6.04445e-05 0 0 0 0 0 0 7.00649e-45 0 5.49309e-43 0 1.48285e-41 0 2.0618e-40 0 1.7377e-39 0 1.0719e-38 0 5.10684e-38 0 2.04249e-37 0 6.96111e-37 0 2.1238e-36 0 5.74288e-36 0 1.43679e-35 0 3.34152e-35 0 7.25433e-35 0 1.49993e-34 0 2.9608e-34 0 5.50464e-34 0 1.01258e-33 0
8.24824 2.13681e-13 2.13681e-13 1.82136e-19 8.52371e-07 5.19458e-05 0 0 0 1.12104e-44 1.4013e-45 0 1.15607e-42 0 7.87221e-41 0 1.80907e-39 0 2.2121e-38 0 1.6801e-37 0 9.48276e-37 0 4.18629e-36 0 1.56475e-35 0 5.023e-35 0 1.45126e-34 0 3.73826e-34 0 8.9431e-34 0 1.99591e-33 0 4.17214e-33 0 8.32585e-33 0 1.58982e-32 0 2.8676e-32 0 5.1203e-32 0
8.67162 3.26138e-13 3.26137e-13 3.27613e-19 1.00452e-06 4.52245e-05 0 1.4013e-45 0 8.99634e-43 2.94273e-43 0 1.1996e-40 0 6.65e-39 0 1.31135e-37 0 1.41898e-36 0 9.76147e-36 0 5.06313e-35 0 2.07887e-34 0 7.28594e-34 0 2.2094e-33 0 6.06122e-33 0 1.4908e-32 0 3.41777e-32 0 7.33456e-32 0 1.47896e-31 0 2.85349e-31 0 5.27935e-31 0 9.25215e-31 0 1.60593e-30 0
9.11674 4.80827e-13 4.80826e-13 6.38865e-19 1.32868e-06 3.85422e-05 0 8.40779e-44 1.4013e-45 6.17903e-41 3.18557e-41 0 9.67034e-39 0 4.40645e-37 0 7.51211e-36 0 7.23643e-35 0 4.53077e-34 0 2.16856e-33 0 8.31056e-33 0 2.73966e-32 0 7.86975e-32 0 2.05517e-31 0 4.83755e-31 0 1.06502e-30 0 2.20189e-30 0 4.29049e-30 0 8.01661e-30 0 1.43929e-29 0 2.45423e-29 0 4.14674e-29 0
9.5847 5.41e-13 5.40999e-13 9.0877e-19 1.6798e-06 3.45183e-05 0 4.60467e-42 7.9874e-44 2.72081e-39 2.10503e-39 0 4.83411e-37 0 1.82802e-35 0 2.71344e-34 0 2.34019e-33 0 1.33968e-32 0 5.94021e-32 0 2.13194e-31 0 6.63049e-31 0 1.80899e-30 0 4.50785e-30 0 1.01764e-29 0 2.15572e-29 0 4.3016e-29 0 8.11329e-29 0 1.47037e-28 0 2.56552e-28 0 4.26212e-28 0 7.01933e-28 0
10.0767 4.84732e-13 4.84731e-13 8.73871e-19 1.80279e-06 3.27837e-05 0 1.67794e-40 5.58978e-42 8.07446e-38 8.96915e-38 0 1.57955e-35 0 5.00231e-34 0 6.50893e-33 0 5.05306e-32 0 2.6565e-31 0 1.09529e-30 0 3.69322e-30 0 1.08672e-29 0 2.82311e-29 0 6.72822e-29 0 1.45969e-28 0 2.98085e-28 0 5.75082e-28 0 1.05158e-27 0 1.85124e-27 0 3.14347e-27 0 5.09444e-27 0 8.18818e-27 0
10.5939 4.06633e-13 4.06633e-13 7.92338e-19 1.94853e-06 3.2218e-05 9.80909e-45 4.85126e-39 2.92692e-40 1.91158e-36 2.92716e-36 0 4.00479e-34 0 1.0714e-32 0 1.22994e-31 0 8.63916e-31 0 4.18829e-30 0 1.61146e-29 0 5.12062e-29 0 1.42939e-28 0 3.54419e-28 0 8.09607e-28 0 1.69126e-27 0 3.33544e-27 0 6.23173e-27 0 1.10643e-26 0 1.89475e-26 0 3.13525e-26 0 4.96273e-26 0 7.79381e-26 0
11.1377 3.19673e-13 3.19673e-13 6.27108e-19 1.96171e-06 3.30202e-05 6.24979e-43 1.12139e-37 1.15949e-38 3.63711e-35 7.39614e-35 0 7.95875e-33 0 1.81353e-31 0 1.84802e-30 0 1.18022e-29 0 5.29731e-29 0 1.90839e-28 0 5.73133e-28 0 1.52166e-27 0 3.60934e-27 0 7.91899e-27 0 1.59583e-26 0 3.04458e-26 0 5.51734e-26 0 9.52516e-26 0 1.58889e-25 0 2.56528e-25 0 3.97051e-25 0 6.09964e-25 0
11.7094 2.55252e-13 2.55252e-13 4.92804e-19 1.93066e-06 3.32144e-05 3.31533e-41 2.26048e-36 3.80594e-37 6.06554e-34 1.58284e-33 0 1.35542e-31 0 2.65135e-30 0 2.41227e-29 0 1.40723e-28 0 5.86976e-28 0 1.98635e-27 0 5.65362e-27 0 1.43114e-26 0 3.25447e-26 0 6.87166e-26 0 1.3382e-25 0 2.4738e-25 0 4.35471e-25 0 7.32021e-25 0 1.19096e-24 0 1.87836e-24 0 2.84596e-24 0 4.28137e-24 0
