# 3.92548e-06 1 45 : grain size, compostion index, size index
# Heating and cooling timescale: 6.29838 230857
# Ratio of heating to cooling to determine stochastic cutoff: 100
# Equilibrium emission is recorded even for those grains in the stochastic regime.
# Emission spectrum was computed for: 
# Type: ISRF
# Scales: 0.25 0.5 1 1.5 2 2.5 3 3.5 4 4.5 5 5.5 6 6.5 7 7.5 8 8.5 9 9.5 10
# StochasticallyHeated: 0 0 0 0 0 0 0 0 0 0 0 0 0 0 0 0 0 0 0 0 0
# Temperature: -1
# Wavelength  CExt  CAbs  CSca  Albedo G EqEm1 StEm1 EqEm2 StEm2 EqEm3 StEm3 EqEm4 StEm4 EqEm5 StEm5 EqEm6 StEm6 EqEm7 StEm7 EqEm8 StEm8 EqEm9 StEm9 EqEm10 StEm10 EqEm11 StEm11 EqEm12 StEm12 EqEm13 StEm13 EqEm14 StEm14 EqEm15 StEm15 EqEm16 StEm16 EqEm17 StEm17 EqEm18 StEm18 EqEm19 StEm19 EqEm20 StEm20 EqEm21 StEm21
0.05 9.30521e-11 5.05073e-11 4.25448e-11 0.457215 0.865558 0 0 0 0 0 0 0 0 0 0 0 0 0 0 0 0 0 0 0 0 0 0 0 0 0 0 0 0 0 0 0 0 0 0 0 0 0 0 0 0 0 0
0.0525665 9.44706e-11 5.13016e-11 4.3169e-11 0.456957 0.855109 0 0 0 0 0 0 0 0 0 0 0 0 0 0 0 0 0 0 0 0 0 0 0 0 0 0 0 0 0 0 0 0 0 0 0 0 0 0 0 0 0 0
0.0552647 9.63748e-11 5.19232e-11 4.44516e-11 0.461237 0.841824 0 0 0 0 0 0 0 0 0 0 0 0 0 0 0 0 0 0 0 0 0 0 0 0 0 0 0 0 0 0 0 0 0 0 0 0 0 0 0 0 0 0
0.0581015 9.96635e-11 5.28134e-11 4.68501e-11 0.470083 0.824392 0 0 0 0 0 0 0 0 0 0 0 0 0 0 0 0 0 0 0 0 0 0 0 0 0 0 0 0 0 0 0 0 0 0 0 0 0 0 0 0 0 0
0.0610839 1.04281e-10 5.45523e-11 4.97292e-11 0.476875 0.805888 0 0 0 0 0 0 0 0 0 0 0 0 0 0 0 0 0 0 0 0 0 0 0 0 0 0 0 0 0 0 0 0 0 0 0 0 0 0 0 0 0 0
0.0642193 1.09214e-10 5.69872e-11 5.22268e-11 0.478206 0.790168 0 0 0 0 0 0 0 0 0 0 0 0 0 0 0 0 0 0 0 0 0 0 0 0 0 0 0 0 0 0 0 0 0 0 0 0 0 0 0 0 0 0
0.0675157 1.13954e-10 5.97287e-11 5.42255e-11 0.475853 0.777617 0 0 0 0 0 0 0 0 0 0 0 0 0 0 0 0 0 0 0 0 0 0 0 0 0 0 0 0 0 0 0 0 0 0 0 0 0 0 0 0 0 0
0.0709813 1.18285e-10 6.24956e-11 5.57895e-11 0.471653 0.767401 0 0 0 0 0 0 0 0 0 0 0 0 0 0 0 0 0 0 0 0 0 0 0 0 0 0 0 0 0 0 0 0 0 0 0 0 0 0 0 0 0 0
0.0746248 1.2202e-10 6.50616e-11 5.69587e-11 0.466797 0.758718 0 0 0 0 0 0 0 0 0 0 0 0 0 0 0 0 0 0 0 0 0 0 0 0 0 0 0 0 0 0 0 0 0 0 0 0 0 0 0 0 0 0
0.0784553 1.24899e-10 6.72853e-11 5.76138e-11 0.461283 0.751796 0 0 0 0 0 0 0 0 0 0 0 0 0 0 0 0 0 0 0 0 0 0 0 0 0 0 0 0 0 0 0 0 0 0 0 0 0 0 0 0 0 0
0.0824824 1.26691e-10 6.92183e-11 5.74725e-11 0.453644 0.748132 0 0 0 0 0 0 0 0 0 0 0 0 0 0 0 0 0 0 0 0 0 0 0 0 0 0 0 0 0 0 0 0 0 0 0 0 0 0 0 0 0 0
0.0867162 1.26858e-10 7.02954e-11 5.65623e-11 0.445872 0.740967 0 0 0 0 0 0 0 0 0 0 0 0 0 0 0 0 0 0 0 0 0 0 0 0 0 0 0 0 0 0 0 0 0 0 0 0 0 0 0 0 0 0
0.0911674 1.29357e-10 7.15325e-11 5.78244e-11 0.447014 0.725577 0 0 0 0 0 0 0 0 0 0 0 0 0 0 0 0 0 0 0 0 0 0 0 0 0 0 0 0 0 0 0 0 0 0 0 0 0 0 0 0 0 0
0.095847 1.32387e-10 7.29019e-11 5.94848e-11 0.449326 0.710975 0 0 0 0 0 0 0 0 0 0 0 0 0 0 0 0 0 0 0 0 0 0 0 0 0 0 0 0 0 0 0 0 0 0 0 0 0 0 0 0 0 0
0.100767 1.34652e-10 7.39176e-11 6.07348e-11 0.451049 0.696261 0 0 0 0 0 0 0 0 0 0 0 0 0 0 0 0 0 0 0 0 0 0 0 0 0 0 0 0 0 0 0 0 0 0 0 0 0 0 0 0 0 0
0.105939 1.36896e-10 7.49431e-11 6.19529e-11 0.452555 0.684591 0 0 0 0 0 0 0 0 0 0 0 0 0 0 0 0 0 0 0 0 0 0 0 0 0 0 0 0 0 0 0 0 0 0 0 0 0 0 0 0 0 0
0.111377 1.39079e-10 7.6107e-11 6.29722e-11 0.452779 0.675681 0 0 0 0 0 0 0 0 0 0 0 0 0 0 0 0 0 0 0 0 0 0 0 0 0 0 0 0 0 0 0 0 0 0 0 0 0 0 0 0 0 0
0.117094 1.41762e-10 7.73931e-11 6.43686e-11 0.454062 0.666543 0 0 0 0 0 0 0 0 0 0 0 0 0 0 0 0 0 0 0 0 0 0 0 0 0 0 0 0 0 0 0 0 0 0 0 0 0 0 0 0 0 0
0.123105 1.44386e-10 7.84587e-11 6.59278e-11 0.456607 0.655142 0 0 0 0 0 0 0 0 0 0 0 0 0 0 0 0 0 0 0 0 0 0 0 0 0 0 0 0 0 0 0 0 0 0 0 0 0 0 0 0 0 0
0.129424 1.46523e-10 7.88488e-11 6.76743e-11 0.461868 0.638224 0 0 0 0 0 0 0 0 0 0 0 0 0 0 0 0 0 0 0 0 0 0 0 0 0 0 0 0 0 0 0 0 0 0 0 0 0 0 0 0 0 0
0.136067 1.48299e-10 7.8299e-11 7e-11 0.472019 0.613181 0 0 0 0 0 0 0 0 0 0 0 0 0 0 0 0 0 0 0 0 0 0 0 0 0 0 0 0 0 0 0 0 0 0 0 0 0 0 0 0 0 0
0.143051 1.51362e-10 7.69742e-11 7.43874e-11 0.491455 0.579187 0 0 0 0 0 0 0 0 0 0 0 0 0 0 0 0 0 0 0 0 0 0 0 0 0 0 0 0 0 0 0 0 0 0 0 0 0 0 0 0 0 0
0.150394 1.57924e-10 7.22591e-11 8.56646e-11 0.542443 0.534121 0 0 0 0 0 0 0 0 0 0 0 0 0 0 0 0 0 0 0 0 0 0 0 0 0 0 0 0 0 0 0 0 0 0 0 0 0 0 0 0 0 0
0.158114 1.65875e-10 6.27444e-11 1.03131e-10 0.621737 0.495123 0 0 0 0 0 0 0 0 0 0 0 0 0 0 0 0 0 0 0 0 0 0 0 0 0 0 0 0 0 0 0 0 0 0 0 0 0 0 0 0 0 0
0.16623 1.73006e-10 5.45224e-11 1.18484e-10 0.684853 0.501799 0 0 0 0 0 0 0 0 0 0 0 0 0 0 0 0 0 0 0 0 0 0 0 0 0 0 0 0 0 0 0 0 0 0 0 0 0 0 0 0 0 0
0.174762 1.62852e-10 4.54317e-11 1.17421e-10 0.721026 0.538743 0 0 0 0 0 0 0 0 0 0 0 0 0 0 0 0 0 0 0 0 0 0 0 0 0 0 0 0 0 0 0 0 0 0 0 0 0 0 0 0 0 0
0.183733 1.27514e-10 2.99959e-11 9.75182e-11 0.764764 0.543402 0 0 0 0 0 0 0 0 0 0 0 0 0 0 0 0 0 0 0 0 0 0 0 0 0 0 0 0 0 0 0 0 0 0 0 0 0 0 0 0 0 0
0.193164 9.17204e-11 1.71933e-11 7.45271e-11 0.812547 0.491505 0 0 0 0 0 0 0 0 0 0 0 0 0 0 0 0 0 0 0 0 0 0 0 0 0 0 0 0 0 0 0 0 0 0 0 0 0 0 0 0 0 0
0.203079 6.76517e-11 9.99588e-12 5.76558e-11 0.852245 0.420367 0 0 0 0 0 0 0 0 0 0 0 0 0 0 0 0 0 0 0 0 0 0 0 0 0 0 0 0 0 0 0 0 0 0 0 0 0 0 0 0 0 0
0.213503 5.16776e-11 6.39668e-12 4.52809e-11 0.876219 0.356101 0 0 0 0 0 0 0 0 0 0 0 0 0 0 0 0 0 0 0 0 0 0 0 0 0 0 0 0 0 0 0 0 0 0 0 0 0 0 0 0 0 0
0.224463 4.07188e-11 4.83507e-12 3.58837e-11 0.881257 0.304793 0 0 0 0 0 0 0 0 0 0 0 0 0 0 0 0 0 0 0 0 0 0 0 0 0 0 0 0 0 0 0 0 0 0 0 0 0 0 0 0 0 0
0.235984 3.28844e-11 4.22991e-12 2.86545e-11 0.87137 0.264564 0 0 0 0 0 0 0 0 0 0 0 0 0 0 0 0 0 0 0 0 0 0 0 0 0 0 0 0 0 0 0 0 0 0 0 0 0 0 0 0 0 0
0.248097 2.69558e-11 3.93947e-12 2.30164e-11 0.853855 0.232155 0 0 0 0 0 0 0 0 0 0 0 0 0 0 0 0 0 0 0 0 0 0 0 0 0 0 0 0 0 0 0 0 0 0 0 0 0 0 0 0 0 0
0.260832 2.21681e-11 3.63886e-12 1.85293e-11 0.835852 0.205174 0 0 0 0 0 0 0 0 0 0 0 0 0 0 0 0 0 0 0 0 0 0 0 0 0 0 0 0 0 0 0 0 0 0 0 0 0 0 0 0 0 0
0.274221 1.82797e-11 3.35864e-12 1.49211e-11 0.816265 0.182311 0 0 0 0 0 0 0 0 0 0 0 0 0 0 0 0 0 0 0 0 0 0 0 0 0 0 0 0 0 0 0 0 0 0 0 0 0 0 0 0 0 0
0.288297 1.51347e-11 3.10465e-12 1.20301e-11 0.794866 0.162735 0 0 0 0 0 0 0 0 0 0 0 0 0 0 0 0 0 0 0 0 0 0 0 0 0 0 0 0 0 0 0 0 0 0 0 0 0 0 0 0 0 0
0.303095 1.25798e-11 2.87664e-12 9.7032e-12 0.771329 0.145732 0 0 0 0 0 0 0 0 0 0 0 0 0 0 0 0 0 0 0 0 0 0 0 0 0 0 0 0 0 0 0 0 0 0 0 0 0 0 0 0 0 0
0.318653 1.04948e-11 2.66863e-12 7.82618e-12 0.745719 0.130814 0 0 0 0 0 0 0 0 0 0 0 0 0 0 0 0 0 0 0 0 0 0 0 0 0 0 0 0 0 0 0 0 0 0 0 0 0 0 0 0 0 0
0.335009 8.79826e-12 2.47929e-12 6.31897e-12 0.718207 0.11767 0 0 0 0 0 0 0 0 0 0 0 0 0 0 0 0 0 0 0 0 0 0 0 0 0 0 0 0 0 0 0 0 0 0 0 0 0 0 0 0 0 0
0.352205 7.41292e-12 2.30728e-12 5.10564e-12 0.688749 0.106007 0 0 0 0 0 0 0 0 0 0 0 0 0 0 0 0 0 0 0 0 0 0 0 0 0 0 0 0 0 0 0 0 0 0 0 0 0 0 0 0 0 0
0.370284 6.27675e-12 2.14982e-12 4.12693e-12 0.657495 0.095602 0 0 0 0 0 0 0 0 0 0 0 0 0 0 0 0 0 0 0 0 0 0 0 0 0 0 0 0 0 0 0 0 0 0 0 0 0 0 0 0 0 0
0.389291 5.34558e-12 2.00619e-12 3.33939e-12 0.624701 0.0862986 0 0 0 0 0 0 0 0 0 0 0 0 0 0 0 0 0 0 0 0 0 0 0 0 0 0 0 0 0 0 0 0 0 0 0 0 0 0 0 0 0 0
0.409273 4.58037e-12 1.87395e-12 2.70642e-12 0.590874 0.0779711 0 0 0 0 0 0 0 0 0 0 0 0 0 0 0 0 0 0 0 0 0 0 0 0 0 0 0 0 0 0 0 0 0 0 0 0 0 0 0 0 0 0
0.430281 3.94582e-12 1.75203e-12 2.19378e-12 0.555977 0.0704749 0 0 0 0 0 0 0 0 0 0 0 0 0 0 0 0 0 0 0 0 0 0 0 0 0 0 0 0 0 0 0 0 0 0 0 0 0 0 0 0 0 0
0.452368 3.4208e-12 1.64019e-12 1.78061e-12 0.520525 0.0637312 0 0 0 0 0 0 0 0 0 0 0 0 0 0 0 0 0 0 0 0 0 0 0 0 0 0 0 0 0 0 0 0 0 0 0 0 0 0 0 0 0 0
0.475588 2.98307e-12 1.53716e-12 1.44591e-12 0.484706 0.0576466 0 0 0 0 0 0 0 0 0 0 0 0 0 0 0 0 0 0 0 0 0 0 0 0 0 0 0 0 0 0 0 0 0 0 0 0 0 0 0 0 0 0
0.5 2.6183e-12 1.44272e-12 1.17558e-12 0.448986 0.0521633 0 0 0 0 0 0 0 0 0 0 0 0 0 0 0 0 0 0 0 0 0 0 0 0 0 0 0 0 0 0 0 0 0 0 0 0 0 0 0 0 0 0
0.525665 2.31183e-12 1.35579e-12 9.56047e-13 0.413545 0.0472048 0 0 0 0 0 0 0 0 0 0 0 0 0 0 0 0 0 0 0 0 0 0 0 0 0 0 0 0 0 0 0 0 0 0 0 0 0 0 0 0 0 0
0.552648 2.05311e-12 1.27569e-12 7.77421e-13 0.378656 0.0427157 0 0 0 0 0 0 0 0 0 0 0 0 0 0 0 0 0 0 0 0 0 0 0 0 0 0 0 0 0 0 0 0 0 0 0 0 0 0 0 0 0 0
0.581015 1.83469e-12 1.20114e-12 6.33551e-13 0.345318 0.0386704 0 0 0 0 0 0 0 0 0 0 0 0 0 0 0 0 0 0 0 0 0 0 0 0 0 0 0 0 0 0 0 0 0 0 0 0 0 0 0 0 0 0
0.610839 1.64875e-12 1.13229e-12 5.16462e-13 0.313244 0.0350094 0 0 0 0 0 0 0 0 0 0 0 0 0 0 0 0 0 0 0 0 0 0 0 0 0 0 0 0 0 0 0 0 0 0 0 0 0 0 0 0 0 0
0.642193 1.48943e-12 1.0685e-12 4.20931e-13 0.282611 0.031691 0 0 0 0 0 0 0 0 0 0 0 0 0 0 0 0 0 0 0 0 0 0 0 0 0 0 0 0 0 0 0 0 0 0 0 0 0 0 0 0 0 0
0.675157 1.35259e-12 1.00939e-12 3.43201e-13 0.253736 0.0286867 0 0 0 0 0 0 0 0 0 0 0 0 0 0 0 0 0 0 0 0 0 0 0 0 0 0 0 0 0 0 0 0 0 0 0 0 0 0 0 0 0 0
0.709813 1.23479e-12 9.54637e-13 2.80156e-13 0.226885 0.0259729 0 0 0 0 0 0 0 0 0 0 0 0 0 0 0 0 0 0 0 0 0 0 0 0 0 0 0 0 0 0 0 0 0 0 0 0 0 0 0 0 0 0
0.746248 1.13243e-12 9.0372e-13 2.28708e-13 0.201962 0.023514 0 0 0 0 0 0 0 0 0 0 0 0 0 0 0 0 0 0 0 0 0 0 0 0 0 0 0 0 0 0 0 0 0 0 0 0 0 0 0 0 0 0
0.784553 1.0429e-12 8.5622e-13 1.86677e-13 0.178999 0.021285 0 0 0 0 0 0 0 0 0 0 0 0 0 0 0 0 0 0 0 0 0 0 0 0 0 0 0 0 0 0 0 0 0 0 0 0 0 0 0 0 0 0
0.824824 9.63917e-13 8.11464e-13 1.52453e-13 0.15816 0.0192679 0 0 0 0 0 0 0 0 0 0 0 0 0 0 0 0 0 0 0 0 0 0 0 0 0 0 0 0 0 0 0 0 0 0 0 0 0 0 0 0 0 0
0.867162 8.94048e-13 7.69421e-13 1.24627e-13 0.139397 0.0174451 0 0 0 0 0 0 0 0 0 0 0 0 0 0 0 0 0 0 0 0 0 0 0 0 0 0 0 0 0 0 0 0 0 0 0 0 0 0 0 0 0 0
0.911674 8.3179e-13 7.29921e-13 1.01869e-13 0.12247 0.0157927 0 0 0 0 0 0 0 0 0 0 0 0 0 0 0 0 0 0 0 0 0 0 0 0 0 0 0 0 0 0 0 0 0 0 0 0 0 0 0 0 0 0
0.95847 7.75861e-13 6.92593e-13 8.32678e-14 0.107323 0.0142957 0 0 0 0 0 0 0 0 0 0 0 0 0 0 0 0 0 0 0 0 0 0 0 0 0 0 0 0 0 0 0 0 0 0 0 0 0 0 0 0 0 0
1.00767 7.25693e-13 6.57605e-13 6.80873e-14 0.0938239 0.0129409 0 0 0 0 0 0 0 0 0 0 0 0 0 0 0 0 0 0 0 0 0 0 0 0 0 0 0 0 0 0 0 0 0 0 0 0 0 0 0 0 0 0
1.05939 6.80604e-13 6.24919e-13 5.5685e-14 0.0818169 0.0117144 0 0 0 0 0 0 0 0 0 0 0 0 0 0 0 0 0 0 0 0 0 0 0 0 0 0 0 0 0 0 0 0 0 0 0 0 0 0 0 0 0 0
1.11377 6.3969e-13 5.94157e-13 4.55334e-14 0.0711804 0.0106029 0 0 0 0 0 0 0 0 0 0 0 0 0 0 0 0 0 0 0 0 0 0 0 0 0 0 0 0 0 0 0 0 0 0 0 0 0 0 0 0 0 0
1.17094 6.02271e-13 5.65051e-13 3.72204e-14 0.0618001 0.00959554 0 0 0 0 0 0 0 0 0 0 0 0 0 0 0 0 0 0 0 0 0 0 0 0 0 0 0 0 0 0 0 0 0 0 0 0 0 0 0 0 0 0
1.23105 5.68056e-13 5.37613e-13 3.04428e-14 0.0535913 0.00868486 0 0 0 0 0 0 0 0 0 0 0 0 0 0 0 0 0 0 0 0 0 0 0 0 0 0 0 0 0 0 0 0 0 0 0 0 0 0 0 0 0 0
1.29424 5.37886e-13 5.12994e-13 2.48917e-14 0.046277 0.00785963 0 0 0 0 0 0 0 0 0 0 0 0 0 0 0 0 0 0 0 0 0 0 0 0 0 0 0 0 0 0 0 0 0 0 0 0 0 0 0 0 0 0
1.36067 5.10411e-13 4.90049e-13 2.03622e-14 0.0398938 0.00711304 0 0 0 0 0 0 0 0 0 0 0 0 0 0 0 0 0 0 0 0 0 0 0 0 0 0 0 0 0 0 0 0 0 0 0 0 0 0 0 0 0 0
1.43051 4.85003e-13 4.68357e-13 1.66454e-14 0.0343203 0.00643611 0 0 0 0 0 0 0 0 0 0 0 0 0 0 0 0 0 0 0 0 0 0 0 0 0 0 0 0 0 0 0 0 0 0 0 0 0 0 0 0 0 0
1.50394 4.61467e-13 4.47849e-13 1.36176e-14 0.0295093 0.00582458 0 0 0 0 0 0 0 0 0 0 0 0 0 0 0 0 0 0 0 0 0 0 0 0 0 0 0 0 0 0 0 0 0 0 0 0 0 0 0 0 0 0
1.58114 4.39468e-13 4.2833e-13 1.11378e-14 0.0253437 0.0052706 0 0 0 0 0 0 0 0 0 0 0 0 0 0 0 0 0 0 0 0 0 0 0 0 0 0 0 0 0 0 0 0 0 0 0 0 0 0 0 0 0 0
1.6623 4.18826e-13 4.09724e-13 9.10227e-15 0.0217328 0.00476823 0 0 0 0 0 0 0 0 0 0 0 0 0 0 0 0 0 0 0 0 0 0 0 0 0 0 0 0 0 0 0 0 0 0 0 0 0 0 0 0 0 0
1.74763 3.99722e-13 3.92281e-13 7.4409e-15 0.0186152 0.00431397 0 0 0 0 0 0 0 0 0 0 0 0 0 0 0 0 0 0 0 0 0 0 0 0 0 0 0 0 0 0 0 0 0 0 0 0 0 0 0 0 0 0
1.83733 3.82482e-13 3.764e-13 6.08166e-15 0.0159005 0.00390277 0 0 0 0 0 0 0 0 0 0 0 0 0 0 0 0 0 0 0 0 0 0 0 0 0 0 0 0 0 0 0 0 0 0 0 0 0 0 0 0 0 0
1.93164 3.6658e-13 3.61611e-13 4.96873e-15 0.0135543 0.00353029 0 0 0 0 0 0 0 0 0 0 0 0 0 0 0 0 0 0 0 0 0 0 0 0 0 0 0 0 0 0 0 0 0 0 0 0 0 0 0 0 0 0
2.03079 3.51755e-13 3.47696e-13 4.059e-15 0.0115393 0.00319315 0 0 0 0 0 0 0 0 0 0 0 0 0 0 0 0 0 0 0 0 0 0 0 0 0 0 0 0 0 0 0 0 0 0 0 0 0 0 0 0 0 0
2.13503 3.3787e-13 3.34554e-13 3.31605e-15 0.00981455 0.00288832 0 0 0 0 0 0 0 0 0 0 0 0 0 0 0 0 0 0 0 0 0 0 0 0 0 0 0 0 0 0 0 0 0 0 0 0 0 0 0 0 0 0
2.24463 3.25052e-13 3.22345e-13 2.70742e-15 0.0083292 0.00261216 0 0 0 0 0 0 0 0 0 0 0 0 0 0 0 0 0 0 0 0 0 0 0 0 0 0 0 0 0 0 0 0 0 0 0 0 0 0 0 0 0 0
2.35984 3.12924e-13 3.10714e-13 2.20945e-15 0.00706067 0.00236206 0 0 0 0 0 0 0 0 0 0 0 0 0 0 0 0 0 0 0 0 0 0 0 0 0 0 0 0 0 0 0 0 0 0 0 0 0 0 0 0 0 0
2.48097 3.01549e-13 2.99747e-13 1.80136e-15 0.00597371 0.00213544 0 0 0 0 0 0 0 0 0 0 0 0 0 0 0 0 0 0 0 0 0 0 0 0 0 0 0 0 0 0 0 0 0 0 0 0 0 0 0 0 0 0
2.60832 2.91092e-13 2.89622e-13 1.46914e-15 0.00504699 0.00193075 0 0 0 0 0 0 0 0 0 0 0 0 0 0 0 0 0 0 0 0 0 0 0 0 0 0 0 0 0 0 0 0 0 0 0 0 0 0 0 0 0 0
2.74221 2.81229e-13 2.80032e-13 1.1976e-15 0.00425847 0.00174544 0 0 0 0 0 0 0 0 0 0 0 0 0 0 0 0 0 0 0 0 0 0 0 0 0 0 0 0 0 0 0 0 0 0 0 0 0 0 0 0 0 0
2.88297 2.72118e-13 2.71143e-13 9.74603e-16 0.00358155 0.00157728 0 0 0 0 0 0 0 0 0 0 0 0 0 0 0 0 0 0 0 0 0 0 0 0 0 0 0 0 0 0 0 0 0 0 0 0 0 0 0 0 0 0
3.03095 2.63551e-13 2.62758e-13 7.93019e-16 0.00300898 0.00142532 0 0 0 0 0 0 0 0 0 0 0 0 0 0 0 0 0 0 0 0 0 0 0 0 0 0 0 0 0 0 0 0 0 0 0 0 0 0 0 0 0 0
3.18653 2.56086e-13 2.55441e-13 6.44953e-16 0.0025185 0.00128787 0 0 0 0 0 0 0 0 0 0 0 0 0 0 0 0 0 0 0 0 0 0 0 0 0 0 0 0 0 0 0 0 0 0 0 0 0 0 0 0 0 0
3.35009 2.49057e-13 2.48533e-13 5.2385e-16 0.00210333 0.00116332 0 0 0 0 0 0 0 0 0 0 0 0 0 0 0 0 0 0 0 0 0 0 0 0 0 0 0 0 0 0 0 0 0 0 0 0 0 0 0 0 0 0
3.52205 2.41484e-13 2.41059e-13 4.24735e-16 0.00175885 0.00105042 0 0 0 0 0 0 0 0 0 0 0 0 0 0 0 0 0 0 0 0 0 0 0 0 0 0 0 0 0 0 0 0 0 0 0 0 0 0 0 0 0 0
3.70284 2.34055e-13 2.33711e-13 3.44173e-16 0.00147048 0.000948415 0 0 0 0 0 0 0 0 0 0 0 0 0 0 0 0 0 0 0 0 0 0 0 0 0 0 0 0 0 0 0 0 0 0 0 0 0 0 0 0 0 0
3.89291 2.26897e-13 2.26618e-13 2.78336e-16 0.00122671 0.000855971 0 0 0 0 0 0 0 0 0 0 0 0 0 0 0 0 0 0 0 0 0 0 0 0 0 0 0 0 0 0 0 0 0 0 0 0 0 0 0 0 0 0
4.09273 2.2013e-13 2.19905e-13 2.24485e-16 0.00101979 0.000772112 0 0 0 0 0 0 0 0 0 0 0 0 0 0 0 0 0 0 0 0 0 0 0 0 0 0 0 0 0 0 0 0 0 0 0 0 0 0 0 0 0 0
4.30281 2.1307e-13 2.1289e-13 1.80543e-16 0.000847338 0.000696104 0 0 0 0 0 0 0 0 0 0 0 0 0 0 0 0 0 0 0 0 0 0 0 0 0 0 0 0 0 0 0 0 0 0 0 0 0 0 0 0 0 0
4.52368 2.0658e-13 2.06435e-13 1.44815e-16 0.000701012 0.000627307 0 0 0 0 0 0 0 0 0 0 0 0 0 0 0 0 0 0 0 0 0 0 0 0 0 0 0 0 0 0 0 0 0 0 0 0 0 0 0 0 0 0
4.75588 2.00951e-13 2.00835e-13 1.15677e-16 0.000575649 0.000564882 0 0 0 0 0 0 0 0 0 0 0 0 0 0 0 0 0 0 0 0 0 0 0 0 0 0 0 0 0 0 0 0 0 0 0 0 0 0 0 0 0 0
5 1.96717e-13 1.96625e-13 9.18296e-17 0.00046681 0.000508111 0 0 0 0 0 0 0 0 0 0 0 0 0 0 0 0 0 0 0 0 0 0 0 0 0 0 0 0 0 0 0 0 0 0 0 0 0 0 0 0 0 0
5.25665 1.94396e-13 1.94324e-13 7.24318e-17 0.000372598 0.000456583 0 0 0 0 0 0 0 0 0 0 0 0 0 0 0 0 0 0 0 0 0 0 0 0 0 0 0 0 0 0 0 0 0 0 0 0 0 0 0 0 0 0
5.52648 1.9372e-13 1.93663e-13 5.6751e-17 0.000292953 0.000409886 0 0 0 0 0 0 0 0 0 0 0 0 0 0 0 0 0 0 0 0 0 0 0 0 0 0 0 0 0 0 0 0 0 0 0 0 0 0 0 0 0 0
5.81015 1.95651e-13 1.95607e-13 4.39342e-17 0.000224554 0.000367305 0 0 0 0 0 0 0 0 0 0 0 0 0 0 0 0 0 0 0 0 0 0 0 0 0 0 0 0 0 0 0 0 0 0 0 0 0 0 1.4013e-45 0 2.8026e-45 0
6.10839 1.99356e-13 1.99322e-13 3.35777e-17 0.000168431 0.000328601 0 0 0 0 0 0 0 0 0 0 0 0 0 0 0 0 0 0 0 0 0 0 0 0 0 0 0 0 1.4013e-45 0 2.8026e-45 0 8.40779e-45 0 2.10195e-44 0 5.32493e-44 0 1.24716e-43 0 2.73253e-43 0
6.42193 2.02279e-13 2.02254e-13 2.51975e-17 0.000124568 0.000293382 0 0 0 0 0 0 0 0 0 0 0 0 0 0 0 0 0 0 0 0 0 0 1.4013e-45 0 8.40779e-45 0 2.94273e-44 0 9.66896e-44 0 2.83062e-43 0 7.76319e-43 0 1.94921e-42 0 4.61027e-42 0 1.02869e-41 0 2.17271e-41 0
6.75157 2.02772e-13 2.02754e-13 1.82086e-17 8.97985e-05 0.000260858 0 0 0 0 0 0 0 0 0 0 0 0 0 0 0 0 1.4013e-45 0 8.40779e-45 0 4.62428e-44 0 2.01787e-43 0 7.8753e-43 0 2.5854e-42 0 7.8809e-42 0 2.19317e-41 0 5.71926e-41 0 1.37366e-40 0 3.11436e-40 0 6.68332e-40 0 1.36092e-39 0
7.09813 2.0599e-13 2.05977e-13 1.21936e-17 5.91953e-05 0.000230242 0 0 0 0 0 0 0 0 0 0 0 0 1.4013e-45 0 1.68156e-44 0 1.30321e-43 0 7.90332e-43 0 3.89561e-42 0 1.58795e-41 0 5.80586e-41 0 1.79871e-40 0 5.19351e-40 0 1.37479e-39 0 3.4211e-39 0 7.87281e-39 0 1.71499e-38 0 3.54565e-38 0 6.97358e-38 0
7.46248 2.53772e-13 2.53765e-13 6.87023e-18 2.70725e-05 0.000200404 0 0 0 0 0 0 0 0 0 0 9.80909e-45 0 1.63952e-43 0 1.73341e-42 0 1.25795e-41 0 6.98771e-41 0 3.18568e-40 0 1.21239e-39 0 4.16067e-39 0 1.21979e-38 0 3.34427e-38 0 8.44181e-38 0 2.00925e-37 0 4.43941e-37 0 9.30998e-37 0 1.85772e-36 0 3.53508e-36 0
7.84553 4.93126e-13 4.93122e-13 3.4334e-18 6.96252e-06 0.000171989 0 0 0 0 0 0 0 0 5.04467e-44 0 1.59608e-42 0 2.45746e-41 0 2.32028e-40 0 1.5291e-39 0 7.81156e-39 0 3.30703e-38 0 1.17907e-37 0 3.80989e-37 0 1.05981e-36 0 2.76604e-36 0 6.67357e-36 0 1.52254e-35 0 3.23631e-35 0 6.54594e-35 0 1.26286e-34 0 2.32879e-34 0
8.24824 1.02572e-12 1.02572e-12 4.1954e-18 4.09019e-06 0.000147809 0 0 0 0 0 0 1.06499e-43 0 8.82958e-42 0 2.34342e-40 0 3.15768e-39 0 2.67194e-38 0 1.60598e-37 0 7.57634e-37 0 2.98924e-36 0 1.00163e-35 0 3.0564e-35 0 8.08783e-35 0 2.01429e-34 0 4.65529e-34 0 1.02016e-33 0 2.09007e-33 0 4.08456e-33 0 7.63124e-33 0 1.36582e-32 0
8.67162 1.56551e-12 1.5655e-12 7.54649e-18 4.82046e-06 0.000128684 0 0 0 0 2.52234e-44 0 1.33544e-41 0 8.96058e-40 0 2.02629e-38 0 2.40476e-37 0 1.83336e-36 0 1.00956e-35 0 4.41526e-35 0 1.62912e-34 0 5.14588e-34 0 1.48699e-33 0 3.75229e-33 0 8.93792e-33 0 1.98289e-32 0 4.18201e-32 0 8.27311e-32 0 1.56476e-31 0 2.83559e-31 0 4.93287e-31 0
9.11674 2.30809e-12 2.30808e-12 1.47167e-17 6.37615e-06 0.00010967 0 0 0 0 3.33929e-42 0 1.2938e-39 0 7.06926e-38 0 1.37282e-36 0 1.44387e-35 0 9.96858e-35 0 5.05061e-34 0 2.05533e-33 0 7.11536e-33 0 2.12478e-32 0 5.82991e-32 0 1.40612e-31 0 3.21041e-31 0 6.85056e-31 0 1.39312e-30 0 2.66568e-30 0 4.88733e-30 0 8.60324e-30 0 1.45673e-29 0
9.5847 2.59726e-12 2.59724e-12 2.09369e-17 8.06115e-06 9.82158e-05 0 0 7.00649e-45 0 2.65938e-40 0 7.70388e-38 0 3.46245e-36 0 5.81736e-35 0 5.45439e-34 0 3.42675e-33 0 1.60393e-32 0 6.09487e-32 0 1.98585e-31 0 5.6217e-31 0 1.4683e-30 0 3.39239e-30 0 7.4394e-30 0 1.52979e-29 0 3.005e-29 0 5.57062e-29 0 9.91549e-29 0 1.69791e-28 0 2.80197e-28 0
10.0767 2.32731e-12 2.32728e-12 2.01344e-17 8.65137e-06 9.32769e-05 0 0 5.56315e-43 0 1.35344e-38 0 2.97281e-36 0 1.10956e-34 0 1.6243e-33 0 1.3653e-32 0 7.84146e-32 0 3.40388e-31 0 1.21184e-30 0 3.72719e-30 0 1.00285e-29 0 2.49935e-29 0 5.54322e-29 0 1.16989e-28 0 2.32248e-28 0 4.41416e-28 0 7.93997e-28 0 1.37405e-27 0 2.29191e-27 0 3.69085e-27 0
10.5939 1.95244e-12 1.95242e-12 1.82567e-17 9.35069e-06 9.16647e-05 1.4013e-45 0 3.52385e-41 0 5.23025e-37 0 8.82914e-35 0 2.76154e-33 0 3.54619e-32 0 2.68648e-31 0 1.41673e-30 0 5.72446e-30 0 1.91549e-29 0 5.57692e-29 0 1.42976e-28 0 3.40791e-28 0 7.27e-28 0 1.47937e-27 0 2.84018e-27 0 5.23149e-27 0 9.14425e-27 0 1.54065e-26 0 2.50639e-26 0 3.94343e-26 0
11.1377 1.53492e-12 1.53491e-12 1.44496e-17 9.41392e-06 9.3947e-05 6.02558e-44 0 1.67123e-39 0 1.55192e-35 0 2.03946e-33 0 5.39194e-32 0 6.11265e-31 0 4.19483e-30 0 2.03967e-29 0 7.69839e-29 0 2.42848e-28 0 6.71103e-28 0 1.64322e-27 0 3.75408e-27 0 7.71763e-27 0 1.51692e-26 0 2.82098e-26 0 5.04346e-26 0 8.57847e-26 0 1.40898e-25 0 2.23837e-25 0 3.44466e-25 0
11.7094 1.22559e-12 1.22558e-12 1.1355e-17 9.26491e-06 9.45004e-05 3.87319e-42 0 6.5098e-38 0 3.86968e-34 0 4.00756e-32 0 9.02964e-31 0 9.09224e-30 0 5.67957e-29 0 2.55639e-28 0 9.04278e-28 0 2.69698e-27 0 7.09215e-27 0 1.66225e-26 0 3.64742e-26 0 7.23911e-26 0 1.37669e-25 0 2.48381e-25 0 4.31645e-25 0 7.15394e-25 0 1.14688e-24 0 1.78127e-24 0 2.68414e-24 0
12.3105 9.57002e-13 9.56993e-13 8.70443e-18 9.09552e-06 9.40109e-05 1.93888e-40 0 2.02616e-36 0 7.87977e-33 0 6.5062e-31 0 1.25913e-29 0 1.13266e-28 0 6.46989e-28 0 2.7059e-27 0 8.99908e-27 0 2.5445e-26 0 6.38267e-26 0 1.43502e-25 0 3.0303e-25 0 5.81635e-25 0 1.07194e-24 0 1.87906e-24 0 3.17857e-24 0 5.13969e-24 0 8.05197e-24 0 1.22399e-23 0 1.80784e-23 0
