# 8.9125e-06 1 96 : grain size, compostion index, size index
# Heating and cooling timescale: 0.33629 552760
# Ratio of heating to cooling to determine stochastic cutoff: 100
# Equilibrium emission is recorded even for those grains in the stochastic regime.
# Emission spectrum was computed for: 
# Type: IRSF
# Scales: 0.25 0.5 1 1.5 2 2.5 3 3.5 4 4.5 5 5.5 6 6.5 7 7.5 8 8.5 9 9.5 10
# StochasticallyHeated: 0 0 0 0 0 0 0 0 0 0 0 0 0 0 0 0 0 0 0 0 0
# Temperature: -1
# Wavelength  CExt  CAbs  CSca  Albedo G EqEm1 StEm1 EqEm2 StEm2 EqEm3 StEm3 EqEm4 StEm4 EqEm5 StEm5 EqEm6 StEm6 EqEm7 StEm7 EqEm8 StEm8 EqEm9 StEm9 EqEm10 StEm10 EqEm11 StEm11 EqEm12 StEm12 EqEm13 StEm13 EqEm14 StEm14 EqEm15 StEm15 EqEm16 StEm16 EqEm17 StEm17 EqEm18 StEm18 EqEm19 StEm19 EqEm20 StEm20 EqEm21 StEm21
0.05 1.57235e-10 8.019e-11 7.70451e-11 0.489999 0.20406 0 0 0 0 0 0 0 0 0 0 0 0 0 0 0 0 0 0 0 0 0 0 0 0 0 0 0 0 0 0 0 0 0 0 0 0 0 0 0 0 0 0
0.0525665 1.73791e-10 8.86337e-11 8.51576e-11 0.489999 0.225547 0 0 0 0 0 0 0 0 0 0 0 0 0 0 0 0 0 0 0 0 0 0 0 0 0 0 0 0 0 0 0 0 0 0 0 0 0 0 0 0 0 0
0.0552647 1.92091e-10 9.79664e-11 9.41243e-11 0.489999 0.249296 0 0 0 0 0 0 0 0 0 0 0 0 0 0 0 0 0 0 0 0 0 0 0 0 0 0 0 0 0 0 0 0 0 0 0 0 0 0 0 0 0 0
0.0581015 2.12317e-10 1.08282e-10 1.04035e-10 0.489999 0.275546 0 0 0 0 0 0 0 0 0 0 0 0 0 0 0 0 0 0 0 0 0 0 0 0 0 0 0 0 0 0 0 0 0 0 0 0 0 0 0 0 0 0
0.0610839 2.34673e-10 1.19683e-10 1.1499e-10 0.489999 0.304559 0 0 0 0 0 0 0 0 0 0 0 0 0 0 0 0 0 0 0 0 0 0 0 0 0 0 0 0 0 0 0 0 0 0 0 0 0 0 0 0 0 0
0.0642193 2.59383e-10 1.32285e-10 1.27097e-10 0.489999 0.336628 0 0 0 0 0 0 0 0 0 0 0 0 0 0 0 0 0 0 0 0 0 0 0 0 0 0 0 0 0 0 0 0 0 0 0 0 0 0 0 0 0 0
0.0675157 2.86694e-10 1.46214e-10 1.4048e-10 0.489999 0.372073 0 0 0 0 0 0 0 0 0 0 0 0 0 0 0 0 0 0 0 0 0 0 0 0 0 0 0 0 0 0 0 0 0 0 0 0 0 0 0 0 0 0
0.0709813 3.16882e-10 1.6161e-10 1.55272e-10 0.489999 0.411251 0 0 0 0 0 0 0 0 0 0 0 0 0 0 0 0 0 0 0 0 0 0 0 0 0 0 0 0 0 0 0 0 0 0 0 0 0 0 0 0 0 0
0.0746248 3.50248e-10 1.78627e-10 1.71621e-10 0.489999 0.454553 0 0 0 0 0 0 0 0 0 0 0 0 0 0 0 0 0 0 0 0 0 0 0 0 0 0 0 0 0 0 0 0 0 0 0 0 0 0 0 0 0 0
0.0784553 3.87127e-10 1.97435e-10 1.89692e-10 0.489999 0.502416 0 0 0 0 0 0 0 0 0 0 0 0 0 0 0 0 0 0 0 0 0 0 0 0 0 0 0 0 0 0 0 0 0 0 0 0 0 0 0 0 0 0
0.0824824 4.2789e-10 2.18224e-10 2.09666e-10 0.489999 0.555318 0 0 0 0 0 0 0 0 0 0 0 0 0 0 0 0 0 0 0 0 0 0 0 0 0 0 0 0 0 0 0 0 0 0 0 0 0 0 0 0 0 0
0.0867162 4.72945e-10 2.41202e-10 2.31743e-10 0.489999 0.61379 0 0 0 0 0 0 0 0 0 0 0 0 0 0 0 0 0 0 0 0 0 0 0 0 0 0 0 0 0 0 0 0 0 0 0 0 0 0 0 0 0 0
0.0911674 5.22744e-10 2.666e-10 2.56144e-10 0.489999 0.678419 0 0 0 0 0 0 0 0 0 0 0 0 0 0 0 0 0 0 0 0 0 0 0 0 0 0 0 0 0 0 0 0 0 0 0 0 0 0 0 0 0 0
0.095847 5.77786e-10 2.94671e-10 2.83115e-10 0.489999 0.749853 0 0 0 0 0 0 0 0 0 0 0 0 0 0 0 0 0 0 0 0 0 0 0 0 0 0 0 0 0 0 0 0 0 0 0 0 0 0 0 0 0 0
0.100767 6.30057e-10 3.21563e-10 3.08494e-10 0.489629 0.815694 0 0 0 0 0 0 0 0 0 0 0 0 0 0 0 0 0 0 0 0 0 0 0 0 0 0 0 0 0 0 0 0 0 0 0 0 0 0 0 0 0 0
0.105939 6.37692e-10 3.26885e-10 3.10807e-10 0.487393 0.815107 0 0 0 0 0 0 0 0 0 0 0 0 0 0 0 0 0 0 0 0 0 0 0 0 0 0 0 0 0 0 0 0 0 0 0 0 0 0 0 0 0 0
0.111377 6.45471e-10 3.32383e-10 3.13089e-10 0.485054 0.815279 0 0 0 0 0 0 0 0 0 0 0 0 0 0 0 0 0 0 0 0 0 0 0 0 0 0 0 0 0 0 0 0 0 0 0 0 0 0 0 0 0 0
0.117094 6.53479e-10 3.37959e-10 3.15519e-10 0.482831 0.813666 0 0 0 0 0 0 0 0 0 0 0 0 0 0 0 0 0 0 0 0 0 0 0 0 0 0 0 0 0 0 0 0 0 0 0 0 0 0 0 0 0 0
0.123105 6.61604e-10 3.43934e-10 3.17669e-10 0.48015 0.810754 0 0 0 0 0 0 0 0 0 0 0 0 0 0 0 0 0 0 0 0 0 0 0 0 0 0 0 0 0 0 0 0 0 0 0 0 0 0 0 0 0 0
0.129424 6.69615e-10 3.50215e-10 3.194e-10 0.476991 0.806357 0 0 0 0 0 0 0 0 0 0 0 0 0 0 0 0 0 0 0 0 0 0 0 0 0 0 0 0 0 0 0 0 0 0 0 0 0 0 0 0 0 0
0.136067 6.78248e-10 3.56717e-10 3.21531e-10 0.474061 0.800213 0 0 0 0 0 0 0 0 0 0 0 0 0 0 0 0 0 0 0 0 0 0 0 0 0 0 0 0 0 0 0 0 0 0 0 0 0 0 0 0 0 0
0.143051 6.8741e-10 3.64656e-10 3.22754e-10 0.469522 0.792063 0 0 0 0 0 0 0 0 0 0 0 0 0 0 0 0 0 0 0 0 0 0 0 0 0 0 0 0 0 0 0 0 0 0 0 0 0 0 0 0 0 0
0.150394 6.97246e-10 3.71917e-10 3.25329e-10 0.466592 0.785086 0 0 0 0 0 0 0 0 0 0 0 0 0 0 0 0 0 0 0 0 0 0 0 0 0 0 0 0 0 0 0 0 0 0 0 0 0 0 0 0 0 0
0.158114 7.19725e-10 3.67795e-10 3.5193e-10 0.488978 0.763065 0 0 0 0 0 0 0 0 0 0 0 0 0 0 0 0 0 0 0 0 0 0 0 0 0 0 0 0 0 0 0 0 0 0 0 0 0 0 0 0 0 0
0.16623 7.87881e-10 3.35767e-10 4.52115e-10 0.573836 0.681604 0 0 0 0 0 0 0 0 0 0 0 0 0 0 0 0 0 0 0 0 0 0 0 0 0 0 0 0 0 0 0 0 0 0 0 0 0 0 0 0 0 0
0.174762 8.84974e-10 2.89387e-10 5.95587e-10 0.673 0.580525 0 0 0 0 0 0 0 0 0 0 0 0 0 0 0 0 0 0 0 0 0 0 0 0 0 0 0 0 0 0 0 0 0 0 0 0 0 0 0 0 0 0
0.183733 9.77143e-10 2.45416e-10 7.31727e-10 0.748843 0.579346 0 0 0 0 0 0 0 0 0 0 0 0 0 0 0 0 0 0 0 0 0 0 0 0 0 0 0 0 0 0 0 0 0 0 0 0 0 0 0 0 0 0
0.193164 1.00665e-09 1.95602e-10 8.11044e-10 0.805689 0.602117 0 0 0 0 0 0 0 0 0 0 0 0 0 0 0 0 0 0 0 0 0 0 0 0 0 0 0 0 0 0 0 0 0 0 0 0 0 0 0 0 0 0
0.203079 9.73315e-10 1.68064e-10 8.05251e-10 0.827328 0.572482 0 0 0 0 0 0 0 0 0 0 0 0 0 0 0 0 0 0 0 0 0 0 0 0 0 0 0 0 0 0 0 0 0 0 0 0 0 0 0 0 0 0
0.213503 9.41162e-10 1.59366e-10 7.81796e-10 0.830671 0.583996 0 0 0 0 0 0 0 0 0 0 0 0 0 0 0 0 0 0 0 0 0 0 0 0 0 0 0 0 0 0 0 0 0 0 0 0 0 0 0 0 0 0
0.224463 8.95544e-10 1.55e-10 7.40543e-10 0.82692 0.632634 0 0 0 0 0 0 0 0 0 0 0 0 0 0 0 0 0 0 0 0 0 0 0 0 0 0 0 0 0 0 0 0 0 0 0 0 0 0 0 0 0 0
0.235984 8.1874e-10 1.46444e-10 6.72296e-10 0.821135 0.65487 0 0 0 0 0 0 0 0 0 0 0 0 0 0 0 0 0 0 0 0 0 0 0 0 0 0 0 0 0 0 0 0 0 0 0 0 0 0 0 0 0 0
0.248097 7.34769e-10 1.33209e-10 6.01559e-10 0.818706 0.643067 0 0 0 0 0 0 0 0 0 0 0 0 0 0 0 0 0 0 0 0 0 0 0 0 0 0 0 0 0 0 0 0 0 0 0 0 0 0 0 0 0 0
0.260832 6.67738e-10 1.21892e-10 5.45846e-10 0.817455 0.607113 0 0 0 0 0 0 0 0 0 0 0 0 0 0 0 0 0 0 0 0 0 0 0 0 0 0 0 0 0 0 0 0 0 0 0 0 0 0 0 0 0 0
0.274221 6.16535e-10 1.14635e-10 5.01901e-10 0.814067 0.572993 0 0 0 0 0 0 0 0 0 0 0 0 0 0 0 0 0 0 0 0 0 0 0 0 0 0 0 0 0 0 0 0 0 0 0 0 0 0 0 0 0 0
0.288297 5.71267e-10 1.10318e-10 4.60949e-10 0.806889 0.555807 0 0 0 0 0 0 0 0 0 0 0 0 0 0 0 0 0 0 0 0 0 0 0 0 0 0 0 0 0 0 0 0 0 0 0 0 0 0 0 0 0 0
0.303095 5.23126e-10 1.06614e-10 4.16512e-10 0.796198 0.555782 0 0 0 0 0 0 0 0 0 0 0 0 0 0 0 0 0 0 0 0 0 0 0 0 0 0 0 0 0 0 0 0 0 0 0 0 0 0 0 0 0 0
0.318653 4.70349e-10 1.01784e-10 3.68565e-10 0.783599 0.567398 0 0 0 0 0 0 0 0 0 0 0 0 0 0 0 0 0 0 0 0 0 0 0 0 0 0 0 0 0 0 0 0 0 0 0 0 0 0 0 0 0 0
0.335009 4.15652e-10 9.52915e-11 3.20361e-10 0.770742 0.580889 0 0 0 0 0 0 0 0 0 0 0 0 0 0 0 0 0 0 0 0 0 0 0 0 0 0 0 0 0 0 0 0 0 0 0 0 0 0 0 0 0 0
0.352205 3.63671e-10 8.77125e-11 2.75959e-10 0.758814 0.584026 0 0 0 0 0 0 0 0 0 0 0 0 0 0 0 0 0 0 0 0 0 0 0 0 0 0 0 0 0 0 0 0 0 0 0 0 0 0 0 0 0 0
0.370284 3.17745e-10 7.99917e-11 2.37753e-10 0.748252 0.567499 0 0 0 0 0 0 0 0 0 0 0 0 0 0 0 0 0 0 0 0 0 0 0 0 0 0 0 0 0 0 0 0 0 0 0 0 0 0 0 0 0 0
0.389291 2.7832e-10 7.2804e-11 2.05516e-10 0.738416 0.531012 0 0 0 0 0 0 0 0 0 0 0 0 0 0 0 0 0 0 0 0 0 0 0 0 0 0 0 0 0 0 0 0 0 0 0 0 0 0 0 0 0 0
0.409273 2.44822e-10 6.64765e-11 1.78346e-10 0.728471 0.481816 0 0 0 0 0 0 0 0 0 0 0 0 0 0 0 0 0 0 0 0 0 0 0 0 0 0 0 0 0 0 0 0 0 0 0 0 0 0 0 0 0 0
0.430281 2.15841e-10 6.1005e-11 1.54836e-10 0.717361 0.42878 0 0 0 0 0 0 0 0 0 0 0 0 0 0 0 0 0 0 0 0 0 0 0 0 0 0 0 0 0 0 0 0 0 0 0 0 0 0 0 0 0 0
0.452368 1.90361e-10 5.62561e-11 1.34105e-10 0.704477 0.37841 0 0 0 0 0 0 0 0 0 0 0 0 0 0 0 0 0 0 0 0 0 0 0 0 0 0 0 0 0 0 0 0 0 0 0 0 0 0 0 0 0 0
0.475588 1.67648e-10 5.20654e-11 1.15582e-10 0.689436 0.33328 0 0 0 0 0 0 0 0 0 0 0 0 0 0 0 0 0 0 0 0 0 0 0 0 0 0 0 0 0 0 0 0 0 0 0 0 0 0 0 0 0 0
0.5 1.47322e-10 4.83073e-11 9.90142e-11 0.672096 0.294007 0 0 0 0 0 0 0 0 0 0 0 0 0 0 0 0 0 0 0 0 0 0 0 0 0 0 0 0 0 0 0 0 0 0 0 0 0 0 0 0 0 0
0.525665 1.29174e-10 4.48847e-11 8.42895e-11 0.652526 0.260216 0 0 0 0 0 0 0 0 0 0 0 0 0 0 0 0 0 0 0 0 0 0 0 0 0 0 0 0 0 0 0 0 0 0 0 0 0 0 0 0 0 0
0.552648 1.13046e-10 4.17306e-11 7.13154e-11 0.630853 0.231199 0 0 0 0 0 0 0 0 0 0 0 0 0 0 0 0 0 0 0 0 0 0 0 0 0 0 0 0 0 0 0 0 0 0 0 0 0 0 0 0 0 0
0.581015 9.87539e-11 3.88118e-11 5.99421e-11 0.606985 0.206192 0 0 0 0 0 0 0 0 0 0 0 0 0 0 0 0 0 0 0 0 0 0 0 0 0 0 0 0 0 0 0 0 0 0 0 0 0 0 0 0 0 0
0.610839 8.62289e-11 3.61048e-11 5.01241e-11 0.581291 0.184433 0 0 0 0 0 0 0 0 0 0 0 0 0 0 0 0 0 0 0 0 0 0 0 0 0 0 0 0 0 0 0 0 0 0 0 0 0 0 0 0 0 0
0.642193 7.53305e-11 3.35802e-11 4.17503e-11 0.554228 0.165384 0 0 0 0 0 0 0 0 0 0 0 0 0 0 0 0 0 0 0 0 0 0 0 0 0 0 0 0 0 0 0 0 0 0 0 0 0 0 0 0 0 0
0.675157 6.5892e-11 3.1249e-11 3.4643e-11 0.525754 0.148668 0 0 0 0 0 0 0 0 0 0 0 0 0 0 0 0 0 0 0 0 0 0 0 0 0 0 0 0 0 0 0 0 0 0 0 0 0 0 0 0 0 0
0.709813 5.77524e-11 2.91012e-11 2.86512e-11 0.496104 0.133874 0 0 0 0 0 0 0 0 0 0 0 0 0 0 0 0 0 0 0 0 0 0 0 0 0 0 0 0 0 0 0 0 0 0 0 0 0 0 0 0 0 0
0.746248 5.0763e-11 2.71208e-11 2.36422e-11 0.465738 0.12071 0 0 0 0 0 0 0 0 0 0 0 0 0 0 0 0 0 0 0 0 0 0 0 0 0 0 0 0 0 0 0 0 0 0 0 0 0 0 0 0 0 0
0.784553 4.47578e-11 2.52935e-11 1.94642e-11 0.43488 0.108949 0 0 0 0 0 0 0 0 0 0 0 0 0 0 0 0 0 0 0 0 0 0 0 0 0 0 0 0 0 0 0 0 0 0 0 0 0 0 0 0 0 0
0.824824 3.96126e-11 2.36117e-11 1.60009e-11 0.403934 0.0984418 0 0 0 0 0 0 0 0 0 0 0 0 0 0 0 0 0 0 0 0 0 0 0 0 0 0 0 0 0 0 0 0 0 0 0 0 0 0 0 0 0 0
0.867162 3.51949e-11 2.20572e-11 1.31377e-11 0.373285 0.0890103 0 0 0 0 0 0 0 0 0 0 0 0 0 0 0 0 0 0 0 0 0 0 0 0 0 0 0 0 0 0 0 0 0 0 0 0 0 0 0 0 0 0
0.911674 3.14097e-11 2.06394e-11 1.07702e-11 0.342895 0.0805168 0 0 0 0 0 0 0 0 0 0 0 0 0 0 0 0 0 0 0 0 0 0 0 0 0 0 0 0 0 0 0 0 0 0 0 0 0 0 0 0 0 0
0.95847 2.81594e-11 1.93431e-11 8.81631e-12 0.313086 0.072858 0 0 0 0 0 0 0 0 0 0 0 0 0 0 0 0 0 0 0 0 0 0 0 0 0 0 0 0 0 0 0 0 0 0 0 0 0 0 0 0 0 0
1.00767 2.53392e-11 1.81456e-11 7.19365e-12 0.283894 0.0659515 0 0 0 0 0 0 0 0 0 0 0 0 0 0 0 0 0 0 0 0 0 0 0 0 0 0 0 0 0 0 0 0 0 0 0 0 0 0 0 0 0 0
1.05939 2.32886e-11 1.74206e-11 5.86799e-12 0.251969 0.0597138 0 0 0 0 0 0 0 0 0 0 0 0 0 0 0 0 0 0 0 0 0 0 0 0 0 0 0 0 0 0 0 0 0 0 0 0 0 0 0 0 0 0
1.11377 2.16008e-11 1.68077e-11 4.79312e-12 0.221895 0.0540691 0 0 0 0 0 0 0 0 0 0 0 0 0 0 0 0 0 0 0 0 0 0 0 0 0 0 0 0 0 0 0 0 0 0 0 0 0 0 0 0 0 0
1.17094 2.02186e-11 1.62958e-11 3.92283e-12 0.19402 0.048958 0 0 0 0 0 0 0 0 0 0 0 0 0 0 0 0 0 0 0 0 0 0 0 0 0 0 0 0 0 0 0 0 0 0 0 0 0 0 0 0 0 0
1.23105 1.90527e-11 1.58436e-11 3.20912e-12 0.168434 0.0443328 0 0 0 0 0 0 0 0 0 0 0 0 0 0 0 0 0 0 0 0 0 0 0 0 0 0 0 0 0 0 0 0 0 0 0 0 0 0 0 0 0 0
1.29424 1.8015e-11 1.53884e-11 2.6266e-12 0.145801 0.0401467 0 0 0 0 0 0 0 0 0 0 0 0 0 0 0 0 0 0 0 0 0 0 0 0 0 0 0 0 0 0 0 0 0 0 0 0 0 0 0 0 0 0
1.36067 1.70808e-11 1.49215e-11 2.15931e-12 0.126417 0.0363584 0 0 0 0 0 0 0 0 0 0 0 0 0 0 0 0 0 0 0 0 0 0 0 0 0 0 0 0 0 0 0 0 0 0 0 0 0 0 0 0 0 0
1.43051 1.61955e-11 1.44405e-11 1.75498e-12 0.108362 0.0329201 0 0 0 0 0 0 0 0 0 0 0 0 0 0 0 0 0 0 0 0 0 0 0 0 0 0 0 0 0 0 0 0 0 0 0 0 0 0 0 0 0 0
1.50394 1.54046e-11 1.39713e-11 1.43328e-12 0.0930424 0.029807 0 0 0 0 0 0 0 0 0 0 0 0 0 0 0 0 0 0 0 0 0 0 0 0 0 0 0 0 0 0 0 0 0 0 0 0 0 0 0 0 0 0
1.58114 1.47015e-11 1.35297e-11 1.17188e-12 0.0797113 0.026991 0 0 0 0 0 0 0 0 0 0 0 0 0 0 0 0 0 0 0 0 0 0 0 0 0 0 0 0 0 0 0 0 0 0 0 0 0 0 0 0 0 0
1.6623 1.40899e-11 1.31318e-11 9.58076e-13 0.0679973 0.0244354 0 0 0 0 0 0 0 0 0 0 0 0 0 0 0 0 0 0 0 0 0 0 0 0 0 0 0 0 0 0 0 0 0 0 0 0 0 0 0 0 0 0
1.74763 1.35753e-11 1.2792e-11 7.83217e-13 0.0576944 0.0221191 0 0 0 0 0 0 0 0 0 0 0 0 0 0 0 0 0 0 0 0 0 0 0 0 0 0 0 0 0 0 0 0 0 0 0 0 0 0 0 0 0 0
1.83733 1.3168e-11 1.2528e-11 6.40024e-13 0.0486044 0.0200189 0 0 0 0 0 0 0 0 0 0 0 0 0 0 0 0 0 0 0 0 0 0 0 0 0 0 0 0 0 0 0 0 0 0 0 0 0 0 0 0 0 0
1.93164 1.28678e-11 1.23449e-11 5.22831e-13 0.0406311 0.0181195 0 0 0 0 0 0 0 0 0 0 0 0 0 0 0 0 0 0 0 0 0 0 0 0 0 0 0 0 0 0 0 0 0 0 0 0 0 0 0 0 0 0
2.03079 1.26702e-11 1.22428e-11 4.27357e-13 0.0337294 0.0163991 0 0 0 0 0 0 0 0 0 0 0 0 0 0 0 0 0 0 0 0 0 0 0 0 0 0 0 0 0 0 0 0 0 0 0 0 0 0 0 0 0 0
2.13503 1.25508e-11 1.22012e-11 3.4968e-13 0.0278611 0.0148386 0 0 0 0 0 0 0 0 0 0 0 0 0 0 0 0 0 0 0 0 0 0 0 0 0 0 0 0 0 0 0 0 0 0 0 0 0 0 0 0 0 0
2.24463 1.24652e-11 1.21788e-11 2.86384e-13 0.0229747 0.0134238 0 0 0 0 0 0 0 0 0 0 0 0 0 0 0 0 0 0 0 0 0 0 0 0 0 0 0 0 0 0 0 0 0 0 0 0 0 0 0 0 0 0
2.35984 1.23987e-11 1.2164e-11 2.34696e-13 0.0189291 0.0121446 0 0 0 0 0 0 0 0 0 0 0 0 0 0 0 0 0 0 0 0 0 0 0 0 0 0 0 0 0 0 0 0 0 0 0 0 0 0 0 0 0 0
2.48097 1.23649e-11 1.21725e-11 1.92412e-13 0.0155611 0.0109846 0 0 0 0 0 0 0 0 0 0 0 0 0 0 0 0 0 0 0 0 0 0 0 0 0 0 0 0 0 0 0 0 0 0 0 0 0 0 0 0 0 0
2.60832 1.23629e-11 1.22051e-11 1.57854e-13 0.0127684 0.00993378 0 0 0 0 0 0 0 0 0 0 0 0 0 0 0 0 0 0 0 0 0 0 0 0 0 0 0 0 0 0 0 0 0 0 0 0 0 0 0 0 0 0
2.74221 1.2407e-11 1.22774e-11 1.29605e-13 0.0104461 0.00898227 0 0 0 0 0 0 0 0 0 0 0 0 0 0 0 0 0 0 0 0 0 0 0 0 0 0 0 0 0 0 0 0 0 0 0 0 0 0 0 0 0 0
2.88297 1.2497e-11 1.23904e-11 1.06589e-13 0.00852922 0.00812002 0 0 0 0 0 0 0 0 0 0 0 0 0 0 0 0 0 0 0 0 0 0 0 0 0 0 0 0 0 0 0 0 0 0 0 0 0 0 0 0 0 0
3.03095 1.26297e-11 1.25417e-11 8.80104e-14 0.00696853 0.00733981 0 0 0 0 0 0 0 0 0 0 0 0 0 0 0 0 0 0 0 0 0 0 0 0 0 0 0 0 0 0 0 0 0 0 0 0 0 0 0 0 0 0
3.18653 1.26515e-11 1.25786e-11 7.28433e-14 0.00575769 0.00663306 0 0 0 0 0 0 0 0 0 0 0 0 0 0 0 0 0 0 0 0 0 0 0 0 0 0 0 0 0 0 0 0 0 0 0 0 0 0 0 0 0 0
3.35009 1.29326e-11 1.2873e-11 5.95372e-14 0.00460367 0.00599255 0 0 0 0 0 0 0 0 0 0 0 0 0 0 0 0 0 0 0 0 0 0 0 0 0 0 0 0 0 0 0 0 0 0 0 0 0 0 0 0 0 0
3.52205 1.28653e-11 1.28135e-11 5.18119e-14 0.00402725 0.00541248 0 0 0 0 0 0 0 0 0 0 0 0 0 0 0 0 0 0 0 0 0 0 0 0 0 0 0 0 0 0 0 0 0 0 0 0 0 0 0 0 0 0
3.70284 1.19855e-11 1.19433e-11 4.21398e-14 0.0035159 0.00488763 0 0 0 0 0 0 0 0 0 0 0 0 0 0 0 0 0 0 0 0 0 0 0 0 0 0 0 0 0 0 0 0 0 0 0 0 0 0 0 0 0 0
3.89291 1.17191e-11 1.16846e-11 3.45214e-14 0.00294574 0.00441177 0 0 0 0 0 0 0 0 0 0 0 0 0 0 0 0 0 0 0 0 0 0 0 0 0 0 0 0 0 0 0 0 0 0 0 0 0 0 0 0 0 0
4.09273 1.15082e-11 1.14799e-11 2.83022e-14 0.0024593 0.00398008 0 0 0 0 0 0 0 0 0 0 0 0 0 0 0 0 0 0 0 0 0 0 0 0 0 0 0 0 0 0 0 0 0 0 0 0 0 0 0 0 0 0
4.30281 1.13526e-11 1.13293e-11 2.32129e-14 0.00204473 0.00358876 0 0 0 0 0 0 0 0 0 0 0 0 0 0 0 0 0 0 0 0 0 0 0 0 0 0 0 0 0 0 0 0 0 0 0 0 0 0 0 0 0 0
4.52368 1.12558e-11 1.12368e-11 1.90585e-14 0.00169321 0.00323453 0 0 0 0 0 0 0 0 0 0 0 0 0 0 0 0 0 0 0 0 0 0 0 0 0 0 0 0 0 0 0 0 0 0 0 0 0 0 0 0 0 0
4.75588 1.12044e-11 1.11887e-11 1.56746e-14 0.00139896 0.00291308 0 0 0 0 0 0 0 0 0 0 0 0 0 0 0 0 0 0 0 0 0 0 0 0 0 0 0 0 0 0 0 0 0 0 0 0 0 0 0 0 0 0
5 1.11641e-11 1.11512e-11 1.29182e-14 0.00115712 0.00262072 0 0 0 0 0 0 0 0 0 0 0 0 0 0 0 0 0 0 0 0 0 0 0 0 0 0 0 0 0 0 0 0 0 0 0 0 0 0 0 0 0 0
5.25665 1.11099e-11 1.10993e-11 1.06578e-14 0.000959304 0.00235498 0 0 0 0 0 0 0 0 0 0 0 0 0 0 0 0 0 0 0 0 0 0 0 0 0 0 0 0 0 0 0 0 0 0 0 0 0 0 0 0 0 0
5.52648 1.1042e-11 1.10332e-11 8.79298e-15 0.000796323 0.00211441 0 0 0 0 0 0 0 0 0 0 0 0 0 0 0 0 0 0 0 0 0 0 0 0 0 0 0 0 0 0 0 0 0 0 0 0 0 0 0 0 0 0
5.81015 1.09523e-11 1.0945e-11 7.24622e-15 0.000661619 0.00189507 0 0 0 0 0 0 0 0 0 0 0 0 0 0 0 0 0 0 0 0 0 0 0 0 0 0 0 0 0 0 0 0 0 0 0 0 0 0 0 0 1.4013e-45 0
6.10839 1.08529e-11 1.08469e-11 5.95923e-15 0.000549091 0.00169569 0 0 0 0 0 0 0 0 0 0 0 0 0 0 0 0 0 0 0 0 0 0 0 0 0 0 0 0 0 0 1.4013e-45 0 2.8026e-45 0 8.40779e-45 0 2.24208e-44 0 5.60519e-44 0 1.31722e-43 0
6.42193 1.0741e-11 1.07362e-11 4.88306e-15 0.000454617 0.00151376 0 0 0 0 0 0 0 0 0 0 0 0 0 0 0 0 0 0 0 0 0 0 0 0 2.8026e-45 0 1.12104e-44 0 3.92364e-44 0 1.26117e-43 0 3.5593e-43 0 9.62692e-43 0 2.42985e-42 0 5.75653e-42 0 1.28303e-41 0
6.75157 1.06592e-11 1.06552e-11 3.96975e-15 0.000372426 0.00134607 0 0 0 0 0 0 0 0 0 0 0 0 0 0 0 0 0 0 2.8026e-45 0 1.68156e-44 0 8.12753e-44 0 3.41917e-43 0 1.23875e-42 0 4.03994e-42 0 1.22151e-41 0 3.28044e-41 0 8.43624e-41 0 2.03571e-40 0 4.62344e-40 0 9.91092e-40 0
7.09813 1.04829e-11 1.04797e-11 3.22543e-15 0.000307685 0.00118815 0 0 0 0 0 0 0 0 0 0 0 0 0 0 5.60519e-45 0 4.62428e-44 0 3.16693e-43 0 1.75863e-42 0 7.90613e-42 0 3.07893e-41 0 1.04928e-40 0 3.23128e-40 0 9.25527e-40 0 2.36856e-39 0 5.81677e-39 0 1.34453e-38 0 2.93376e-38 0 6.05906e-38 0
7.46248 1.03378e-11 1.03353e-11 2.55596e-15 0.000247243 0.00103445 0 0 0 0 0 0 0 0 0 0 1.4013e-45 0 4.34403e-44 0 5.395e-43 0 4.60186e-42 0 2.84239e-41 0 1.44945e-40 0 6.05655e-40 0 2.20719e-39 0 7.0848e-39 0 2.06519e-38 0 5.61902e-38 0 1.37351e-37 0 3.22832e-37 0 7.16305e-37 0 1.50456e-36 0 2.99924e-36 0
7.84553 1.01879e-11 1.01859e-11 1.93427e-15 0.00018986 0.000887827 0 0 0 0 0 0 0 0 5.60519e-45 0 2.25609e-43 0 4.17867e-42 0 4.65105e-41 0 3.57052e-40 0 2.01799e-39 0 9.5037e-39 0 3.70335e-38 0 1.26704e-37 0 3.84191e-37 0 1.06291e-36 0 2.75405e-36 0 6.4445e-36 0 1.45283e-35 0 3.10054e-35 0 6.28074e-35 0 1.21056e-34 0
8.24824 1.13488e-11 1.13474e-11 1.42272e-15 0.000125363 0.000763225 0 0 0 0 0 0 5.60519e-45 0 6.62814e-43 0 2.25679e-41 0 3.63484e-40 0 3.597e-39 0 2.4998e-38 0 1.29828e-37 0 5.66871e-37 0 2.06703e-36 0 6.65977e-36 0 1.91292e-35 0 5.03577e-35 0 1.24553e-34 0 2.79605e-34 0 6.05808e-34 0 1.2459e-33 0 2.43831e-33 0 4.55145e-33 0
8.67162 1.37775e-11 1.37762e-11 1.23349e-15 8.95297e-05 0.000664253 0 0 0 0 1.4013e-45 0 7.32879e-43 0 6.82222e-41 0 1.95676e-39 0 2.75171e-38 0 2.43476e-37 0 1.53926e-36 0 7.37637e-36 0 2.99714e-35 0 1.02597e-34 0 3.12205e-34 0 8.51734e-34 0 2.1387e-33 0 5.061e-33 0 1.09215e-32 0 2.27864e-32 0 4.52413e-32 0 8.56848e-32 0 1.55142e-31 0
9.11674 1.89059e-11 1.89044e-11 1.46719e-15 7.76048e-05 0.000566704 0 0 0 0 1.31722e-43 0 8.46749e-41 0 6.31714e-39 0 1.53803e-37 0 1.90097e-36 0 1.51217e-35 0 8.73685e-35 0 3.87846e-34 0 1.47162e-33 0 4.74386e-33 0 1.36722e-32 0 3.55159e-32 0 8.52603e-32 0 1.9345e-31 0 4.02073e-31 0 8.09292e-31 0 1.55389e-30 0 2.85264e-30 0 5.01749e-30 0
9.5847 2.30529e-11 2.30509e-11 2.03578e-15 8.83088e-05 0.000506995 0 0 0 0 1.48033e-41 0 6.9161e-39 0 4.18017e-37 0 8.70855e-36 0 9.52008e-35 0 6.84372e-34 0 3.62957e-33 0 1.49815e-32 0 5.32619e-32 0 1.62156e-31 0 4.4381e-31 0 1.10037e-30 0 2.53101e-30 0 5.51751e-30 0 1.10653e-29 0 2.15245e-29 0 4.00328e-29 0 7.13447e-29 0 1.22075e-28 0
10.0767 2.23257e-11 2.23234e-11 2.24092e-15 0.000100374 0.000481284 0 0 1.82169e-44 0 1.04304e-39 0 3.6096e-37 0 1.78574e-35 0 3.20763e-34 0 3.12008e-33 0 2.03701e-32 0 9.95818e-32 0 3.83548e-31 0 1.2817e-30 0 3.69568e-30 0 9.62961e-30 0 2.284e-29 0 5.04416e-29 0 1.05856e-28 0 2.05202e-28 0 3.86403e-28 0 6.97215e-28 0 1.20798e-27 0 2.01343e-27 0
10.5939 1.90126e-11 1.90107e-11 1.98969e-15 0.000104651 0.000473196 0 0 1.5078e-42 0 5.17827e-38 0 1.34701e-35 0 5.50815e-34 0 8.59267e-33 0 7.4795e-32 0 4.4557e-31 0 2.01583e-30 0 7.26943e-30 0 2.29026e-29 0 6.27103e-29 0 1.55936e-28 0 3.54586e-28 0 7.5338e-28 0 1.52483e-27 0 2.86189e-27 0 5.22507e-27 0 9.16017e-27 0 1.54505e-26 0 2.5118e-26 0
11.1377 1.58855e-11 1.58838e-11 1.67235e-15 0.000105275 0.000484605 1.4013e-45 0 9.90928e-41 0 2.04304e-36 0 4.05083e-34 0 1.38195e-32 0 1.88522e-31 0 1.47647e-30 0 8.0617e-30 0 3.38812e-29 0 1.14765e-28 0 3.41868e-28 0 8.91159e-28 0 2.11957e-27 0 4.63024e-27 0 9.48235e-27 0 1.85427e-26 0 3.37485e-26 0 5.98315e-26 0 1.02056e-25 0 1.678e-25 0 2.66398e-25 0
11.7094 1.27554e-11 1.27541e-11 1.30755e-15 0.000102509 0.000487554 1.16308e-43 0 4.99424e-39 0 6.33963e-35 0 9.70888e-33 0 2.78787e-31 0 3.3476e-30 0 2.37112e-29 0 1.19169e-28 0 4.66931e-28 0 1.49016e-27 0 4.20859e-27 0 1.04693e-26 0 2.38693e-26 0 5.0191e-26 0 9.92519e-26 0 1.87835e-25 0 3.32016e-25 0 5.72391e-25 0 9.51213e-25 0 1.52647e-24 0 2.36933e-24 0
12.3105 1.02443e-11 1.02434e-11 9.74239e-16 9.51002e-05 0.000485023 7.9902e-42 0 2.03194e-37 0 1.62612e-33 0 1.94792e-31 0 4.74771e-30 0 5.04942e-29 0 3.2505e-28 0 1.50982e-27 0 5.53422e-27 0 1.6689e-26 0 4.48043e-26 0 1.06605e-25 0 2.33465e-25 0 4.73423e-25 0 9.05535e-25 0 1.66118e-24 0 2.85576e-24 0 4.79409e-24 0 7.7718e-24 0 1.21872e-23 0 1.85148e-23 0
