# 2.6607e-05 0 115 : grain size, compostion index, size index
# Heating and cooling timescale: 0.00279624 671426
# Ratio of heating to cooling to determine stochastic cutoff: 100
# Equilibrium emission is recorded even for those grains in the stochastic regime.
# Emission spectrum was computed for: 
# Type: IRSF
# Scales: 0.25 0.5 1 1.5 2 2.5 3 3.5 4 4.5 5 5.5 6 6.5 7 7.5 8 8.5 9 9.5 10
# StochasticallyHeated: 0 0 0 0 0 0 0 0 0 0 0 0 0 0 0 0 0 0 0 0 0
# Temperature: -1
# Wavelength  CExt  CAbs  CSca  Albedo G EqEm1 StEm1 EqEm2 StEm2 EqEm3 StEm3 EqEm4 StEm4 EqEm5 StEm5 EqEm6 StEm6 EqEm7 StEm7 EqEm8 StEm8 EqEm9 StEm9 EqEm10 StEm10 EqEm11 StEm11 EqEm12 StEm12 EqEm13 StEm13 EqEm14 StEm14 EqEm15 StEm15 EqEm16 StEm16 EqEm17 StEm17 EqEm18 StEm18 EqEm19 StEm19 EqEm20 StEm20 EqEm21 StEm21
0.05 1.2935e-09 5.197e-10 7.73797e-10 0.598221 0.00576547 0 0 0 0 0 0 0 0 0 0 0 0 0 0 0 0 0 0 0 0 0 0 0 0 0 0 0 0 0 0 0 0 0 0 0 0 0 0 0 0 0 0
0.0525665 1.4297e-09 5.74422e-10 8.55275e-10 0.598221 0.00637255 0 0 0 0 0 0 0 0 0 0 0 0 0 0 0 0 0 0 0 0 0 0 0 0 0 0 0 0 0 0 0 0 0 0 0 0 0 0 0 0 0 0
0.0552647 1.58024e-09 6.34905e-10 9.45331e-10 0.598221 0.00704355 0 0 0 0 0 0 0 0 0 0 0 0 0 0 0 0 0 0 0 0 0 0 0 0 0 0 0 0 0 0 0 0 0 0 0 0 0 0 0 0 0 0
0.0581015 1.74663e-09 7.01758e-10 1.04487e-09 0.598221 0.0077852 0 0 0 0 0 0 0 0 0 0 0 0 0 0 0 0 0 0 0 0 0 0 0 0 0 0 0 0 0 0 0 0 0 0 0 0 0 0 0 0 0 0
0.0610839 1.93054e-09 7.75649e-10 1.15489e-09 0.598221 0.00860494 0 0 0 0 0 0 0 0 0 0 0 0 0 0 0 0 0 0 0 0 0 0 0 0 0 0 0 0 0 0 0 0 0 0 0 0 0 0 0 0 0 0
0.0642193 2.13381e-09 8.57321e-10 1.27649e-09 0.598221 0.009511 0 0 0 0 0 0 0 0 0 0 0 0 0 0 0 0 0 0 0 0 0 0 0 0 0 0 0 0 0 0 0 0 0 0 0 0 0 0 0 0 0 0
0.0675157 2.3585e-09 9.47593e-10 1.4109e-09 0.598221 0.0105125 0 0 0 0 0 0 0 0 0 0 0 0 0 0 0 0 0 0 0 0 0 0 0 0 0 0 0 0 0 0 0 0 0 0 0 0 0 0 0 0 0 0
0.0709813 2.60683e-09 1.04737e-09 1.55946e-09 0.598221 0.0116194 0 0 0 0 0 0 0 0 0 0 0 0 0 0 0 0 0 0 0 0 0 0 0 0 0 0 0 0 0 0 0 0 0 0 0 0 0 0 0 0 0 0
0.0746248 2.88132e-09 1.15765e-09 1.72367e-09 0.598221 0.0128428 0 0 0 0 0 0 0 0 0 0 0 0 0 0 0 0 0 0 0 0 0 0 0 0 0 0 0 0 0 0 0 0 0 0 0 0 0 0 0 0 0 0
0.0784553 3.18471e-09 1.27955e-09 1.90516e-09 0.598221 0.0141951 0 0 0 0 0 0 0 0 0 0 0 0 0 0 0 0 0 0 0 0 0 0 0 0 0 0 0 0 0 0 0 0 0 0 0 0 0 0 0 0 0 0
0.0824824 3.52004e-09 1.41428e-09 2.10576e-09 0.598221 0.0156898 0 0 0 0 0 0 0 0 0 0 0 0 0 0 0 0 0 0 0 0 0 0 0 0 0 0 0 0 0 0 0 0 0 0 0 0 0 0 0 0 0 0
0.0867162 3.89069e-09 1.5632e-09 2.32749e-09 0.598221 0.0173419 0 0 0 0 0 0 0 0 0 0 0 0 0 0 0 0 0 0 0 0 0 0 0 0 0 0 0 0 0 0 0 0 0 0 0 0 0 0 0 0 0 0
0.0911674 4.30036e-09 1.72779e-09 2.57257e-09 0.598221 0.0191679 0 0 0 0 0 0 0 0 0 0 0 0 0 0 0 0 0 0 0 0 0 0 0 0 0 0 0 0 0 0 0 0 0 0 0 0 0 0 0 0 0 0
0.095847 4.75317e-09 1.90972e-09 2.84344e-09 0.598221 0.0211862 0 0 0 0 0 0 0 0 0 0 0 0 0 0 0 0 0 0 0 0 0 0 0 0 0 0 0 0 0 0 0 0 0 0 0 0 0 0 0 0 0 0
0.100767 5.17013e-09 2.09275e-09 3.07738e-09 0.595223 0.0235692 0 0 0 0 0 0 0 0 0 0 0 0 0 0 0 0 0 0 0 0 0 0 0 0 0 0 0 0 0 0 0 0 0 0 0 0 0 0 0 0 0 0
0.105939 5.1593e-09 2.17793e-09 2.98137e-09 0.577863 0.0256046 0 0 0 0 0 0 0 0 0 0 0 0 0 0 0 0 0 0 0 0 0 0 0 0 0 0 0 0 0 0 0 0 0 0 0 0 0 0 0 0 0 0
0.111377 5.16959e-09 2.20597e-09 2.96362e-09 0.573279 0.0289403 0 0 0 0 0 0 0 0 0 0 0 0 0 0 0 0 0 0 0 0 0 0 0 0 0 0 0 0 0 0 0 0 0 0 0 0 0 0 0 0 0 0
0.117094 5.16519e-09 2.28148e-09 2.88371e-09 0.558297 0.0274507 0 0 0 0 0 0 0 0 0 0 0 0 0 0 0 0 0 0 0 0 0 0 0 0 0 0 0 0 0 0 0 0 0 0 0 0 0 0 0 0 0 0
0.123105 5.17887e-09 2.38008e-09 2.79879e-09 0.540424 0.0236555 0 0 0 0 0 0 0 0 0 0 0 0 0 0 0 0 0 0 0 0 0 0 0 0 0 0 0 0 0 0 0 0 0 0 0 0 0 0 0 0 0 0
0.129424 5.20043e-09 2.46426e-09 2.73617e-09 0.526143 0.0199126 0 0 0 0 0 0 0 0 0 0 0 0 0 0 0 0 0 0 0 0 0 0 0 0 0 0 0 0 0 0 0 0 0 0 0 0 0 0 0 0 0 0
0.136067 5.22256e-09 2.53613e-09 2.68642e-09 0.514388 0.0168557 0 0 0 0 0 0 0 0 0 0 0 0 0 0 0 0 0 0 0 0 0 0 0 0 0 0 0 0 0 0 0 0 0 0 0 0 0 0 0 0 0 0
0.143051 5.23398e-09 2.59735e-09 2.63663e-09 0.503752 0.0143876 0 0 0 0 0 0 0 0 0 0 0 0 0 0 0 0 0 0 0 0 0 0 0 0 0 0 0 0 0 0 0 0 0 0 0 0 0 0 0 0 0 0
0.150394 5.23563e-09 2.64506e-09 2.59058e-09 0.494797 0.0122986 0 0 0 0 0 0 0 0 0 0 0 0 0 0 0 0 0 0 0 0 0 0 0 0 0 0 0 0 0 0 0 0 0 0 0 0 0 0 0 0 0 0
0.158114 5.19403e-09 2.65955e-09 2.53449e-09 0.487961 0.01055 0 0 0 0 0 0 0 0 0 0 0 0 0 0 0 0 0 0 0 0 0 0 0 0 0 0 0 0 0 0 0 0 0 0 0 0 0 0 0 0 0 0
0.16623 5.11371e-09 2.6301e-09 2.48361e-09 0.485676 0.00908216 0 0 0 0 0 0 0 0 0 0 0 0 0 0 0 0 0 0 0 0 0 0 0 0 0 0 0 0 0 0 0 0 0 0 0 0 0 0 0 0 0 0
0.174762 5.02461e-09 2.57081e-09 2.4538e-09 0.488356 0.00782097 0 0 0 0 0 0 0 0 0 0 0 0 0 0 0 0 0 0 0 0 0 0 0 0 0 0 0 0 0 0 0 0 0 0 0 0 0 0 0 0 0 0
0.183733 5.00767e-09 2.48931e-09 2.51835e-09 0.502899 0.00667218 0 0 0 0 0 0 0 0 0 0 0 0 0 0 0 0 0 0 0 0 0 0 0 0 0 0 0 0 0 0 0 0 0 0 0 0 0 0 0 0 0 0
0.193164 5.11551e-09 2.39306e-09 2.72245e-09 0.532196 0.00556038 0 0 0 0 0 0 0 0 0 0 0 0 0 0 0 0 0 0 0 0 0 0 0 0 0 0 0 0 0 0 0 0 0 0 0 0 0 0 0 0 0 0
0.203079 5.31533e-09 2.30873e-09 3.00661e-09 0.565648 0.00446034 0 0 0 0 0 0 0 0 0 0 0 0 0 0 0 0 0 0 0 0 0 0 0 0 0 0 0 0 0 0 0 0 0 0 0 0 0 0 0 0 0 0
0.213503 5.5542e-09 2.26363e-09 3.29057e-09 0.592447 0.00342932 0 0 0 0 0 0 0 0 0 0 0 0 0 0 0 0 0 0 0 0 0 0 0 0 0 0 0 0 0 0 0 0 0 0 0 0 0 0 0 0 0 0
0.224463 5.77969e-09 2.25764e-09 3.52205e-09 0.609383 0.00254317 0 0 0 0 0 0 0 0 0 0 0 0 0 0 0 0 0 0 0 0 0 0 0 0 0 0 0 0 0 0 0 0 0 0 0 0 0 0 0 0 0 0
0.235984 5.93216e-09 2.2597e-09 3.67247e-09 0.619077 0.00182186 0 0 0 0 0 0 0 0 0 0 0 0 0 0 0 0 0 0 0 0 0 0 0 0 0 0 0 0 0 0 0 0 0 0 0 0 0 0 0 0 0 0
0.248097 5.98243e-09 2.25007e-09 3.73236e-09 0.623887 0.00138916 0 0 0 0 0 0 0 0 0 0 0 0 0 0 0 0 0 0 0 0 0 0 0 0 0 0 0 0 0 0 0 0 0 0 0 0 0 0 0 0 0 0
0.260832 5.94352e-09 2.24326e-09 3.70026e-09 0.622571 0.00141961 0 0 0 0 0 0 0 0 0 0 0 0 0 0 0 0 0 0 0 0 0 0 0 0 0 0 0 0 0 0 0 0 0 0 0 0 0 0 0 0 0 0
0.274221 5.86218e-09 2.26977e-09 3.59241e-09 0.612812 0.00187131 0 0 0 0 0 0 0 0 0 0 0 0 0 0 0 0 0 0 0 0 0 0 0 0 0 0 0 0 0 0 0 0 0 0 0 0 0 0 0 0 0 0
0.288297 5.79681e-09 2.34248e-09 3.45433e-09 0.595902 0.00251556 0 0 0 0 0 0 0 0 0 0 0 0 0 0 0 0 0 0 0 0 0 0 0 0 0 0 0 0 0 0 0 0 0 0 0 0 0 0 0 0 0 0
0.303095 5.77599e-09 2.44416e-09 3.33184e-09 0.576842 0.0028362 0 0 0 0 0 0 0 0 0 0 0 0 0 0 0 0 0 0 0 0 0 0 0 0 0 0 0 0 0 0 0 0 0 0 0 0 0 0 0 0 0 0
0.318653 5.78775e-09 2.54527e-09 3.24248e-09 0.560232 0.00297223 0 0 0 0 0 0 0 0 0 0 0 0 0 0 0 0 0 0 0 0 0 0 0 0 0 0 0 0 0 0 0 0 0 0 0 0 0 0 0 0 0 0
0.335009 5.81792e-09 2.63302e-09 3.1849e-09 0.547429 0.00293231 0 0 0 0 0 0 0 0 0 0 0 0 0 0 0 0 0 0 0 0 0 0 0 0 0 0 0 0 0 0 0 0 0 0 0 0 0 0 0 0 0 0
0.352205 5.85777e-09 2.70629e-09 3.15148e-09 0.538 0.00278811 0 0 0 0 0 0 0 0 0 0 0 0 0 0 0 0 0 0 0 0 0 0 0 0 0 0 0 0 0 0 0 0 0 0 0 0 0 0 0 0 0 0
0.370284 5.90062e-09 2.76532e-09 3.13529e-09 0.53135 0.00261033 0 0 0 0 0 0 0 0 0 0 0 0 0 0 0 0 0 0 0 0 0 0 0 0 0 0 0 0 0 0 0 0 0 0 0 0 0 0 0 0 0 0
0.389291 5.94279e-09 2.81115e-09 3.13164e-09 0.526965 0.00243645 0 0 0 0 0 0 0 0 0 0 0 0 0 0 0 0 0 0 0 0 0 0 0 0 0 0 0 0 0 0 0 0 0 0 0 0 0 0 0 0 0 0
0.409273 5.98565e-09 2.849e-09 3.13665e-09 0.524029 0.00226652 0 0 0 0 0 0 0 0 0 0 0 0 0 0 0 0 0 0 0 0 0 0 0 0 0 0 0 0 0 0 0 0 0 0 0 0 0 0 0 0 0 0
0.430281 6.03113e-09 2.88547e-09 3.14566e-09 0.521571 0.00210471 0 0 0 0 0 0 0 0 0 0 0 0 0 0 0 0 0 0 0 0 0 0 0 0 0 0 0 0 0 0 0 0 0 0 0 0 0 0 0 0 0 0
0.452368 6.07708e-09 2.92324e-09 3.15384e-09 0.518974 0.00193723 0 0 0 0 0 0 0 0 0 0 0 0 0 0 0 0 0 0 0 0 0 0 0 0 0 0 0 0 0 0 0 0 0 0 0 0 0 0 0 0 0 0
0.475588 6.11948e-09 2.9601e-09 3.15938e-09 0.516282 0.00177642 0 0 0 0 0 0 0 0 0 0 0 0 0 0 0 0 0 0 0 0 0 0 0 0 0 0 0 0 0 0 0 0 0 0 0 0 0 0 0 0 0 0
0.5 6.15803e-09 2.99444e-09 3.16359e-09 0.513733 0.00162159 0 0 0 0 0 0 0 0 0 0 0 0 0 0 0 0 0 0 0 0 0 0 0 0 0 0 0 0 0 0 0 0 0 0 0 0 0 0 0 0 0 0
0.525665 6.19893e-09 3.03e-09 3.16893e-09 0.511206 0.0014751 0 0 0 0 0 0 0 0 0 0 0 0 0 0 0 0 0 0 0 0 0 0 0 0 0 0 0 0 0 0 0 0 0 0 0 0 0 0 0 0 0 0
0.552648 6.24692e-09 3.07135e-09 3.17557e-09 0.508341 0.00134175 0 0 0 0 0 0 0 0 0 0 0 0 0 0 0 0 0 0 0 0 0 0 0 0 0 0 0 0 0 0 0 0 0 0 0 0 0 0 0 0 0 0
0.581015 6.30074e-09 3.11942e-09 3.18132e-09 0.504912 0.00121775 0 0 0 0 0 0 0 0 0 0 0 0 0 0 0 0 0 0 0 0 0 0 0 0 0 0 0 0 0 0 0 0 0 0 0 0 0 0 0 0 0 0
0.610839 6.35261e-09 3.16836e-09 3.18425e-09 0.50125 0.00110516 0 0 0 0 0 0 0 0 0 0 0 0 0 0 0 0 0 0 0 0 0 0 0 0 0 0 0 0 0 0 0 0 0 0 0 0 0 0 0 0 0 0
0.642193 6.39484e-09 3.20952e-09 3.18532e-09 0.498108 0.00100302 0 0 0 0 0 0 0 0 0 0 0 0 0 0 0 0 0 0 0 0 0 0 0 0 0 0 0 0 0 0 0 0 0 0 0 0 0 0 0 0 0 0
0.675157 6.42827e-09 3.23858e-09 3.18969e-09 0.496198 0.000910957 0 0 0 0 0 0 0 0 0 0 0 0 0 0 0 0 0 0 0 0 0 0 0 0 0 0 0 0 0 0 0 0 0 0 0 0 0 0 0 0 0 0
0.709813 6.46477e-09 3.26091e-09 3.20386e-09 0.495588 0.00082817 0 0 0 0 0 0 0 0 0 0 0 0 0 0 0 0 0 0 0 0 0 0 0 0 0 0 0 0 0 0 0 0 0 0 0 0 0 0 0 0 0 0
0.746248 6.51939e-09 3.28765e-09 3.23173e-09 0.495711 0.000754183 0 0 0 0 0 0 0 0 0 0 0 0 0 0 0 0 0 0 0 0 0 0 0 0 0 0 0 0 0 0 0 0 0 0 0 0 0 0 0 0 0 0
0.784553 6.59652e-09 3.32687e-09 3.26965e-09 0.495663 0.000686995 0 0 0 0 0 0 0 0 0 0 0 0 0 0 0 0 0 0 0 0 0 0 0 0 0 0 0 0 0 0 0 0 0 0 0 0 0 0 0 0 0 0
0.824824 6.6857e-09 3.37781e-09 3.30789e-09 0.494771 0.000626788 0 0 0 0 0 0 0 0 0 0 0 0 0 0 0 0 0 0 0 0 0 0 0 0 0 0 0 0 0 0 0 0 0 0 0 0 0 0 0 0 0 0
0.867162 6.76667e-09 3.43077e-09 3.3359e-09 0.49299 0.000572518 0 0 0 0 0 0 0 0 0 0 0 0 0 0 0 0 0 0 0 0 0 0 0 0 0 0 0 0 0 0 0 0 0 0 0 0 0 0 0 0 0 0
0.911674 6.81892e-09 3.47171e-09 3.34721e-09 0.490871 0.000523427 0 0 0 0 0 0 0 0 0 0 0 0 0 0 0 0 0 0 0 0 0 0 0 0 0 0 0 0 0 0 0 0 0 0 0 0 0 0 0 0 0 0
0.95847 6.83283e-09 3.48961e-09 3.34322e-09 0.489288 0.00047944 0 0 0 0 0 0 0 0 0 0 0 0 0 0 0 0 0 0 0 0 0 0 0 0 0 0 0 0 0 0 0 0 0 0 0 0 0 0 0 0 0 0
1.00767 6.81622e-09 3.4822e-09 3.33401e-09 0.489129 0.0004395 0 0 0 0 0 0 0 0 0 0 0 0 0 0 0 0 0 0 0 0 0 0 0 0 0 0 0 0 0 0 0 0 0 0 0 0 0 0 0 0 0 0
1.05939 6.79102e-09 3.45739e-09 3.33363e-09 0.490888 0.000403275 0 0 0 0 0 0 0 0 0 0 0 0 0 0 0 0 0 0 0 0 0 0 0 0 0 0 0 0 0 0 0 0 0 0 0 0 0 0 0 0 0 0
1.11377 6.7843e-09 3.42943e-09 3.35487e-09 0.494505 0.000370298 0 0 0 0 0 0 0 0 0 0 0 0 0 0 0 0 0 0 0 0 0 0 0 0 0 0 0 0 0 0 0 0 0 0 0 0 0 0 0 0 0 0
1.17094 6.81576e-09 3.41293e-09 3.40283e-09 0.499259 0.000339515 0 0 0 0 0 0 0 0 0 0 0 0 0 0 0 0 0 0 0 0 0 0 0 0 0 0 0 0 0 0 0 0 0 0 0 0 0 0 0 0 0 0
1.23105 6.89381e-09 3.41787e-09 3.47595e-09 0.504212 0.000311294 0 0 0 0 0 0 0 0 0 0 0 0 0 0 0 0 0 0 0 0 0 0 0 0 0 0 0 0 0 0 0 0 0 0 0 0 0 0 0 0 0 0
1.29424 7.01338e-09 3.4482e-09 3.56518e-09 0.50834 0.000285362 0 0 0 0 0 0 0 0 0 0 0 0 0 0 0 0 0 0 0 0 0 0 0 0 0 0 0 0 0 0 0 0 0 0 0 0 0 0 0 0 0 0
1.36067 7.15895e-09 3.5017e-09 3.65725e-09 0.510864 0.000261742 0 0 0 0 0 0 0 0 0 0 0 0 0 0 0 0 0 0 0 0 0 0 0 0 0 0 0 0 0 0 0 0 0 0 0 0 0 0 0 0 0 0
1.43051 7.30711e-09 3.57173e-09 3.73537e-09 0.511197 0.000240209 0 0 0 0 0 0 0 0 0 0 0 0 0 0 0 0 0 0 0 0 0 0 0 0 0 0 0 0 0 0 0 0 0 0 0 0 0 0 0 0 0 0
1.50394 7.42813e-09 3.64717e-09 3.78096e-09 0.509005 0.000220279 0 0 0 0 0 0 0 0 0 0 0 0 0 0 0 0 0 0 0 0 0 0 0 0 0 0 0 0 0 0 0 0 0 0 0 0 0 0 0 0 0 0
1.58114 7.49117e-09 3.71502e-09 3.77614e-09 0.504079 0.000201732 0 0 0 0 0 0 0 0 0 0 0 0 0 0 0 0 0 0 0 0 0 0 0 0 0 0 0 0 0 0 0 0 0 0 0 0 0 0 0 0 0 0
1.6623 7.46542e-09 3.76086e-09 3.70455e-09 0.496229 0.000184534 0 0 0 0 0 0 0 0 0 0 0 0 0 0 0 0 0 0 0 0 0 0 0 0 0 0 0 0 0 0 0 0 0 0 0 0 0 0 0 0 0 0
1.74763 7.33114e-09 3.7725e-09 3.55864e-09 0.485414 0.000169005 0 0 0 0 0 0 0 0 0 0 0 0 0 0 0 0 0 0 0 0 0 0 0 0 0 0 0 0 0 0 0 0 0 0 0 0 0 0 0 0 0 0
1.83733 7.07835e-09 3.74066e-09 3.33769e-09 0.471535 0.000154804 0 0 0 0 0 0 0 0 0 0 0 0 0 0 0 0 0 0 0 0 0 0 0 0 0 0 0 0 0 0 0 0 0 0 0 0 0 0 0 0 0 0
1.93164 6.7156e-09 3.66236e-09 3.05324e-09 0.454649 0.000141793 0 0 0 0 0 0 0 0 0 0 0 0 0 0 0 0 0 0 0 0 0 0 0 0 0 0 0 0 0 0 0 0 0 0 0 0 0 0 0 0 0 0
2.03079 6.26625e-09 3.54079e-09 2.72546e-09 0.434942 0.000129725 0 0 0 0 0 0 0 0 0 0 0 0 0 0 0 0 0 0 0 0 0 0 0 0 0 0 0 0 0 0 0 0 0 0 0 0 0 0 0 0 0 0
2.13503 5.75981e-09 3.38248e-09 2.37733e-09 0.412744 0.000118657 0 0 0 0 0 0 0 0 0 0 0 0 0 0 0 0 0 0 0 0 0 0 0 0 0 0 0 0 0 0 0 0 0 0 0 0 0 0 0 0 0 0
2.24463 5.22942e-09 3.19707e-09 2.03236e-09 0.388639 0.000108569 0 0 0 0 0 0 0 0 0 0 0 0 0 0 0 0 0 0 0 0 0 0 0 0 0 0 0 0 0 0 0 0 0 0 0 0 0 0 0 0 0 0
2.35984 4.70112e-09 2.99305e-09 1.70806e-09 0.363332 9.92926e-05 0 0 0 0 0 0 0 0 0 0 0 0 0 0 0 0 0 0 0 0 0 0 0 0 0 0 0 0 0 0 0 0 0 0 0 0 0 0 0 0 0 0
2.48097 4.19342e-09 2.7776e-09 1.41582e-09 0.337629 9.07218e-05 0 0 0 0 0 0 0 0 0 0 0 0 0 0 0 0 0 0 0 0 0 0 0 0 0 0 0 0 0 0 0 0 0 0 0 0 0 0 0 0 0 0
2.60832 3.71737e-09 2.55613e-09 1.16125e-09 0.312384 8.27967e-05 0 0 0 0 0 0 0 0 0 0 0 0 0 0 0 0 0 0 0 0 0 0 0 0 0 0 0 0 0 0 0 0 0 0 0 0 0 0 0 0 0 0
2.74221 3.27736e-09 2.33245e-09 9.44908e-10 0.288314 7.55862e-05 0 0 0 0 0 0 0 0 0 0 0 0 0 0 0 0 0 0 0 0 0 0 0 0 0 0 0 0 0 0 0 0 0 0 0 0 0 0 0 0 0 0
2.88297 2.87433e-09 2.11005e-09 7.64281e-10 0.265899 6.90729e-05 0 0 0 0 0 0 0 0 0 0 0 0 0 0 0 0 0 0 0 0 0 0 0 0 0 0 0 0 0 0 0 0 0 0 0 0 0 0 0 0 0 0
3.03095 2.50873e-09 1.8928e-09 6.15925e-10 0.245513 6.31538e-05 0 0 0 0 0 0 0 0 0 0 0 0 0 0 0 0 0 0 0 0 0 0 0 0 0 0 0 0 0 0 0 0 0 0 0 0 0 0 0 0 0 0
3.18653 2.17862e-09 1.68357e-09 4.95047e-10 0.22723 5.76567e-05 0 0 0 0 0 0 0 0 0 0 0 0 0 0 0 0 0 0 0 0 0 0 0 0 0 0 0 0 0 0 0 0 0 0 0 0 0 0 0 0 0 0
3.35009 1.88341e-09 1.48605e-09 3.97367e-10 0.210982 5.2603e-05 0 0 0 0 0 0 0 0 0 0 0 0 0 0 0 0 0 0 0 0 0 0 0 0 0 0 0 0 0 0 0 0 0 0 0 0 0 0 0 0 0 0
3.52205 1.62157e-09 1.30273e-09 3.18833e-10 0.196621 4.80102e-05 0 0 0 0 0 0 0 0 0 0 0 0 0 0 0 0 0 0 0 0 0 0 0 0 0 0 0 0 0 0 0 0 0 0 0 0 0 0 0 0 0 0
3.70284 1.39141e-09 1.13554e-09 2.5587e-10 0.183893 4.38066e-05 0 0 0 0 0 0 0 0 0 0 0 0 0 0 0 0 0 0 0 0 0 0 0 0 0 0 0 0 0 0 0 0 0 0 0 0 0 0 0 0 0 0
3.89291 1.19088e-09 9.85401e-10 2.0548e-10 0.172544 3.9926e-05 0 0 0 0 0 0 0 0 0 0 0 0 0 0 0 0 0 0 0 0 0 0 0 0 0 0 0 0 0 0 0 0 0 0 0 0 0 0 0 0 0 0
4.09273 1.01762e-09 8.52436e-10 1.65181e-10 0.162321 3.62643e-05 0 0 0 0 0 0 0 0 0 0 0 0 0 0 0 0 0 0 0 0 0 0 0 0 0 0 0 0 0 0 0 0 0 0 0 0 0 0 0 0 0 0
4.30281 8.68974e-10 7.36023e-10 1.32951e-10 0.152998 3.29535e-05 0 0 0 0 0 0 0 0 0 0 0 0 0 0 0 0 0 0 0 0 0 0 0 0 0 0 0 0 0 0 0 0 0 0 0 0 0 0 0 0 0 0
4.52368 7.42185e-10 6.3503e-10 1.07156e-10 0.144378 2.99416e-05 0 0 0 0 0 0 0 0 0 0 0 0 0 0 0 0 0 0 0 0 0 0 0 0 0 0 0 0 0 0 0 0 0 0 0 0 0 0 0 0 0 0
4.75588 6.34533e-10 5.48049e-10 8.64847e-11 0.136296 2.71796e-05 0 0 0 0 0 0 0 0 0 0 0 0 0 0 0 0 0 0 0 0 0 0 0 0 0 0 0 0 0 0 0 0 0 0 1.4013e-45 0 5.60519e-45 0 1.54143e-44 0 4.48416e-44 0
5 5.43304e-10 4.73423e-10 6.98817e-11 0.128623 2.45398e-05 0 0 0 0 0 0 0 0 0 0 0 0 0 0 0 0 0 0 0 0 0 0 0 0 0 0 1.4013e-45 0 5.60519e-45 0 2.24208e-44 0 7.70714e-44 0 2.42425e-43 0 7.21669e-43 0 1.938e-42 0 5.10353e-42 0
5.25665 4.66266e-10 4.09726e-10 5.65399e-11 0.121261 2.21678e-05 0 0 0 0 0 0 0 0 0 0 0 0 0 0 0 0 0 0 0 0 1.4013e-45 0 8.40779e-45 0 4.2039e-44 0 1.84971e-43 0 7.553e-43 0 2.61202e-42 0 8.58716e-42 0 2.53257e-41 0 7.15447e-41 0 1.83035e-40 0 4.5992e-40 0
5.52648 4.01241e-10 3.55443e-10 4.57977e-11 0.11414 2.00489e-05 0 0 0 0 0 0 0 0 0 0 0 0 0 0 0 0 2.8026e-45 0 2.24208e-44 0 1.66755e-43 0 9.51482e-43 0 4.67894e-42 0 1.93085e-41 0 7.34715e-41 0 2.39109e-40 0 7.41675e-40 0 2.07494e-39 0 5.57201e-39 0 1.3616e-38 0 3.27085e-38 0
5.81015 3.46396e-10 3.09257e-10 3.71385e-11 0.107214 1.8115e-05 0 0 0 0 0 0 0 0 0 0 0 0 1.4013e-45 0 2.52234e-44 0 3.1249e-43 0 2.5882e-42 0 1.72192e-41 0 8.99746e-41 0 4.09656e-40 0 1.57725e-39 0 5.62262e-39 0 1.72742e-38 0 5.07007e-38 0 1.34893e-37 0 3.45185e-37 0 8.07501e-37 0 1.85854e-36 0
6.10839 3.00373e-10 2.70215e-10 3.01577e-11 0.100401 1.63023e-05 0 0 0 0 0 0 0 0 0 0 5.60519e-45 0 1.80768e-43 0 2.83763e-42 0 3.07823e-41 0 2.29806e-40 0 1.39369e-39 0 6.7178e-39 0 2.84044e-38 0 1.02395e-37 0 3.43057e-37 0 9.9776e-37 0 2.7785e-36 0 7.04755e-36 0 1.72257e-35 0 3.86587e-35 0 8.54279e-35 0
6.42193 2.58257e-10 2.33825e-10 2.44327e-11 0.094606 1.48144e-05 0 0 0 0 0 0 0 0 1.26117e-44 0 6.99248e-43 0 1.7718e-41 0 2.43799e-40 0 2.35382e-39 0 1.59298e-38 0 8.84698e-38 0 3.94918e-37 0 1.5563e-36 0 5.26986e-36 0 1.66436e-35 0 4.59483e-35 0 1.21713e-34 0 2.95005e-34 0 6.90267e-34 0 1.48918e-33 0 3.16583e-33 0
6.75157 2.27076e-10 2.07185e-10 1.98917e-11 0.0875993 1.32279e-05 0 0 0 0 0 0 7.00649e-45 0 1.35646e-42 0 6.46377e-41 0 1.39797e-39 0 1.69254e-38 0 1.46285e-37 0 9.01765e-37 0 4.60599e-36 0 1.91123e-35 0 7.04403e-35 0 2.24732e-34 0 6.71009e-34 0 1.76286e-33 0 4.45277e-33 0 1.03359e-32 0 2.32013e-32 0 4.82101e-32 0 9.87839e-32 0
7.09813 1.9906e-10 1.82874e-10 1.61863e-11 0.0813137 1.18448e-05 0 0 0 0 0 0 8.39378e-43 0 1.18662e-40 0 4.68382e-39 0 8.71823e-38 0 9.34523e-37 0 7.26976e-36 0 4.1006e-35 0 1.93419e-34 0 7.48714e-34 0 2.58919e-33 0 7.80563e-33 0 2.20942e-32 0 5.53714e-32 0 1.33675e-31 0 2.97793e-31 0 6.42586e-31 0 1.2884e-30 0 2.5491e-30 0
7.46248 1.75178e-10 1.62e-10 1.31781e-11 0.075227 1.05694e-05 0 0 0 0 6.72623e-44 0 7.40614e-41 0 8.22535e-39 0 2.71335e-37 0 4.37861e-36 0 4.18024e-35 0 2.94193e-34 0 1.52503e-33 0 6.66865e-33 0 2.41633e-32 0 7.86494e-32 0 2.24668e-31 0 6.04432e-31 0 1.44835e-30 0 3.34928e-30 0 7.17515e-30 0 1.49121e-29 0 2.89007e-29 0 5.53066e-29 0
7.84553 1.54826e-10 1.4409e-10 1.07352e-11 0.0693375 9.34187e-06 0 0 0 0 6.62114e-42 0 5.17986e-39 0 4.57094e-37 0 1.27123e-35 0 1.79095e-34 0 1.53147e-33 0 9.79859e-33 0 4.68723e-32 0 1.90719e-31 0 6.48952e-31 0 1.99401e-30 0 5.41149e-30 0 1.3872e-29 0 3.18519e-29 0 7.07029e-29 0 1.45936e-28 0 2.92657e-28 0 5.49156e-28 0 1.01813e-27 0
8.24824 1.37434e-10 1.28684e-10 8.74971e-12 0.0636649 8.19911e-06 0 0 4.2039e-45 0 5.13823e-40 0 2.9037e-37 0 2.05893e-35 0 4.86799e-34 0 6.02721e-33 0 4.64125e-32 0 2.71229e-31 0 1.20199e-30 0 4.56689e-30 0 1.46377e-29 0 4.25782e-29 0 1.10054e-28 0 2.69444e-28 0 5.94073e-28 0 1.26833e-27 0 2.52692e-27 0 4.89817e-27 0 8.91304e-27 0 1.6034e-26 0
8.67162 1.22545e-10 1.1541e-10 7.13494e-12 0.0582231 7.20916e-06 0 0 3.96567e-43 0 3.18102e-38 0 1.31927e-35 0 7.59743e-34 0 1.53923e-32 0 1.68546e-31 0 1.17477e-30 0 6.29826e-30 0 2.59548e-29 0 9.23915e-29 0 2.79762e-28 0 7.72433e-28 0 1.90609e-27 0 4.46704e-27 0 9.47604e-27 0 1.94957e-26 0 3.75561e-26 0 7.04838e-26 0 1.24562e-25 0 2.17747e-25 0
9.11674 1.09754e-10 1.03933e-10 5.8206e-12 0.0530332 6.32492e-06 0 0 3.43332e-41 0 1.5886e-36 0 4.90877e-34 0 2.31931e-32 0 4.05696e-31 0 3.95244e-30 0 2.50571e-29 0 1.23763e-28 0 4.75951e-28 0 1.59241e-27 0 4.56793e-27 0 1.20021e-26 0 2.83392e-26 0 6.37096e-26 0 1.30276e-25 0 2.58749e-25 0 4.82747e-25 0 8.78576e-25 0 1.51009e-24 0 2.56877e-24 0
9.5847 9.87472e-11 9.3997e-11 4.7502e-12 0.0481046 5.52644e-06 2.52234e-44 0 2.36233e-39 0 6.46933e-35 0 1.51094e-32 0 5.91403e-31 0 8.9959e-30 0 7.84222e-29 0 4.54302e-28 0 2.07558e-27 0 7.47392e-27 0 2.3574e-26 0 6.42321e-26 0 1.60993e-25 0 3.64518e-25 0 7.87696e-25 0 1.55543e-24 0 2.98755e-24 0 5.4067e-24 0 9.55641e-24 0 1.59968e-23 0 2.6515e-23 0
10.0767 8.92567e-11 8.53784e-11 3.87825e-12 0.0434505 4.78203e-06 2.45087e-42 0 1.30521e-37 0 2.1704e-33 0 3.88414e-31 0 1.27108e-29 0 1.69284e-28 0 1.32769e-27 0 7.05916e-27 0 2.99456e-26 0 1.01292e-25 0 3.02068e-25 0 7.83735e-25 0 1.87819e-24 0 4.08624e-24 0 8.50405e-24 0 1.62439e-23 0 3.02214e-23 0 5.31317e-23 0 9.13354e-23 0 1.49092e-22 0 2.411e-22 0
10.5939 8.10561e-11 7.78899e-11 3.16622e-12 0.0390621 4.06995e-06 1.86993e-40 0 5.85467e-36 0 6.05737e-32 0 8.41493e-30 0 2.32255e-28 0 2.72589e-27 0 1.93338e-26 0 9.47423e-26 0 3.74527e-25 0 1.19368e-24 0 3.37479e-24 0 8.35785e-24 0 1.91926e-23 0 4.02009e-23 0 8.07228e-23 0 1.49396e-22 0 2.69649e-22 0 4.61184e-22 0 7.72097e-22 0 1.23054e-21 0 1.94379e-21 0
11.1377 7.41056e-11 7.15228e-11 2.58289e-12 0.0348541 3.40803e-06 1.14308e-38 0 2.159e-34 0 1.42238e-30 0 1.55298e-28 0 3.64525e-27 0 3.7936e-26 0 2.44523e-25 0 1.10879e-24 0 4.09867e-24 0 1.23444e-23 0 3.31734e-23 0 7.85977e-23 0 1.73309e-22 0 3.50143e-22 0 6.79555e-22 0 1.22043e-21 0 2.14019e-21 0 3.56573e-21 0 5.82129e-21 0 9.06903e-21 0 1.40094e-20 0
