# 0.000231776 1 84 : grain size, compostion index, size index
# Heating and cooling timescale: 5.80172e-05 2.196e+08
# Ratio of heating to cooling to determine stochastic cutoff: 100
# Equilibrium emission is recorded even for those grains in the stochastic regime.
# Emission spectrum was computed for: 
# Type: IRSF
# Scales: 0.25 0.5 1 1.5 2 2.5 3 3.5 4 4.5 5 5.5 6 6.5 7 7.5 8 8.5 9 9.5 10
# StochasticallyHeated: 0 0 0 0 0 0 0 0 0 0 0 0 0 0 0 0 0 0 0 0 0
# Temperature: -1
# Wavelength  CExt  CAbs  CSca  Albedo G EqEm1 StEm1 EqEm2 StEm2 EqEm3 StEm3 EqEm4 StEm4 EqEm5 StEm5 EqEm6 StEm6 EqEm7 StEm7 EqEm8 StEm8 EqEm9 StEm9 EqEm10 StEm10 EqEm11 StEm11 EqEm12 StEm12 EqEm13 StEm13 EqEm14 StEm14 EqEm15 StEm15 EqEm16 StEm16 EqEm17 StEm17 EqEm18 StEm18 EqEm19 StEm19 EqEm20 StEm20 EqEm21 StEm21
0.05 3.43832e-07 1.2053e-07 2.23302e-07 0.649451 0.856625 0 0 0 0 0 0 0 0 0 0 0 0 0 0 0 0 0 0 0 0 0 0 0 0 0 0 0 0 0 0 0 0 0 0 0 0 0 0 0 0 0 0
0.0525665 3.44221e-07 1.18758e-07 2.25463e-07 0.654994 0.844426 0 0 0 0 0 0 0 0 0 0 0 0 0 0 0 0 0 0 0 0 0 0 0 0 0 0 0 0 0 0 0 0 0 0 0 0 0 0 0 0 0 0
0.0552647 3.44627e-07 1.17481e-07 2.27146e-07 0.659108 0.83431 0 0 0 0 0 0 0 0 0 0 0 0 0 0 0 0 0 0 0 0 0 0 0 0 0 0 0 0 0 0 0 0 0 0 0 0 0 0 0 0 0 0
0.0581015 3.45014e-07 1.17007e-07 2.28007e-07 0.660863 0.828124 0 0 0 0 0 0 0 0 0 0 0 0 0 0 0 0 0 0 0 0 0 0 0 0 0 0 0 0 0 0 0 0 0 0 0 0 0 0 0 0 0 0
0.0610839 3.45402e-07 1.15501e-07 2.29901e-07 0.665604 0.819619 0 0 0 0 0 0 0 0 0 0 0 0 0 0 0 0 0 0 0 0 0 0 0 0 0 0 0 0 0 0 0 0 0 0 0 0 0 0 0 0 0 0
0.0642193 3.45907e-07 1.11546e-07 2.34361e-07 0.677525 0.801849 0 0 0 0 0 0 0 0 0 0 0 0 0 0 0 0 0 0 0 0 0 0 0 0 0 0 0 0 0 0 0 0 0 0 0 0 0 0 0 0 0 0
0.0675157 3.46563e-07 1.07746e-07 2.38817e-07 0.689101 0.782445 0 0 0 0 0 0 0 0 0 0 0 0 0 0 0 0 0 0 0 0 0 0 0 0 0 0 0 0 0 0 0 0 0 0 0 0 0 0 0 0 0 0
0.0709813 3.47272e-07 1.07757e-07 2.39515e-07 0.689703 0.775588 0 0 0 0 0 0 0 0 0 0 0 0 0 0 0 0 0 0 0 0 0 0 0 0 0 0 0 0 0 0 0 0 0 0 0 0 0 0 0 0 0 0
0.0746248 3.47947e-07 1.09836e-07 2.38111e-07 0.684331 0.776991 0 0 0 0 0 0 0 0 0 0 0 0 0 0 0 0 0 0 0 0 0 0 0 0 0 0 0 0 0 0 0 0 0 0 0 0 0 0 0 0 0 0
0.0784553 3.4857e-07 1.12549e-07 2.36021e-07 0.677113 0.781844 0 0 0 0 0 0 0 0 0 0 0 0 0 0 0 0 0 0 0 0 0 0 0 0 0 0 0 0 0 0 0 0 0 0 0 0 0 0 0 0 0 0
0.0824824 3.49172e-07 1.15606e-07 2.33565e-07 0.668913 0.787619 0 0 0 0 0 0 0 0 0 0 0 0 0 0 0 0 0 0 0 0 0 0 0 0 0 0 0 0 0 0 0 0 0 0 0 0 0 0 0 0 0 0
0.0867162 3.49772e-07 1.16646e-07 2.33126e-07 0.666509 0.786564 0 0 0 0 0 0 0 0 0 0 0 0 0 0 0 0 0 0 0 0 0 0 0 0 0 0 0 0 0 0 0 0 0 0 0 0 0 0 0 0 0 0
0.0911674 3.50453e-07 1.16615e-07 2.33838e-07 0.667246 0.781585 0 0 0 0 0 0 0 0 0 0 0 0 0 0 0 0 0 0 0 0 0 0 0 0 0 0 0 0 0 0 0 0 0 0 0 0 0 0 0 0 0 0
0.095847 3.51116e-07 1.17672e-07 2.33444e-07 0.664864 0.779852 0 0 0 0 0 0 0 0 0 0 0 0 0 0 0 0 0 0 0 0 0 0 0 0 0 0 0 0 0 0 0 0 0 0 0 0 0 0 0 0 0 0
0.100767 3.51475e-07 1.2217e-07 2.29304e-07 0.652407 0.790853 0 0 0 0 0 0 0 0 0 0 0 0 0 0 0 0 0 0 0 0 0 0 0 0 0 0 0 0 0 0 0 0 0 0 0 0 0 0 0 0 0 0
0.105939 3.51668e-07 1.26523e-07 2.25145e-07 0.64022 0.804981 0 0 0 0 0 0 0 0 0 0 0 0 0 0 0 0 0 0 0 0 0 0 0 0 0 0 0 0 0 0 0 0 0 0 0 0 0 0 0 0 0 0
0.111377 3.51373e-07 1.33957e-07 2.17415e-07 0.61876 0.831903 0 0 0 0 0 0 0 0 0 0 0 0 0 0 0 0 0 0 0 0 0 0 0 0 0 0 0 0 0 0 0 0 0 0 0 0 0 0 0 0 0 0
0.117094 3.51237e-07 1.41496e-07 2.09742e-07 0.597151 0.86332 0 0 0 0 0 0 0 0 0 0 0 0 0 0 0 0 0 0 0 0 0 0 0 0 0 0 0 0 0 0 0 0 0 0 0 0 0 0 0 0 0 0
0.123105 3.51408e-07 1.46521e-07 2.04887e-07 0.583046 0.885342 0 0 0 0 0 0 0 0 0 0 0 0 0 0 0 0 0 0 0 0 0 0 0 0 0 0 0 0 0 0 0 0 0 0 0 0 0 0 0 0 0 0
0.129424 3.51689e-07 1.50907e-07 2.00783e-07 0.570909 0.904775 0 0 0 0 0 0 0 0 0 0 0 0 0 0 0 0 0 0 0 0 0 0 0 0 0 0 0 0 0 0 0 0 0 0 0 0 0 0 0 0 0 0
0.136067 3.5196e-07 1.54514e-07 1.97447e-07 0.560991 0.920524 0 0 0 0 0 0 0 0 0 0 0 0 0 0 0 0 0 0 0 0 0 0 0 0 0 0 0 0 0 0 0 0 0 0 0 0 0 0 0 0 0 0
0.143051 3.52061e-07 1.57337e-07 1.94725e-07 0.553099 0.932792 0 0 0 0 0 0 0 0 0 0 0 0 0 0 0 0 0 0 0 0 0 0 0 0 0 0 0 0 0 0 0 0 0 0 0 0 0 0 0 0 0 0
0.150394 3.51824e-07 1.58812e-07 1.93011e-07 0.548602 0.94067 0 0 0 0 0 0 0 0 0 0 0 0 0 0 0 0 0 0 0 0 0 0 0 0 0 0 0 0 0 0 0 0 0 0 0 0 0 0 0 0 0 0
0.158114 3.51509e-07 1.57996e-07 1.93514e-07 0.550522 0.941453 0 0 0 0 0 0 0 0 0 0 0 0 0 0 0 0 0 0 0 0 0 0 0 0 0 0 0 0 0 0 0 0 0 0 0 0 0 0 0 0 0 0
0.16623 3.51721e-07 1.53971e-07 1.9775e-07 0.562236 0.930921 0 0 0 0 0 0 0 0 0 0 0 0 0 0 0 0 0 0 0 0 0 0 0 0 0 0 0 0 0 0 0 0 0 0 0 0 0 0 0 0 0 0
0.174762 3.52769e-07 1.46731e-07 2.06038e-07 0.58406 0.90538 0 0 0 0 0 0 0 0 0 0 0 0 0 0 0 0 0 0 0 0 0 0 0 0 0 0 0 0 0 0 0 0 0 0 0 0 0 0 0 0 0 0
0.183733 3.54177e-07 1.37966e-07 2.16211e-07 0.610459 0.871094 0 0 0 0 0 0 0 0 0 0 0 0 0 0 0 0 0 0 0 0 0 0 0 0 0 0 0 0 0 0 0 0 0 0 0 0 0 0 0 0 0 0
0.193164 3.5579e-07 1.29095e-07 2.26695e-07 0.63716 0.835948 0 0 0 0 0 0 0 0 0 0 0 0 0 0 0 0 0 0 0 0 0 0 0 0 0 0 0 0 0 0 0 0 0 0 0 0 0 0 0 0 0 0
0.203079 3.57562e-07 1.21626e-07 2.35936e-07 0.659847 0.807052 0 0 0 0 0 0 0 0 0 0 0 0 0 0 0 0 0 0 0 0 0 0 0 0 0 0 0 0 0 0 0 0 0 0 0 0 0 0 0 0 0 0
0.213503 3.59558e-07 1.15458e-07 2.441e-07 0.678889 0.783743 0 0 0 0 0 0 0 0 0 0 0 0 0 0 0 0 0 0 0 0 0 0 0 0 0 0 0 0 0 0 0 0 0 0 0 0 0 0 0 0 0 0
0.224463 3.61998e-07 1.12038e-07 2.4996e-07 0.690502 0.767905 0 0 0 0 0 0 0 0 0 0 0 0 0 0 0 0 0 0 0 0 0 0 0 0 0 0 0 0 0 0 0 0 0 0 0 0 0 0 0 0 0 0
0.235984 3.64681e-07 1.10978e-07 2.53703e-07 0.695685 0.757439 0 0 0 0 0 0 0 0 0 0 0 0 0 0 0 0 0 0 0 0 0 0 0 0 0 0 0 0 0 0 0 0 0 0 0 0 0 0 0 0 0 0
0.248097 3.66896e-07 1.13105e-07 2.5379e-07 0.691723 0.753991 0 0 0 0 0 0 0 0 0 0 0 0 0 0 0 0 0 0 0 0 0 0 0 0 0 0 0 0 0 0 0 0 0 0 0 0 0 0 0 0 0 0
0.260832 3.67776e-07 1.16601e-07 2.51174e-07 0.682955 0.755532 0 0 0 0 0 0 0 0 0 0 0 0 0 0 0 0 0 0 0 0 0 0 0 0 0 0 0 0 0 0 0 0 0 0 0 0 0 0 0 0 0 0
0.274221 3.67752e-07 1.20086e-07 2.47666e-07 0.673459 0.7587 0 0 0 0 0 0 0 0 0 0 0 0 0 0 0 0 0 0 0 0 0 0 0 0 0 0 0 0 0 0 0 0 0 0 0 0 0 0 0 0 0 0
0.288297 3.67407e-07 1.24271e-07 2.43136e-07 0.661762 0.766955 0 0 0 0 0 0 0 0 0 0 0 0 0 0 0 0 0 0 0 0 0 0 0 0 0 0 0 0 0 0 0 0 0 0 0 0 0 0 0 0 0 0
0.303095 3.67471e-07 1.2728e-07 2.40192e-07 0.653634 0.773364 0 0 0 0 0 0 0 0 0 0 0 0 0 0 0 0 0 0 0 0 0 0 0 0 0 0 0 0 0 0 0 0 0 0 0 0 0 0 0 0 0 0
0.318653 3.67699e-07 1.29821e-07 2.37877e-07 0.646935 0.779041 0 0 0 0 0 0 0 0 0 0 0 0 0 0 0 0 0 0 0 0 0 0 0 0 0 0 0 0 0 0 0 0 0 0 0 0 0 0 0 0 0 0
0.335009 3.68129e-07 1.3197e-07 2.36159e-07 0.641512 0.783959 0 0 0 0 0 0 0 0 0 0 0 0 0 0 0 0 0 0 0 0 0 0 0 0 0 0 0 0 0 0 0 0 0 0 0 0 0 0 0 0 0 0
0.352205 3.68747e-07 1.33637e-07 2.3511e-07 0.637591 0.787402 0 0 0 0 0 0 0 0 0 0 0 0 0 0 0 0 0 0 0 0 0 0 0 0 0 0 0 0 0 0 0 0 0 0 0 0 0 0 0 0 0 0
0.370284 3.69482e-07 1.34922e-07 2.3456e-07 0.634836 0.789455 0 0 0 0 0 0 0 0 0 0 0 0 0 0 0 0 0 0 0 0 0 0 0 0 0 0 0 0 0 0 0 0 0 0 0 0 0 0 0 0 0 0
0.389291 3.70284e-07 1.35857e-07 2.34427e-07 0.6331 0.7901 0 0 0 0 0 0 0 0 0 0 0 0 0 0 0 0 0 0 0 0 0 0 0 0 0 0 0 0 0 0 0 0 0 0 0 0 0 0 0 0 0 0
0.409273 3.71121e-07 1.36699e-07 2.34422e-07 0.631659 0.790381 0 0 0 0 0 0 0 0 0 0 0 0 0 0 0 0 0 0 0 0 0 0 0 0 0 0 0 0 0 0 0 0 0 0 0 0 0 0 0 0 0 0
0.430281 3.71973e-07 1.375e-07 2.34473e-07 0.630349 0.790486 0 0 0 0 0 0 0 0 0 0 0 0 0 0 0 0 0 0 0 0 0 0 0 0 0 0 0 0 0 0 0 0 0 0 0 0 0 0 0 0 0 0
0.452368 3.7289e-07 1.3834e-07 2.3455e-07 0.629006 0.790771 0 0 0 0 0 0 0 0 0 0 0 0 0 0 0 0 0 0 0 0 0 0 0 0 0 0 0 0 0 0 0 0 0 0 0 0 0 0 0 0 0 0
0.475588 3.73851e-07 1.39175e-07 2.34675e-07 0.627724 0.790987 0 0 0 0 0 0 0 0 0 0 0 0 0 0 0 0 0 0 0 0 0 0 0 0 0 0 0 0 0 0 0 0 0 0 0 0 0 0 0 0 0 0
0.5 3.74879e-07 1.39966e-07 2.34914e-07 0.626638 0.790945 0 0 0 0 0 0 0 0 0 0 0 0 0 0 0 0 0 0 0 0 0 0 0 0 0 0 0 0 0 0 0 0 0 0 0 0 0 0 0 0 0 0
0.525665 3.75973e-07 1.40737e-07 2.35236e-07 0.625671 0.790738 0 0 0 0 0 0 0 0 0 0 0 0 0 0 0 0 0 0 0 0 0 0 0 0 0 0 0 0 0 0 0 0 0 0 0 0 0 0 0 0 0 0
0.552648 3.77098e-07 1.415e-07 2.35598e-07 0.624767 0.79039 0 0 0 0 0 0 0 0 0 0 0 0 0 0 0 0 0 0 0 0 0 0 0 0 0 0 0 0 0 0 0 0 0 0 0 0 0 0 0 0 0 0
0.581015 3.7831e-07 1.42085e-07 2.36224e-07 0.62442 0.789271 0 0 0 0 0 0 0 0 0 0 0 0 0 0 0 0 0 0 0 0 0 0 0 0 0 0 0 0 0 0 0 0 0 0 0 0 0 0 0 0 0 0
0.610839 3.7955e-07 1.42678e-07 2.36872e-07 0.624086 0.788087 0 0 0 0 0 0 0 0 0 0 0 0 0 0 0 0 0 0 0 0 0 0 0 0 0 0 0 0 0 0 0 0 0 0 0 0 0 0 0 0 0 0
0.642193 3.80822e-07 1.43278e-07 2.37544e-07 0.623767 0.786833 0 0 0 0 0 0 0 0 0 0 0 0 0 0 0 0 0 0 0 0 0 0 0 0 0 0 0 0 0 0 0 0 0 0 0 0 0 0 0 0 0 0
0.675157 3.82137e-07 1.4381e-07 2.38327e-07 0.623668 0.78525 0 0 0 0 0 0 0 0 0 0 0 0 0 0 0 0 0 0 0 0 0 0 0 0 0 0 0 0 0 0 0 0 0 0 0 0 0 0 0 0 0 0
0.709813 3.83463e-07 1.44278e-07 2.39185e-07 0.623751 0.783337 0 0 0 0 0 0 0 0 0 0 0 0 0 0 0 0 0 0 0 0 0 0 0 0 0 0 0 0 0 0 0 0 0 0 0 0 0 0 0 0 0 0
0.746248 3.84855e-07 1.4471e-07 2.40144e-07 0.623987 0.78125 0 0 0 0 0 0 0 0 0 0 0 0 0 0 0 0 0 0 0 0 0 0 0 0 0 0 0 0 0 0 0 0 0 0 0 0 0 0 0 0 0 0
0.784553 3.86231e-07 1.4513e-07 2.41101e-07 0.624241 0.779042 0 0 0 0 0 0 0 0 0 0 0 0 0 0 0 0 0 0 0 0 0 0 0 0 0 0 0 0 0 0 0 0 0 0 0 0 0 0 0 0 0 0
0.824824 3.87469e-07 1.45531e-07 2.41937e-07 0.624405 0.776603 0 0 0 0 0 0 0 0 0 0 0 0 0 0 0 0 0 0 0 0 0 0 0 0 0 0 0 0 0 0 0 0 0 0 0 0 0 0 0 0 0 0
0.867162 3.89479e-07 1.45863e-07 2.43616e-07 0.625492 0.774359 0 0 0 0 0 0 0 0 0 0 0 0 0 0 0 0 0 0 0 0 0 0 0 0 0 0 0 0 0 0 0 0 0 0 0 0 0 0 0 0 0 0
0.911674 3.89838e-07 1.46093e-07 2.43745e-07 0.625248 0.770754 0 0 0 0 0 0 0 0 0 0 0 0 0 0 0 0 0 0 0 0 0 0 0 0 0 0 0 0 0 0 0 0 0 0 0 0 0 0 0 0 0 0
0.95847 3.91949e-07 1.46307e-07 2.45642e-07 0.62672 0.768276 0 0 0 0 0 0 0 0 0 0 0 0 0 0 0 0 0 0 0 0 0 0 0 0 0 0 0 0 0 0 0 0 0 0 0 0 0 0 0 0 0 0
1.00767 3.94821e-07 1.4626e-07 2.48561e-07 0.629553 0.765692 0 0 0 0 0 0 0 0 0 0 0 0 0 0 0 0 0 0 0 0 0 0 0 0 0 0 0 0 0 0 0 0 0 0 0 0 0 0 0 0 0 0
1.05939 3.93251e-07 1.46115e-07 2.47136e-07 0.628444 0.759319 0 0 0 0 0 0 0 0 0 0 0 0 0 0 0 0 0 0 0 0 0 0 0 0 0 0 0 0 0 0 0 0 0 0 0 0 0 0 0 0 0 0
1.11377 3.94688e-07 1.45541e-07 2.49147e-07 0.63125 0.754152 0 0 0 0 0 0 0 0 0 0 0 0 0 0 0 0 0 0 0 0 0 0 0 0 0 0 0 0 0 0 0 0 0 0 0 0 0 0 0 0 0 0
1.17094 4.01031e-07 1.44687e-07 2.56344e-07 0.639213 0.753127 0 0 0 0 0 0 0 0 0 0 0 0 0 0 0 0 0 0 0 0 0 0 0 0 0 0 0 0 0 0 0 0 0 0 0 0 0 0 0 0 0 0
1.23105 4.01375e-07 1.43934e-07 2.57441e-07 0.641397 0.747921 0 0 0 0 0 0 0 0 0 0 0 0 0 0 0 0 0 0 0 0 0 0 0 0 0 0 0 0 0 0 0 0 0 0 0 0 0 0 0 0 0 0
1.29424 3.96277e-07 1.42988e-07 2.53289e-07 0.639172 0.737113 0 0 0 0 0 0 0 0 0 0 0 0 0 0 0 0 0 0 0 0 0 0 0 0 0 0 0 0 0 0 0 0 0 0 0 0 0 0 0 0 0 0
1.36067 3.98725e-07 1.41731e-07 2.56994e-07 0.644539 0.729002 0 0 0 0 0 0 0 0 0 0 0 0 0 0 0 0 0 0 0 0 0 0 0 0 0 0 0 0 0 0 0 0 0 0 0 0 0 0 0 0 0 0
1.43051 4.09975e-07 1.40527e-07 2.69447e-07 0.65723 0.726555 0 0 0 0 0 0 0 0 0 0 0 0 0 0 0 0 0 0 0 0 0 0 0 0 0 0 0 0 0 0 0 0 0 0 0 0 0 0 0 0 0 0
1.50394 4.15933e-07 1.39119e-07 2.76815e-07 0.665526 0.724136 0 0 0 0 0 0 0 0 0 0 0 0 0 0 0 0 0 0 0 0 0 0 0 0 0 0 0 0 0 0 0 0 0 0 0 0 0 0 0 0 0 0
1.58114 4.08999e-07 1.36355e-07 2.72644e-07 0.666612 0.712475 0 0 0 0 0 0 0 0 0 0 0 0 0 0 0 0 0 0 0 0 0 0 0 0 0 0 0 0 0 0 0 0 0 0 0 0 0 0 0 0 0 0
1.6623 3.97224e-07 1.33366e-07 2.63858e-07 0.664254 0.689578 0 0 0 0 0 0 0 0 0 0 0 0 0 0 0 0 0 0 0 0 0 0 0 0 0 0 0 0 0 0 0 0 0 0 0 0 0 0 0 0 0 0
1.74763 3.99722e-07 1.35877e-07 2.63845e-07 0.660071 0.685914 0 0 0 0 0 0 0 0 0 0 0 0 0 0 0 0 0 0 0 0 0 0 0 0 0 0 0 0 0 0 0 0 0 0 0 0 0 0 0 0 0 0
1.83733 4.15437e-07 1.34455e-07 2.80982e-07 0.676352 0.690592 0 0 0 0 0 0 0 0 0 0 0 0 0 0 0 0 0 0 0 0 0 0 0 0 0 0 0 0 0 0 0 0 0 0 0 0 0 0 0 0 0 0
1.93164 4.28097e-07 1.30062e-07 2.98035e-07 0.696185 0.700229 0 0 0 0 0 0 0 0 0 0 0 0 0 0 0 0 0 0 0 0 0 0 0 0 0 0 0 0 0 0 0 0 0 0 0 0 0 0 0 0 0 0
2.03079 4.33273e-07 1.30229e-07 3.03045e-07 0.699431 0.684225 0 0 0 0 0 0 0 0 0 0 0 0 0 0 0 0 0 0 0 0 0 0 0 0 0 0 0 0 0 0 0 0 0 0 0 0 0 0 0 0 0 0
2.13503 4.24996e-07 1.28934e-07 2.96061e-07 0.696622 0.666586 0 0 0 0 0 0 0 0 0 0 0 0 0 0 0 0 0 0 0 0 0 0 0 0 0 0 0 0 0 0 0 0 0 0 0 0 0 0 0 0 0 0
2.24463 4.16665e-07 1.25428e-07 2.91236e-07 0.698971 0.644187 0 0 0 0 0 0 0 0 0 0 0 0 0 0 0 0 0 0 0 0 0 0 0 0 0 0 0 0 0 0 0 0 0 0 0 0 0 0 0 0 0 0
2.35984 3.97193e-07 1.24253e-07 2.7294e-07 0.687172 0.604663 0 0 0 0 0 0 0 0 0 0 0 0 0 0 0 0 0 0 0 0 0 0 0 0 0 0 0 0 0 0 0 0 0 0 0 0 0 0 0 0 0 0
2.48097 4.12478e-07 1.2324e-07 2.89238e-07 0.70122 0.601405 0 0 0 0 0 0 0 0 0 0 0 0 0 0 0 0 0 0 0 0 0 0 0 0 0 0 0 0 0 0 0 0 0 0 0 0 0 0 0 0 0 0
2.60832 4.05073e-07 1.20046e-07 2.85026e-07 0.703642 0.609281 0 0 0 0 0 0 0 0 0 0 0 0 0 0 0 0 0 0 0 0 0 0 0 0 0 0 0 0 0 0 0 0 0 0 0 0 0 0 0 0 0 0
2.74221 4.43029e-07 1.20569e-07 3.22461e-07 0.727854 0.626934 0 0 0 0 0 0 0 0 0 0 0 0 0 0 0 0 0 0 0 0 0 0 0 0 0 0 0 0 0 0 0 0 0 0 0 0 0 0 0 0 0 0
2.88297 4.38947e-07 1.1725e-07 3.21697e-07 0.732884 0.631513 0 0 0 0 0 0 0 0 0 0 0 0 0 0 0 0 0 0 0 0 0 0 0 0 0 0 0 0 0 0 0 0 0 0 0 0 0 0 0 0 0 0
3.03095 4.70252e-07 1.17147e-07 3.53105e-07 0.750884 0.657512 0 0 0 0 0 0 0 0 0 0 0 0 0 0 0 0 0 0 0 0 0 0 0 0 0 0 0 0 0 0 0 0 0 0 0 0 0 0 0 0 0 0
3.18653 4.72094e-07 1.24679e-07 3.47415e-07 0.735903 0.623664 0 0 0 0 0 0 0 0 0 0 0 0 0 0 0 0 0 0 0 0 0 0 0 0 0 0 0 0 0 0 0 0 0 0 0 0 0 0 0 0 0 0
3.35009 4.51547e-07 1.10892e-07 3.40656e-07 0.754418 0.640045 0 0 0 0 0 0 0 0 0 0 0 0 0 0 0 0 0 0 0 0 0 0 0 0 0 0 0 0 0 0 0 0 0 0 0 0 0 0 0 0 0 0
3.52205 4.58624e-07 1.20967e-07 3.37656e-07 0.736238 0.622368 0 0 0 0 0 0 0 0 0 0 0 0 0 0 0 0 0 0 0 0 0 0 0 0 0 0 0 0 0 0 0 0 0 0 0 0 0 0 0 0 0 0
3.70284 4.21161e-07 1.13607e-07 3.07554e-07 0.730253 0.567512 0 0 0 0 0 0 0 0 0 0 0 0 0 0 0 0 0 0 0 0 0 0 0 0 0 0 0 0 0 0 0 0 0 0 0 0 0 0 0 0 0 0
3.89291 4.13354e-07 1.13472e-07 2.99882e-07 0.725484 0.552457 0 0 0 0 0 0 0 0 0 0 0 0 0 0 0 0 0 0 0 0 0 0 0 0 0 0 0 0 0 0 0 0 0 0 0 0 0 0 0 0 0 0
4.09273 4.14143e-07 1.17677e-07 2.96467e-07 0.715855 0.502192 0 0 0 0 0 0 0 0 0 0 0 0 0 0 0 0 0 0 0 0 0 0 0 0 0 0 0 0 0 0 0 0 0 0 0 0 0 0 0 0 0 0
4.30281 4.01736e-07 1.1379e-07 2.87946e-07 0.716754 0.439446 0 0 0 0 0 0 0 0 0 0 0 0 0 0 0 0 0 0 0 0 0 0 0 0 0 0 0 0 0 0 0 0 0 0 0 0 0 0 0 0 0 0
4.52368 3.93046e-07 1.09572e-07 2.83473e-07 0.721222 0.429371 0 0 0 0 0 0 0 0 0 0 0 0 0 0 0 0 0 0 0 0 0 0 0 0 0 0 0 0 0 0 0 0 0 0 0 0 0 0 0 0 0 0
4.75588 4.35904e-07 1.20904e-07 3.15001e-07 0.722637 0.391152 0 0 0 0 0 0 0 0 0 0 0 0 0 0 0 0 0 0 0 0 0 0 0 0 0 0 0 0 0 0 0 0 0 0 0 0 0 0 0 0 0 0
5 4.38552e-07 1.09791e-07 3.28762e-07 0.749652 0.424278 0 0 0 0 0 0 0 0 0 0 0 0 0 0 0 0 0 0 0 0 0 0 0 0 0 0 0 0 0 0 0 0 0 0 0 0 0 0 0 0 0 0
5.25665 4.52414e-07 1.08278e-07 3.44136e-07 0.760666 0.455523 0 0 0 0 0 0 0 0 0 0 0 0 0 0 0 0 0 0 0 0 0 0 0 0 0 0 0 0 0 0 0 0 0 0 0 0 0 0 0 0 0 0
5.52648 4.8804e-07 1.11827e-07 3.76213e-07 0.770865 0.467539 0 0 0 0 0 0 0 0 0 0 0 0 0 0 0 0 0 0 0 0 0 0 0 0 0 0 0 0 0 0 0 0 0 0 0 0 0 0 0 0 0 0
5.81015 5.2201e-07 1.15765e-07 4.06244e-07 0.778231 0.426114 0 0 0 0 0 0 0 0 0 0 0 0 0 0 0 0 0 0 0 0 0 0 0 0 0 0 0 0 0 0 0 0 0 0 0 0 0 0 0 0 0 0
6.10839 5.00587e-07 1.01136e-07 3.99452e-07 0.797966 0.422658 0 0 0 0 0 0 0 0 0 0 0 0 0 0 0 0 0 0 0 0 0 0 0 0 0 0 0 0 0 0 0 0 0 0 0 0 0 0 0 0 0 0
6.42193 5.25454e-07 9.93688e-08 4.26085e-07 0.81089 0.435399 0 0 0 0 0 0 0 0 0 0 0 0 0 0 0 0 0 0 0 0 0 0 0 0 0 0 0 0 0 0 0 0 0 0 0 0 0 0 0 0 0 0
6.75157 5.62817e-07 1.02202e-07 4.60615e-07 0.81841 0.449941 0 0 0 0 0 0 0 0 0 0 0 0 0 0 0 0 0 0 0 0 0 0 0 0 0 0 0 0 0 0 0 0 0 0 0 0 0 0 0 0 0 0
7.09813 6.09792e-07 1.09035e-07 5.00757e-07 0.821193 0.455121 0 0 0 0 0 0 0 0 0 0 0 0 0 0 0 0 0 0 0 0 0 0 0 0 0 0 0 0 0 0 0 0 0 0 0 0 0 0 0 0 0 0
7.46248 6.01238e-07 1.10766e-07 4.90472e-07 0.815771 0.436807 0 0 0 0 0 0 0 0 0 0 0 0 0 0 0 0 0 0 0 0 0 0 0 0 0 0 0 0 0 0 0 0 0 0 0 0 0 0 0 0 0 0
7.84553 5.42058e-07 1.01365e-07 4.40694e-07 0.813001 0.406656 0 0 0 0 0 0 0 0 0 0 0 0 0 0 0 0 0 0 0 0 0 0 0 0 0 0 0 0 0 0 0 0 0 0 0 0 0 0 0 0 0 0
8.24824 5.17636e-07 9.5428e-08 4.22208e-07 0.815647 0.377922 0 0 0 0 0 0 0 0 0 0 0 0 0 0 0 0 0 0 0 0 0 0 0 0 0 0 0 0 0 0 0 0 0 0 0 0 0 0 0 0 0 0
8.67162 5.14646e-07 9.2965e-08 4.21681e-07 0.819361 0.349408 0 0 0 0 0 0 0 0 0 0 0 0 0 0 0 0 0 0 0 0 0 0 0 0 0 0 0 0 0 0 0 0 0 0 0 0 0 0 0 0 0 0
9.11674 5.22537e-07 9.30989e-08 4.29438e-07 0.821833 0.323069 0 0 0 0 0 0 0 0 0 0 0 0 0 0 0 0 0 0 0 0 0 0 0 0 0 0 0 0 0 0 0 0 0 0 0 0 0 0 0 0 1.4013e-45 0
9.5847 5.30951e-07 9.55748e-08 4.35376e-07 0.819993 0.302281 0 0 0 0 0 0 0 0 0 0 0 0 0 0 0 0 0 0 0 0 0 0 0 0 0 0 0 0 0 0 1.4013e-45 0 2.8026e-45 0 8.40779e-45 0 2.38221e-44 0 6.30584e-44 0 1.54143e-43 0
10.0767 5.21541e-07 9.82743e-08 4.23267e-07 0.811569 0.285427 0 0 0 0 0 0 0 0 0 0 0 0 0 0 0 0 0 0 0 0 0 0 0 0 2.8026e-45 0 1.26117e-44 0 4.76441e-44 0 1.62551e-43 0 5.00264e-43 0 1.41391e-42 0 3.6742e-42 0 9.18691e-42 0 2.17047e-41 0
10.5939 4.87003e-07 9.7976e-08 3.89027e-07 0.798818 0.264124 0 0 0 0 0 0 0 0 0 0 0 0 0 0 0 0 0 0 2.8026e-45 0 1.96182e-44 0 1.06499e-43 0 4.93257e-43 0 1.99825e-42 0 6.84254e-42 0 2.18196e-41 0 6.36792e-41 0 1.70929e-40 0 4.238e-40 0 1.01337e-39 0 2.29559e-39 0
11.1377 4.46875e-07 9.52118e-08 3.51664e-07 0.786939 0.229486 0 0 0 0 0 0 0 0 0 0 0 0 0 0 4.2039e-45 0 5.32493e-44 0 4.37205e-43 0 2.73814e-42 0 1.40929e-41 0 6.04506e-41 0 2.28576e-40 0 7.37209e-40 0 2.22118e-39 0 6.15219e-39 0 1.57366e-38 0 3.73254e-38 0 8.55311e-38 0 1.86172e-37 0
11.7094 4.38271e-07 9.52603e-08 3.43011e-07 0.782645 0.193329 0 0 0 0 0 0 0 0 0 0 1.4013e-45 0 4.48416e-44 0 7.20267e-43 0 7.39886e-42 0 5.46492e-41 0 3.13343e-40 0 1.48845e-39 0 5.94668e-39 0 2.10717e-38 0 6.41847e-38 0 1.83247e-37 0 4.82928e-37 0 1.17991e-36 0 2.68305e-36 0 5.90427e-36 0 1.23727e-35 0
12.3105 4.09896e-07 9.24339e-08 3.17462e-07 0.774494 0.14631 0 0 0 0 0 0 0 0 2.8026e-45 0 2.28412e-43 0 5.99055e-42 0 8.42377e-41 0 7.72593e-40 0 5.17607e-39 0 2.72525e-38 0 1.19973e-37 0 4.47973e-37 0 1.49229e-36 0 4.30493e-36 0 1.16769e-35 0 2.93511e-35 0 6.86515e-35 0 1.49972e-34 0 3.17558e-34 0 6.4185e-34 0
12.9424 3.94492e-07 9.16572e-08 3.02835e-07 0.767658 0.1062 0 0 0 0 0 0 2.8026e-45 0 5.26888e-43 0 2.8529e-41 0 6.37072e-40 0 7.8744e-39 0 6.48147e-38 0 3.95723e-37 0 1.92122e-36 0 7.86728e-36 0 2.7546e-35 0 8.65254e-35 0 2.37024e-34 0 6.12345e-34 0 1.47146e-33 0 3.30185e-33 0 6.94301e-33 0 1.41727e-32 0 2.76785e-32 0
13.6067 3.79236e-07 9.11957e-08 2.8804e-07 0.759528 0.0715786 0 0 0 0 0 0 3.44719e-43 0 6.24825e-41 0 2.7858e-39 0 5.34546e-38 0 5.84381e-37 0 4.33967e-36 0 2.42556e-35 0 1.09017e-34 0 4.16726e-34 0 1.3725e-33 0 4.07688e-33 0 1.06319e-32 0 2.62233e-32 0 6.03741e-32 0 1.30233e-31 0 2.6409e-31 0 5.20627e-31 0 9.84065e-31 0
14.3051 3.61649e-07 9.05973e-08 2.71052e-07 0.749488 0.0418284 0 0 0 0 1.96182e-44 0 4.11744e-41 0 5.79035e-39 0 2.14476e-37 0 3.56264e-36 0 3.46553e-35 0 2.33354e-34 0 1.19918e-33 0 5.00839e-33 0 1.79317e-32 0 5.57198e-32 0 1.56942e-31 0 3.90568e-31 0 9.2179e-31 0 2.03757e-30 0 4.23333e-30 0 8.29321e-30 0 1.58163e-29 0 2.89803e-29 0
15.0394 3.40859e-07 8.95492e-08 2.5131e-07 0.737284 0.0162165 0 0 0 0 2.71852e-42 0 3.8263e-39 0 4.22648e-37 0 1.3124e-35 0 1.90052e-34 0 1.65437e-33 0 1.01494e-32 0 4.81504e-32 0 1.87545e-31 0 6.30933e-31 0 1.85495e-30 0 4.96711e-30 0 1.1823e-29 0 2.67581e-29 0 5.69006e-29 0 1.14073e-28 0 2.16254e-28 0 3.99629e-28 0 7.10909e-28 0
15.8114 3.16814e-07 8.79529e-08 2.28861e-07 0.722383 -0.00601554 0 0 0 0 2.83023e-40 0 2.79594e-37 0 2.45455e-35 0 6.44477e-34 0 8.19106e-33 0 6.4153e-32 0 3.60214e-31 0 1.58383e-30 0 5.77274e-30 0 1.83036e-29 0 5.10525e-29 0 1.30288e-28 0 2.97263e-28 0 6.4647e-28 0 1.32499e-27 0 2.56761e-27 0 4.71789e-27 0 8.46098e-27 0 1.4634e-26 0
16.623 2.9023e-07 8.57124e-08 2.04517e-07 0.704674 -0.0256042 0 0 6.30584e-44 0 2.29988e-38 0 1.62255e-35 0 1.14487e-33 0 2.5627e-32 0 2.87689e-31 0 2.03778e-30 0 1.05175e-29 0 4.3019e-29 0 1.47201e-28 0 4.41161e-28 0 1.17038e-27 0 2.85331e-27 0 6.25309e-27 0 1.30927e-26 0 2.59105e-26 0 4.86144e-26 0 8.6713e-26 0 1.51137e-25 0 2.54505e-25 0
