# 2.8184e-05 1 116 : grain size, compostion index, size index
# Heating and cooling timescale: 0.00903453 3.49111e+06
# Ratio of heating to cooling to determine stochastic cutoff: 100
# Equilibrium emission is recorded even for those grains in the stochastic regime.
# Emission spectrum was computed for: 
# Type: IRSF
# Scales: 0.25 0.5 1 1.5 2 2.5 3 3.5 4 4.5 5 5.5 6 6.5 7 7.5 8 8.5 9 9.5 10
# StochasticallyHeated: 0 0 0 0 0 0 0 0 0 0 0 0 0 0 0 0 0 0 0 0 0
# Temperature: -1
# Wavelength  CExt  CAbs  CSca  Albedo G EqEm1 StEm1 EqEm2 StEm2 EqEm3 StEm3 EqEm4 StEm4 EqEm5 StEm5 EqEm6 StEm6 EqEm7 StEm7 EqEm8 StEm8 EqEm9 StEm9 EqEm10 StEm10 EqEm11 StEm11 EqEm12 StEm12 EqEm13 StEm13 EqEm14 StEm14 EqEm15 StEm15 EqEm16 StEm16 EqEm17 StEm17 EqEm18 StEm18 EqEm19 StEm19 EqEm20 StEm20 EqEm21 StEm21
0.05 1.43282e-09 6.43473e-10 7.89347e-10 0.550904 0.213409 0 0 0 0 0 0 0 0 0 0 0 0 0 0 0 0 0 0 0 0 0 0 0 0 0 0 0 0 0 0 0 0 0 0 0 0 0 0 0 0 0 0
0.0525665 1.58369e-09 7.11228e-10 8.72461e-10 0.550904 0.23588 0 0 0 0 0 0 0 0 0 0 0 0 0 0 0 0 0 0 0 0 0 0 0 0 0 0 0 0 0 0 0 0 0 0 0 0 0 0 0 0 0 0
0.0552647 1.75044e-09 7.86117e-10 9.64328e-10 0.550904 0.260718 0 0 0 0 0 0 0 0 0 0 0 0 0 0 0 0 0 0 0 0 0 0 0 0 0 0 0 0 0 0 0 0 0 0 0 0 0 0 0 0 0 0
0.0581015 1.93476e-09 8.68891e-10 1.06587e-09 0.550904 0.28817 0 0 0 0 0 0 0 0 0 0 0 0 0 0 0 0 0 0 0 0 0 0 0 0 0 0 0 0 0 0 0 0 0 0 0 0 0 0 0 0 0 0
0.0610839 2.13848e-09 9.60381e-10 1.1781e-09 0.550904 0.318513 0 0 0 0 0 0 0 0 0 0 0 0 0 0 0 0 0 0 0 0 0 0 0 0 0 0 0 0 0 0 0 0 0 0 0 0 0 0 0 0 0 0
0.0642193 2.36365e-09 1.0615e-09 1.30214e-09 0.550904 0.35205 0 0 0 0 0 0 0 0 0 0 0 0 0 0 0 0 0 0 0 0 0 0 0 0 0 0 0 0 0 0 0 0 0 0 0 0 0 0 0 0 0 0
0.0675157 2.61253e-09 1.17328e-09 1.43925e-09 0.550904 0.38912 0 0 0 0 0 0 0 0 0 0 0 0 0 0 0 0 0 0 0 0 0 0 0 0 0 0 0 0 0 0 0 0 0 0 0 0 0 0 0 0 0 0
0.0709813 2.88762e-09 1.29682e-09 1.5908e-09 0.550904 0.430092 0 0 0 0 0 0 0 0 0 0 0 0 0 0 0 0 0 0 0 0 0 0 0 0 0 0 0 0 0 0 0 0 0 0 0 0 0 0 0 0 0 0
0.0746248 3.19167e-09 1.43336e-09 1.7583e-09 0.550904 0.475379 0 0 0 0 0 0 0 0 0 0 0 0 0 0 0 0 0 0 0 0 0 0 0 0 0 0 0 0 0 0 0 0 0 0 0 0 0 0 0 0 0 0
0.0784553 3.52774e-09 1.58429e-09 1.94344e-09 0.550904 0.525434 0 0 0 0 0 0 0 0 0 0 0 0 0 0 0 0 0 0 0 0 0 0 0 0 0 0 0 0 0 0 0 0 0 0 0 0 0 0 0 0 0 0
0.0824824 3.89919e-09 1.75111e-09 2.14808e-09 0.550904 0.580759 0 0 0 0 0 0 0 0 0 0 0 0 0 0 0 0 0 0 0 0 0 0 0 0 0 0 0 0 0 0 0 0 0 0 0 0 0 0 0 0 0 0
0.0867162 4.30976e-09 1.93549e-09 2.37426e-09 0.550904 0.641911 0 0 0 0 0 0 0 0 0 0 0 0 0 0 0 0 0 0 0 0 0 0 0 0 0 0 0 0 0 0 0 0 0 0 0 0 0 0 0 0 0 0
0.0911674 4.76355e-09 2.13929e-09 2.62426e-09 0.550904 0.709501 0 0 0 0 0 0 0 0 0 0 0 0 0 0 0 0 0 0 0 0 0 0 0 0 0 0 0 0 0 0 0 0 0 0 0 0 0 0 0 0 0 0
0.095847 5.26513e-09 2.36455e-09 2.90058e-09 0.550904 0.784208 0 0 0 0 0 0 0 0 0 0 0 0 0 0 0 0 0 0 0 0 0 0 0 0 0 0 0 0 0 0 0 0 0 0 0 0 0 0 0 0 0 0
0.100767 5.73601e-09 2.57765e-09 3.15837e-09 0.550621 0.853547 0 0 0 0 0 0 0 0 0 0 0 0 0 0 0 0 0 0 0 0 0 0 0 0 0 0 0 0 0 0 0 0 0 0 0 0 0 0 0 0 0 0
0.105939 5.7679e-09 2.60258e-09 3.16532e-09 0.548782 0.856238 0 0 0 0 0 0 0 0 0 0 0 0 0 0 0 0 0 0 0 0 0 0 0 0 0 0 0 0 0 0 0 0 0 0 0 0 0 0 0 0 0 0
0.111377 5.79915e-09 2.62888e-09 3.17027e-09 0.546679 0.859962 0 0 0 0 0 0 0 0 0 0 0 0 0 0 0 0 0 0 0 0 0 0 0 0 0 0 0 0 0 0 0 0 0 0 0 0 0 0 0 0 0 0
0.117094 5.83e-09 2.65464e-09 3.17536e-09 0.544658 0.861988 0 0 0 0 0 0 0 0 0 0 0 0 0 0 0 0 0 0 0 0 0 0 0 0 0 0 0 0 0 0 0 0 0 0 0 0 0 0 0 0 0 0
0.123105 5.85935e-09 2.68317e-09 3.17617e-09 0.542069 0.862861 0 0 0 0 0 0 0 0 0 0 0 0 0 0 0 0 0 0 0 0 0 0 0 0 0 0 0 0 0 0 0 0 0 0 0 0 0 0 0 0 0 0
0.129424 5.88721e-09 2.71408e-09 3.17314e-09 0.538988 0.862711 0 0 0 0 0 0 0 0 0 0 0 0 0 0 0 0 0 0 0 0 0 0 0 0 0 0 0 0 0 0 0 0 0 0 0 0 0 0 0 0 0 0
0.136067 5.91632e-09 2.741e-09 3.17532e-09 0.536706 0.861351 0 0 0 0 0 0 0 0 0 0 0 0 0 0 0 0 0 0 0 0 0 0 0 0 0 0 0 0 0 0 0 0 0 0 0 0 0 0 0 0 0 0
0.143051 5.94526e-09 2.77473e-09 3.17053e-09 0.533287 0.857972 0 0 0 0 0 0 0 0 0 0 0 0 0 0 0 0 0 0 0 0 0 0 0 0 0 0 0 0 0 0 0 0 0 0 0 0 0 0 0 0 0 0
0.150394 5.97636e-09 2.81945e-09 3.15691e-09 0.528234 0.857729 0 0 0 0 0 0 0 0 0 0 0 0 0 0 0 0 0 0 0 0 0 0 0 0 0 0 0 0 0 0 0 0 0 0 0 0 0 0 0 0 0 0
0.158114 6.01004e-09 2.87416e-09 3.13588e-09 0.521773 0.862392 0 0 0 0 0 0 0 0 0 0 0 0 0 0 0 0 0 0 0 0 0 0 0 0 0 0 0 0 0 0 0 0 0 0 0 0 0 0 0 0 0 0
0.16623 6.00987e-09 2.92277e-09 3.0871e-09 0.513672 0.868223 0 0 0 0 0 0 0 0 0 0 0 0 0 0 0 0 0 0 0 0 0 0 0 0 0 0 0 0 0 0 0 0 0 0 0 0 0 0 0 0 0 0
0.174762 6.14981e-09 2.9372e-09 3.21261e-09 0.522392 0.86969 0 0 0 0 0 0 0 0 0 0 0 0 0 0 0 0 0 0 0 0 0 0 0 0 0 0 0 0 0 0 0 0 0 0 0 0 0 0 0 0 0 0
0.183733 6.29139e-09 2.88727e-09 3.40412e-09 0.541076 0.865525 0 0 0 0 0 0 0 0 0 0 0 0 0 0 0 0 0 0 0 0 0 0 0 0 0 0 0 0 0 0 0 0 0 0 0 0 0 0 0 0 0 0
0.193164 6.08076e-09 2.77531e-09 3.30545e-09 0.543591 0.840144 0 0 0 0 0 0 0 0 0 0 0 0 0 0 0 0 0 0 0 0 0 0 0 0 0 0 0 0 0 0 0 0 0 0 0 0 0 0 0 0 0 0
0.203079 6.07715e-09 2.76646e-09 3.3107e-09 0.544777 0.779025 0 0 0 0 0 0 0 0 0 0 0 0 0 0 0 0 0 0 0 0 0 0 0 0 0 0 0 0 0 0 0 0 0 0 0 0 0 0 0 0 0 0
0.213503 6.31138e-09 2.77122e-09 3.54016e-09 0.560917 0.728239 0 0 0 0 0 0 0 0 0 0 0 0 0 0 0 0 0 0 0 0 0 0 0 0 0 0 0 0 0 0 0 0 0 0 0 0 0 0 0 0 0 0
0.224463 6.47213e-09 2.73961e-09 3.73252e-09 0.576706 0.735113 0 0 0 0 0 0 0 0 0 0 0 0 0 0 0 0 0 0 0 0 0 0 0 0 0 0 0 0 0 0 0 0 0 0 0 0 0 0 0 0 0 0
0.235984 6.47908e-09 2.70756e-09 3.77152e-09 0.582107 0.797006 0 0 0 0 0 0 0 0 0 0 0 0 0 0 0 0 0 0 0 0 0 0 0 0 0 0 0 0 0 0 0 0 0 0 0 0 0 0 0 0 0 0
0.248097 6.35499e-09 2.69631e-09 3.65868e-09 0.575717 0.8045 0 0 0 0 0 0 0 0 0 0 0 0 0 0 0 0 0 0 0 0 0 0 0 0 0 0 0 0 0 0 0 0 0 0 0 0 0 0 0 0 0 0
0.260832 6.18657e-09 2.65297e-09 3.5336e-09 0.571173 0.797917 0 0 0 0 0 0 0 0 0 0 0 0 0 0 0 0 0 0 0 0 0 0 0 0 0 0 0 0 0 0 0 0 0 0 0 0 0 0 0 0 0 0
0.274221 6.1081e-09 2.62735e-09 3.48076e-09 0.569859 0.76125 0 0 0 0 0 0 0 0 0 0 0 0 0 0 0 0 0 0 0 0 0 0 0 0 0 0 0 0 0 0 0 0 0 0 0 0 0 0 0 0 0 0
0.288297 6.09661e-09 2.56161e-09 3.535e-09 0.57983 0.690109 0 0 0 0 0 0 0 0 0 0 0 0 0 0 0 0 0 0 0 0 0 0 0 0 0 0 0 0 0 0 0 0 0 0 0 0 0 0 0 0 0 0
0.303095 6.30281e-09 2.54837e-09 3.75444e-09 0.595677 0.622118 0 0 0 0 0 0 0 0 0 0 0 0 0 0 0 0 0 0 0 0 0 0 0 0 0 0 0 0 0 0 0 0 0 0 0 0 0 0 0 0 0 0
0.318653 6.52517e-09 2.48625e-09 4.03892e-09 0.618976 0.516656 0 0 0 0 0 0 0 0 0 0 0 0 0 0 0 0 0 0 0 0 0 0 0 0 0 0 0 0 0 0 0 0 0 0 0 0 0 0 0 0 0 0
0.335009 6.96081e-09 2.41971e-09 4.5411e-09 0.652381 0.495001 0 0 0 0 0 0 0 0 0 0 0 0 0 0 0 0 0 0 0 0 0 0 0 0 0 0 0 0 0 0 0 0 0 0 0 0 0 0 0 0 0 0
0.352205 7.40153e-09 2.38079e-09 5.02074e-09 0.678338 0.441827 0 0 0 0 0 0 0 0 0 0 0 0 0 0 0 0 0 0 0 0 0 0 0 0 0 0 0 0 0 0 0 0 0 0 0 0 0 0 0 0 0 0
0.370284 7.80712e-09 2.31731e-09 5.48981e-09 0.70318 0.494984 0 0 0 0 0 0 0 0 0 0 0 0 0 0 0 0 0 0 0 0 0 0 0 0 0 0 0 0 0 0 0 0 0 0 0 0 0 0 0 0 0 0
0.389291 8.31473e-09 2.26526e-09 6.04947e-09 0.727561 0.5367 0 0 0 0 0 0 0 0 0 0 0 0 0 0 0 0 0 0 0 0 0 0 0 0 0 0 0 0 0 0 0 0 0 0 0 0 0 0 0 0 0 0
0.409273 8.72942e-09 2.20595e-09 6.52347e-09 0.747297 0.548692 0 0 0 0 0 0 0 0 0 0 0 0 0 0 0 0 0 0 0 0 0 0 0 0 0 0 0 0 0 0 0 0 0 0 0 0 0 0 0 0 0 0
0.430281 9.04855e-09 2.14324e-09 6.90531e-09 0.76314 0.610454 0 0 0 0 0 0 0 0 0 0 0 0 0 0 0 0 0 0 0 0 0 0 0 0 0 0 0 0 0 0 0 0 0 0 0 0 0 0 0 0 0 0
0.452368 9.28508e-09 2.06844e-09 7.21665e-09 0.77723 0.635062 0 0 0 0 0 0 0 0 0 0 0 0 0 0 0 0 0 0 0 0 0 0 0 0 0 0 0 0 0 0 0 0 0 0 0 0 0 0 0 0 0 0
0.475588 9.4229e-09 1.98486e-09 7.43805e-09 0.789358 0.630781 0 0 0 0 0 0 0 0 0 0 0 0 0 0 0 0 0 0 0 0 0 0 0 0 0 0 0 0 0 0 0 0 0 0 0 0 0 0 0 0 0 0
0.5 9.51648e-09 1.92985e-09 7.58664e-09 0.79721 0.657837 0 0 0 0 0 0 0 0 0 0 0 0 0 0 0 0 0 0 0 0 0 0 0 0 0 0 0 0 0 0 0 0 0 0 0 0 0 0 0 0 0 0
0.525665 9.54603e-09 1.90401e-09 7.64202e-09 0.800544 0.687689 0 0 0 0 0 0 0 0 0 0 0 0 0 0 0 0 0 0 0 0 0 0 0 0 0 0 0 0 0 0 0 0 0 0 0 0 0 0 0 0 0 0
0.552648 9.39999e-09 1.84261e-09 7.55739e-09 0.803978 0.689937 0 0 0 0 0 0 0 0 0 0 0 0 0 0 0 0 0 0 0 0 0 0 0 0 0 0 0 0 0 0 0 0 0 0 0 0 0 0 0 0 0 0
0.581015 9.09974e-09 1.72939e-09 7.37035e-09 0.809952 0.672813 0 0 0 0 0 0 0 0 0 0 0 0 0 0 0 0 0 0 0 0 0 0 0 0 0 0 0 0 0 0 0 0 0 0 0 0 0 0 0 0 0 0
0.610839 8.80381e-09 1.62126e-09 7.18255e-09 0.815846 0.66011 0 0 0 0 0 0 0 0 0 0 0 0 0 0 0 0 0 0 0 0 0 0 0 0 0 0 0 0 0 0 0 0 0 0 0 0 0 0 0 0 0 0
0.642193 8.56687e-09 1.56208e-09 7.00479e-09 0.81766 0.670226 0 0 0 0 0 0 0 0 0 0 0 0 0 0 0 0 0 0 0 0 0 0 0 0 0 0 0 0 0 0 0 0 0 0 0 0 0 0 0 0 0 0
0.675157 8.27722e-09 1.53457e-09 6.74265e-09 0.814603 0.685337 0 0 0 0 0 0 0 0 0 0 0 0 0 0 0 0 0 0 0 0 0 0 0 0 0 0 0 0 0 0 0 0 0 0 0 0 0 0 0 0 0 0
0.709813 7.82503e-09 1.49027e-09 6.33475e-09 0.80955 0.689659 0 0 0 0 0 0 0 0 0 0 0 0 0 0 0 0 0 0 0 0 0 0 0 0 0 0 0 0 0 0 0 0 0 0 0 0 0 0 0 0 0 0
0.746248 7.24411e-09 1.4036e-09 5.84051e-09 0.806242 0.676747 0 0 0 0 0 0 0 0 0 0 0 0 0 0 0 0 0 0 0 0 0 0 0 0 0 0 0 0 0 0 0 0 0 0 0 0 0 0 0 0 0 0
0.784553 6.67485e-09 1.29764e-09 5.37721e-09 0.805592 0.646369 0 0 0 0 0 0 0 0 0 0 0 0 0 0 0 0 0 0 0 0 0 0 0 0 0 0 0 0 0 0 0 0 0 0 0 0 0 0 0 0 0 0
0.824824 6.20502e-09 1.20724e-09 4.99777e-09 0.805441 0.610816 0 0 0 0 0 0 0 0 0 0 0 0 0 0 0 0 0 0 0 0 0 0 0 0 0 0 0 0 0 0 0 0 0 0 0 0 0 0 0 0 0 0
0.867162 5.81668e-09 1.14536e-09 4.67132e-09 0.803091 0.584618 0 0 0 0 0 0 0 0 0 0 0 0 0 0 0 0 0 0 0 0 0 0 0 0 0 0 0 0 0 0 0 0 0 0 0 0 0 0 0 0 0 0
0.911674 5.4414e-09 1.10366e-09 4.33774e-09 0.797173 0.572804 0 0 0 0 0 0 0 0 0 0 0 0 0 0 0 0 0 0 0 0 0 0 0 0 0 0 0 0 0 0 0 0 0 0 0 0 0 0 0 0 0 0
0.95847 5.02274e-09 1.06531e-09 3.95742e-09 0.787902 0.573982 0 0 0 0 0 0 0 0 0 0 0 0 0 0 0 0 0 0 0 0 0 0 0 0 0 0 0 0 0 0 0 0 0 0 0 0 0 0 0 0 0 0
1.00767 4.53941e-09 1.01493e-09 3.52448e-09 0.776419 0.582834 0 0 0 0 0 0 0 0 0 0 0 0 0 0 0 0 0 0 0 0 0 0 0 0 0 0 0 0 0 0 0 0 0 0 0 0 0 0 0 0 0 0
1.05939 4.04087e-09 9.67688e-10 3.07318e-09 0.760525 0.590372 0 0 0 0 0 0 0 0 0 0 0 0 0 0 0 0 0 0 0 0 0 0 0 0 0 0 0 0 0 0 0 0 0 0 0 0 0 0 0 0 0 0
1.11377 3.57332e-09 9.12824e-10 2.66049e-09 0.744544 0.586578 0 0 0 0 0 0 0 0 0 0 0 0 0 0 0 0 0 0 0 0 0 0 0 0 0 0 0 0 0 0 0 0 0 0 0 0 0 0 0 0 0 0
1.17094 3.1631e-09 8.58091e-10 2.30501e-09 0.728718 0.564917 0 0 0 0 0 0 0 0 0 0 0 0 0 0 0 0 0 0 0 0 0 0 0 0 0 0 0 0 0 0 0 0 0 0 0 0 0 0 0 0 0 0
1.23105 2.80812e-09 8.0693e-10 2.00119e-09 0.712644 0.52598 0 0 0 0 0 0 0 0 0 0 0 0 0 0 0 0 0 0 0 0 0 0 0 0 0 0 0 0 0 0 0 0 0 0 0 0 0 0 0 0 0 0
1.29424 2.50263e-09 7.60121e-10 1.74251e-09 0.696272 0.476604 0 0 0 0 0 0 0 0 0 0 0 0 0 0 0 0 0 0 0 0 0 0 0 0 0 0 0 0 0 0 0 0 0 0 0 0 0 0 0 0 0 0
1.36067 2.2439e-09 7.1903e-10 1.52487e-09 0.679563 0.424742 0 0 0 0 0 0 0 0 0 0 0 0 0 0 0 0 0 0 0 0 0 0 0 0 0 0 0 0 0 0 0 0 0 0 0 0 0 0 0 0 0 0
1.43051 1.9921e-09 6.78811e-10 1.31329e-09 0.659249 0.375403 0 0 0 0 0 0 0 0 0 0 0 0 0 0 0 0 0 0 0 0 0 0 0 0 0 0 0 0 0 0 0 0 0 0 0 0 0 0 0 0 0 0
1.50394 1.77514e-09 6.43769e-10 1.13138e-09 0.637343 0.331185 0 0 0 0 0 0 0 0 0 0 0 0 0 0 0 0 0 0 0 0 0 0 0 0 0 0 0 0 0 0 0 0 0 0 0 0 0 0 0 0 0 0
1.58114 1.58199e-09 6.12459e-10 9.69535e-10 0.612856 0.292671 0 0 0 0 0 0 0 0 0 0 0 0 0 0 0 0 0 0 0 0 0 0 0 0 0 0 0 0 0 0 0 0 0 0 0 0 0 0 0 0 0 0
1.6623 1.40951e-09 5.84463e-10 8.25042e-10 0.585342 0.259341 0 0 0 0 0 0 0 0 0 0 0 0 0 0 0 0 0 0 0 0 0 0 0 0 0 0 0 0 0 0 0 0 0 0 0 0 0 0 0 0 0 0
1.74763 1.25715e-09 5.59866e-10 6.9728e-10 0.554653 0.230577 0 0 0 0 0 0 0 0 0 0 0 0 0 0 0 0 0 0 0 0 0 0 0 0 0 0 0 0 0 0 0 0 0 0 0 0 0 0 0 0 0 0
1.83733 1.12437e-09 5.38998e-10 5.85368e-10 0.520621 0.20566 0 0 0 0 0 0 0 0 0 0 0 0 0 0 0 0 0 0 0 0 0 0 0 0 0 0 0 0 0 0 0 0 0 0 0 0 0 0 0 0 0 0
1.93164 1.01051e-09 5.21964e-10 4.88551e-10 0.483467 0.184018 0 0 0 0 0 0 0 0 0 0 0 0 0 0 0 0 0 0 0 0 0 0 0 0 0 0 0 0 0 0 0 0 0 0 0 0 0 0 0 0 0 0
2.03079 9.14788e-10 5.08617e-10 4.06172e-10 0.444006 0.165064 0 0 0 0 0 0 0 0 0 0 0 0 0 0 0 0 0 0 0 0 0 0 0 0 0 0 0 0 0 0 0 0 0 0 0 0 0 0 0 0 0 0
2.13503 8.3491e-10 4.9814e-10 3.3677e-10 0.403361 0.14834 0 0 0 0 0 0 0 0 0 0 0 0 0 0 0 0 0 0 0 0 0 0 0 0 0 0 0 0 0 0 0 0 0 0 0 0 0 0 0 0 0 0
2.24463 7.67577e-10 4.88858e-10 2.78718e-10 0.363115 0.133515 0 0 0 0 0 0 0 0 0 0 0 0 0 0 0 0 0 0 0 0 0 0 0 0 0 0 0 0 0 0 0 0 0 0 0 0 0 0 0 0 0 0
2.35984 7.10564e-10 4.80285e-10 2.30278e-10 0.324078 0.12035 0 0 0 0 0 0 0 0 0 0 0 0 0 0 0 0 0 0 0 0 0 0 0 0 0 0 0 0 0 0 0 0 0 0 0 0 0 0 0 0 0 0
2.48097 6.62968e-10 4.72988e-10 1.8998e-10 0.286559 0.108576 0 0 0 0 0 0 0 0 0 0 0 0 0 0 0 0 0 0 0 0 0 0 0 0 0 0 0 0 0 0 0 0 0 0 0 0 0 0 0 0 0 0
2.60832 6.23637e-10 4.67038e-10 1.56599e-10 0.251106 0.0980228 0 0 0 0 0 0 0 0 0 0 0 0 0 0 0 0 0 0 0 0 0 0 0 0 0 0 0 0 0 0 0 0 0 0 0 0 0 0 0 0 0 0
2.74221 5.91997e-10 4.62965e-10 1.29031e-10 0.217959 0.0885438 0 0 0 0 0 0 0 0 0 0 0 0 0 0 0 0 0 0 0 0 0 0 0 0 0 0 0 0 0 0 0 0 0 0 0 0 0 0 0 0 0 0
2.88297 5.67233e-10 4.60825e-10 1.06408e-10 0.187592 0.080005 0 0 0 0 0 0 0 0 0 0 0 0 0 0 0 0 0 0 0 0 0 0 0 0 0 0 0 0 0 0 0 0 0 0 0 0 0 0 0 0 0 0
3.03095 5.48589e-10 4.60546e-10 8.80422e-11 0.160489 0.0723111 0 0 0 0 0 0 0 0 0 0 0 0 0 0 0 0 0 0 0 0 0 0 0 0 0 0 0 0 0 0 0 0 0 0 0 0 0 0 0 0 0 0
3.18653 5.29591e-10 4.56581e-10 7.30103e-11 0.137862 0.0653617 0 0 0 0 0 0 0 0 0 0 0 0 0 0 0 0 0 0 0 0 0 0 0 0 0 0 0 0 0 0 0 0 0 0 0 0 0 0 0 0 0 0
3.35009 5.21113e-10 4.61434e-10 5.96795e-11 0.114523 0.0590749 0 0 0 0 0 0 0 0 0 0 0 0 0 0 0 0 0 0 0 0 0 0 0 0 0 0 0 0 0 0 0 0 0 0 0 0 0 0 0 0 0 0
3.52205 5.08771e-10 4.5661e-10 5.21607e-11 0.102523 0.0533867 0 0 0 0 0 0 0 0 0 0 0 0 0 0 0 0 0 0 0 0 0 0 0 0 0 0 0 0 0 0 0 0 0 0 0 0 0 0 0 0 0 0
3.70284 4.64002e-10 4.21542e-10 4.24604e-11 0.0915091 0.048242 0 0 0 0 0 0 0 0 0 0 0 0 0 0 0 0 0 0 0 0 0 0 0 0 0 0 0 0 0 0 0 0 0 0 0 0 0 0 0 0 0 0
3.89291 4.43336e-10 4.08549e-10 3.47867e-11 0.0784658 0.0435772 0 0 0 0 0 0 0 0 0 0 0 0 0 0 0 0 0 0 0 0 0 0 0 0 0 0 0 0 0 0 0 0 0 0 0 0 0 0 0 0 0 0
4.09273 4.2642e-10 3.97904e-10 2.8516e-11 0.0668729 0.0393438 0 0 0 0 0 0 0 0 0 0 0 0 0 0 0 0 0 0 0 0 0 0 0 0 0 0 0 0 0 0 0 0 0 0 0 0 0 0 0 0 0 0
4.30281 4.12893e-10 3.89511e-10 2.3382e-11 0.0566297 0.0355038 0 0 0 0 0 0 0 0 0 0 0 0 0 0 0 0 0 0 0 0 0 0 0 0 0 0 0 0 0 0 0 0 0 0 0 0 0 0 0 0 0 0
4.52368 4.02647e-10 3.83458e-10 1.91899e-11 0.0476593 0.0320249 0 0 0 0 0 0 0 0 0 0 0 0 0 0 0 0 0 0 0 0 0 0 0 0 0 0 0 0 0 0 0 0 0 0 0 0 0 0 0 0 0 0
4.75588 3.94954e-10 3.79177e-10 1.57762e-11 0.0399444 0.0288651 0 0 0 0 0 0 0 0 0 0 0 0 0 0 0 0 0 0 0 0 0 0 0 0 0 0 0 0 0 0 0 0 0 0 0 0 0 0 0 0 0 0
5 3.88564e-10 3.75568e-10 1.29967e-11 0.0334481 0.0259886 0 0 0 0 0 0 0 0 0 0 0 0 0 0 0 0 0 0 0 0 0 0 0 0 0 0 0 0 0 0 0 0 0 0 0 0 0 0 0 0 0 0
5.25665 3.82406e-10 3.71687e-10 1.07186e-11 0.0280293 0.0233715 0 0 0 0 0 0 0 0 0 0 0 0 0 0 0 0 0 0 0 0 0 0 0 0 0 0 0 0 0 0 0 0 0 0 0 0 0 0 0 0 0 0
5.52648 3.76386e-10 3.67546e-10 8.83999e-12 0.0234865 0.0209997 0 0 0 0 0 0 0 0 0 0 0 0 0 0 0 0 0 0 0 0 0 0 0 0 0 0 0 0 0 0 0 0 0 0 0 0 0 0 0 0 0 0
5.81015 3.70145e-10 3.62863e-10 7.28209e-12 0.0196736 0.0188353 0 0 0 0 0 0 0 0 0 0 0 0 0 0 0 0 0 0 0 0 0 0 0 0 0 0 0 0 0 0 0 0 0 0 0 0 0 0 0 0 0 0
6.10839 3.64003e-10 3.58017e-10 5.98615e-12 0.0164453 0.0168659 0 0 0 0 0 0 0 0 0 0 0 0 0 0 0 0 0 0 0 0 0 0 0 0 0 0 0 0 0 0 0 0 1.4013e-45 0 2.8026e-45 0 7.00649e-45 0 1.82169e-44 0 4.48416e-44 0
6.42193 3.57806e-10 3.52903e-10 4.90265e-12 0.013702 0.0150671 0 0 0 0 0 0 0 0 0 0 0 0 0 0 0 0 0 0 0 0 0 0 0 0 1.4013e-45 0 4.2039e-45 0 1.26117e-44 0 4.2039e-44 0 1.28919e-43 0 3.64338e-43 0 9.52883e-43 0 2.38641e-42 0 5.45666e-42 0
6.75157 3.52831e-10 3.48848e-10 3.98321e-12 0.0112893 0.013408 0 0 0 0 0 0 0 0 0 0 0 0 0 0 0 0 0 0 1.4013e-45 0 5.60519e-45 0 2.8026e-44 0 1.23314e-43 0 4.80645e-43 0 1.66054e-42 0 5.14977e-42 0 1.47949e-41 0 3.95446e-41 0 9.8692e-41 0 2.36356e-40 0 5.19042e-40 0
7.09813 3.45087e-10 3.41852e-10 3.23473e-12 0.00937368 0.0118452 0 0 0 0 0 0 0 0 0 0 0 0 0 0 1.4013e-45 0 1.54143e-44 0 1.16308e-43 0 6.93643e-43 0 3.30987e-42 0 1.38827e-41 0 5.03809e-41 0 1.63851e-40 0 4.80804e-40 0 1.31205e-39 0 3.34256e-39 0 7.97762e-39 0 1.8308e-38 0 3.86898e-38 0
7.46248 3.38455e-10 3.35894e-10 2.56112e-12 0.0075671 0.0103252 0 0 0 0 0 0 0 0 0 0 0 0 1.4013e-44 0 1.9478e-43 0 1.86373e-42 0 1.29186e-41 0 7.07432e-41 0 3.12453e-40 0 1.222e-39 0 4.1643e-39 0 1.27855e-38 0 3.55966e-38 0 9.24922e-38 0 2.25115e-37 0 5.14937e-37 0 1.13477e-36 0 2.31205e-36 0
7.84553 3.31601e-10 3.29665e-10 1.93549e-12 0.00583681 0.00887723 0 0 0 0 0 0 0 0 1.4013e-45 0 7.9874e-44 0 1.7278e-42 0 2.08387e-41 0 1.78397e-40 0 1.12506e-39 0 5.67011e-39 0 2.32914e-38 0 8.52247e-38 0 2.73551e-37 0 7.95111e-37 0 2.10575e-36 0 5.22224e-36 0 1.21701e-35 0 2.67362e-35 0 5.6689e-35 0 1.11557e-34 0
8.24824 3.66724e-10 3.65304e-10 1.42004e-12 0.00387224 0.00764364 0 0 0 0 0 0 1.4013e-45 0 2.45227e-43 0 9.94361e-42 0 1.84932e-40 0 1.97555e-39 0 1.52295e-38 0 8.77863e-38 0 4.08836e-37 0 1.56745e-36 0 5.38341e-36 0 1.63231e-35 0 4.50368e-35 0 1.13735e-34 0 2.69827e-34 0 6.03372e-34 0 1.27556e-33 0 2.60714e-33 0 4.96374e-33 0
8.67162 4.4297e-10 4.41741e-10 1.22909e-12 0.00277467 0.0066568 0 0 0 0 0 0 2.66247e-43 0 3.12391e-41 0 1.05887e-39 0 1.70746e-38 0 1.62481e-37 0 1.13369e-36 0 5.99919e-36 0 2.59175e-35 0 9.30557e-35 0 3.00915e-34 0 8.64307e-34 0 2.26941e-33 0 5.47769e-33 0 1.24586e-32 0 2.67858e-32 0 5.45943e-32 0 1.07759e-31 0 1.98813e-31 0
9.11674 6.05969e-10 6.04508e-10 1.46089e-12 0.00241083 0.00568025 0 0 0 0 4.48416e-44 0 3.80901e-41 0 3.54961e-39 0 1.01303e-37 0 1.42618e-36 0 1.21578e-35 0 7.71533e-35 0 3.76378e-34 0 1.5139e-33 0 5.10672e-33 0 1.5594e-32 0 4.25411e-32 0 1.06558e-31 0 2.46369e-31 0 5.38312e-31 0 1.11491e-30 0 2.19474e-30 0 4.19053e-30 0 7.50368e-30 0
9.5847 7.40948e-10 7.38914e-10 2.03459e-12 0.00274593 0.00506871 0 0 0 0 6.29603e-42 0 3.84064e-39 0 2.86825e-37 0 6.95019e-36 0 8.59949e-35 0 6.60259e-34 0 3.82853e-33 0 1.72861e-32 0 6.49617e-32 0 2.065e-31 0 5.97126e-31 0 1.55109e-30 0 3.71487e-30 0 8.24464e-30 0 1.73399e-29 0 3.46587e-29 0 6.60078e-29 0 1.22115e-28 0 2.1253e-28 0
10.0767 7.21296e-10 7.19045e-10 2.25106e-12 0.00312086 0.00479871 0 0 5.60519e-45 0 5.50517e-40 0 2.4552e-37 0 1.4854e-35 0 3.08057e-34 0 3.37107e-33 0 2.34309e-32 0 1.24692e-31 0 5.23046e-31 0 1.84259e-30 0 5.53566e-30 0 1.51984e-29 0 3.76816e-29 0 8.64801e-29 0 1.84604e-28 0 3.74414e-28 0 7.23491e-28 0 1.33523e-27 0 2.39709e-27 0 4.06057e-27 0
10.5939 6.16008e-10 6.14004e-10 2.00437e-12 0.0032538 0.00470693 0 0 5.91348e-43 0 3.34973e-38 0 1.10911e-35 0 5.49211e-34 0 9.82284e-33 0 9.56399e-32 0 6.04712e-31 0 2.96585e-30 0 1.15997e-29 0 3.8427e-29 0 1.09409e-28 0 2.85934e-28 0 6.78177e-28 0 1.49457e-27 0 3.0744e-27 0 6.02389e-27 0 1.12717e-26 0 2.01892e-26 0 3.52242e-26 0 5.81524e-26 0
11.1377 5.15208e-10 5.13522e-10 1.68662e-12 0.00327366 0.00481743 0 0 4.82313e-41 0 1.60123e-36 0 3.99377e-34 0 1.63456e-32 0 2.5395e-31 0 2.21254e-30 0 1.27849e-29 0 5.80204e-29 0 2.12305e-28 0 6.63363e-28 0 1.79465e-27 0 4.47532e-27 0 1.01763e-26 0 2.15777e-26 0 4.28507e-26 0 8.12478e-26 0 1.47448e-25 0 2.56691e-25 0 4.35843e-25 0 7.02143e-25 0
11.7094 4.13428e-10 4.12109e-10 1.3187e-12 0.00318967 0.00484922 4.06377e-44 0 2.98182e-39 0 5.95481e-35 0 1.13441e-32 0 3.87332e-31 0 5.26337e-30 0 4.12578e-29 0 2.18836e-28 0 9.22421e-28 0 3.16813e-27 0 9.36344e-27 0 2.41302e-26 0 5.7548e-26 0 1.25712e-25 0 2.56954e-25 0 4.93469e-25 0 9.06877e-25 0 1.5986e-24 0 2.70866e-24 0 4.48176e-24 0 7.05397e-24 0
12.3105 3.31314e-10 3.30332e-10 9.81649e-13 0.0029629 0.00482956 3.4584e-42 0 1.47129e-37 0 1.81186e-33 0 2.67124e-31 0 7.6765e-30 0 9.18368e-29 0 6.51027e-28 0 3.18297e-27 0 1.25065e-26 0 4.04434e-26 0 1.13371e-25 0 2.78969e-25 0 6.37667e-25 0 1.34082e-24 0 2.64663e-24 0 4.92335e-24 0 8.78304e-24 0 1.50597e-23 0 2.48685e-23 0 4.01482e-23 0 6.18064e-23 0
12.9424 3.00021e-10 2.99308e-10 7.12632e-13 0.00237527 0.0046257 2.6219e-40 0 6.6295e-36 0 5.15459e-32 0 5.95531e-30 0 1.4526e-28 0 1.53948e-27 0 9.9181e-27 0 4.48756e-26 0 1.6493e-25 0 5.03644e-25 0 1.34252e-24 0 3.16142e-24 0 6.94051e-24 0 1.40737e-23 0 2.68727e-23 0 4.84973e-23 0 8.41064e-23 0 1.40464e-22 0 2.26342e-22 0 3.56964e-22 0 5.38077e-22 0
