# 7.9433e-06 0 94 : grain size, compostion index, size index
# Heating and cooling timescale: 0.0826984 68679.3
# Ratio of heating to cooling to determine stochastic cutoff: 100
# Equilibrium emission is recorded even for those grains in the stochastic regime.
# Emission spectrum was computed for: 
# Type: IRSF
# Scales: 0.25 0.5 1 1.5 2 2.5 3 3.5 4 4.5 5 5.5 6 6.5 7 7.5 8 8.5 9 9.5 10
# StochasticallyHeated: 0 0 0 0 0 0 0 0 0 0 0 0 0 0 0 0 0 0 0 0 0
# Temperature: -1
# Wavelength  CExt  CAbs  CSca  Albedo G EqEm1 StEm1 EqEm2 StEm2 EqEm3 StEm3 EqEm4 StEm4 EqEm5 StEm5 EqEm6 StEm6 EqEm7 StEm7 EqEm8 StEm8 EqEm9 StEm9 EqEm10 StEm10 EqEm11 StEm11 EqEm12 StEm12 EqEm13 StEm13 EqEm14 StEm14 EqEm15 StEm15 EqEm16 StEm16 EqEm17 StEm17 EqEm18 StEm18 EqEm19 StEm19 EqEm20 StEm20 EqEm21 StEm21
0.05 1.3154e-10 6.03274e-11 7.12127e-11 0.541377 0.00576547 0 0 0 0 0 0 0 0 0 0 0 0 0 0 0 0 0 0 0 0 0 0 0 0 0 0 0 0 0 0 0 0 0 0 0 0 0 0 0 0 0 0
0.0525665 1.45391e-10 6.66795e-11 7.87111e-11 0.541377 0.00637255 0 0 0 0 0 0 0 0 0 0 0 0 0 0 0 0 0 0 0 0 0 0 0 0 0 0 0 0 0 0 0 0 0 0 0 0 0 0 0 0 0 0
0.0552647 1.607e-10 7.37006e-11 8.6999e-11 0.541377 0.00704355 0 0 0 0 0 0 0 0 0 0 0 0 0 0 0 0 0 0 0 0 0 0 0 0 0 0 0 0 0 0 0 0 0 0 0 0 0 0 0 0 0 0
0.0581015 1.7762e-10 8.14609e-11 9.61595e-11 0.541377 0.0077852 0 0 0 0 0 0 0 0 0 0 0 0 0 0 0 0 0 0 0 0 0 0 0 0 0 0 0 0 0 0 0 0 0 0 0 0 0 0 0 0 0 0
0.0610839 1.96323e-10 9.00383e-11 1.06285e-10 0.541377 0.00860494 0 0 0 0 0 0 0 0 0 0 0 0 0 0 0 0 0 0 0 0 0 0 0 0 0 0 0 0 0 0 0 0 0 0 0 0 0 0 0 0 0 0
0.0642193 2.16995e-10 9.95189e-11 1.17476e-10 0.541377 0.009511 0 0 0 0 0 0 0 0 0 0 0 0 0 0 0 0 0 0 0 0 0 0 0 0 0 0 0 0 0 0 0 0 0 0 0 0 0 0 0 0 0 0
0.0675157 2.39843e-10 1.09998e-10 1.29846e-10 0.541377 0.0105125 0 0 0 0 0 0 0 0 0 0 0 0 0 0 0 0 0 0 0 0 0 0 0 0 0 0 0 0 0 0 0 0 0 0 0 0 0 0 0 0 0 0
0.0709813 2.65098e-10 1.2158e-10 1.43518e-10 0.541377 0.0116194 0 0 0 0 0 0 0 0 0 0 0 0 0 0 0 0 0 0 0 0 0 0 0 0 0 0 0 0 0 0 0 0 0 0 0 0 0 0 0 0 0 0
0.0746248 2.93011e-10 1.34382e-10 1.58629e-10 0.541377 0.0128428 0 0 0 0 0 0 0 0 0 0 0 0 0 0 0 0 0 0 0 0 0 0 0 0 0 0 0 0 0 0 0 0 0 0 0 0 0 0 0 0 0 0
0.0784553 3.23864e-10 1.48532e-10 1.75332e-10 0.541377 0.0141951 0 0 0 0 0 0 0 0 0 0 0 0 0 0 0 0 0 0 0 0 0 0 0 0 0 0 0 0 0 0 0 0 0 0 0 0 0 0 0 0 0 0
0.0824824 3.57965e-10 1.64171e-10 1.93794e-10 0.541377 0.0156898 0 0 0 0 0 0 0 0 0 0 0 0 0 0 0 0 0 0 0 0 0 0 0 0 0 0 0 0 0 0 0 0 0 0 0 0 0 0 0 0 0 0
0.0867162 3.95657e-10 1.81458e-10 2.142e-10 0.541377 0.0173419 0 0 0 0 0 0 0 0 0 0 0 0 0 0 0 0 0 0 0 0 0 0 0 0 0 0 0 0 0 0 0 0 0 0 0 0 0 0 0 0 0 0
0.0911674 4.37318e-10 2.00564e-10 2.36754e-10 0.541377 0.0191679 0 0 0 0 0 0 0 0 0 0 0 0 0 0 0 0 0 0 0 0 0 0 0 0 0 0 0 0 0 0 0 0 0 0 0 0 0 0 0 0 0 0
0.095847 4.83366e-10 2.21683e-10 2.61683e-10 0.541377 0.0211862 0 0 0 0 0 0 0 0 0 0 0 0 0 0 0 0 0 0 0 0 0 0 0 0 0 0 0 0 0 0 0 0 0 0 0 0 0 0 0 0 0 0
0.100767 5.25556e-10 2.42789e-10 2.82767e-10 0.538034 0.0235692 0 0 0 0 0 0 0 0 0 0 0 0 0 0 0 0 0 0 0 0 0 0 0 0 0 0 0 0 0 0 0 0 0 0 0 0 0 0 0 0 0 0
0.105939 5.24322e-10 2.52965e-10 2.71356e-10 0.517538 0.0256046 0 0 0 0 0 0 0 0 0 0 0 0 0 0 0 0 0 0 0 0 0 0 0 0 0 0 0 0 0 0 0 0 0 0 0 0 0 0 0 0 0 0
0.111377 5.26887e-10 2.57407e-10 2.6948e-10 0.511457 0.0289403 0 0 0 0 0 0 0 0 0 0 0 0 0 0 0 0 0 0 0 0 0 0 0 0 0 0 0 0 0 0 0 0 0 0 0 0 0 0 0 0 0 0
0.117094 5.29479e-10 2.68512e-10 2.60967e-10 0.492875 0.0274507 0 0 0 0 0 0 0 0 0 0 0 0 0 0 0 0 0 0 0 0 0 0 0 0 0 0 0 0 0 0 0 0 0 0 0 0 0 0 0 0 0 0
0.123105 5.27206e-10 2.83742e-10 2.43465e-10 0.461801 0.0236555 0 0 0 0 0 0 0 0 0 0 0 0 0 0 0 0 0 0 0 0 0 0 0 0 0 0 0 0 0 0 0 0 0 0 0 0 0 0 0 0 0 0
0.129424 5.44584e-10 2.92751e-10 2.51833e-10 0.462432 0.0199126 0 0 0 0 0 0 0 0 0 0 0 0 0 0 0 0 0 0 0 0 0 0 0 0 0 0 0 0 0 0 0 0 0 0 0 0 0 0 0 0 0 0
0.136067 5.83887e-10 2.90472e-10 2.93415e-10 0.50252 0.0168557 0 0 0 0 0 0 0 0 0 0 0 0 0 0 0 0 0 0 0 0 0 0 0 0 0 0 0 0 0 0 0 0 0 0 0 0 0 0 0 0 0 0
0.143051 5.92605e-10 2.79657e-10 3.12947e-10 0.528088 0.0143876 0 0 0 0 0 0 0 0 0 0 0 0 0 0 0 0 0 0 0 0 0 0 0 0 0 0 0 0 0 0 0 0 0 0 0 0 0 0 0 0 0 0
0.150394 5.52808e-10 2.7108e-10 2.81728e-10 0.509631 0.0122986 0 0 0 0 0 0 0 0 0 0 0 0 0 0 0 0 0 0 0 0 0 0 0 0 0 0 0 0 0 0 0 0 0 0 0 0 0 0 0 0 0 0
0.158114 4.84608e-10 2.63013e-10 2.21594e-10 0.457265 0.01055 0 0 0 0 0 0 0 0 0 0 0 0 0 0 0 0 0 0 0 0 0 0 0 0 0 0 0 0 0 0 0 0 0 0 0 0 0 0 0 0 0 0
0.16623 4.29624e-10 2.58938e-10 1.70686e-10 0.397292 0.00908216 0 0 0 0 0 0 0 0 0 0 0 0 0 0 0 0 0 0 0 0 0 0 0 0 0 0 0 0 0 0 0 0 0 0 0 0 0 0 0 0 0 0
0.174762 4.04773e-10 2.58355e-10 1.46419e-10 0.36173 0.00782097 0 0 0 0 0 0 0 0 0 0 0 0 0 0 0 0 0 0 0 0 0 0 0 0 0 0 0 0 0 0 0 0 0 0 0 0 0 0 0 0 0 0
0.183733 4.07185e-10 2.60216e-10 1.46969e-10 0.36094 0.00667218 0 0 0 0 0 0 0 0 0 0 0 0 0 0 0 0 0 0 0 0 0 0 0 0 0 0 0 0 0 0 0 0 0 0 0 0 0 0 0 0 0 0
0.193164 4.38289e-10 2.66199e-10 1.7209e-10 0.392641 0.00556038 0 0 0 0 0 0 0 0 0 0 0 0 0 0 0 0 0 0 0 0 0 0 0 0 0 0 0 0 0 0 0 0 0 0 0 0 0 0 0 0 0 0
0.203079 4.90802e-10 2.77281e-10 2.13522e-10 0.435046 0.00446034 0 0 0 0 0 0 0 0 0 0 0 0 0 0 0 0 0 0 0 0 0 0 0 0 0 0 0 0 0 0 0 0 0 0 0 0 0 0 0 0 0 0
0.213503 5.50785e-10 2.91315e-10 2.5947e-10 0.471091 0.00342932 0 0 0 0 0 0 0 0 0 0 0 0 0 0 0 0 0 0 0 0 0 0 0 0 0 0 0 0 0 0 0 0 0 0 0 0 0 0 0 0 0 0
0.224463 6.00478e-10 3.00381e-10 3.00096e-10 0.499763 0.00254317 0 0 0 0 0 0 0 0 0 0 0 0 0 0 0 0 0 0 0 0 0 0 0 0 0 0 0 0 0 0 0 0 0 0 0 0 0 0 0 0 0 0
0.235984 6.2688e-10 2.9802e-10 3.2886e-10 0.524598 0.00182186 0 0 0 0 0 0 0 0 0 0 0 0 0 0 0 0 0 0 0 0 0 0 0 0 0 0 0 0 0 0 0 0 0 0 0 0 0 0 0 0 0 0
0.248097 6.35149e-10 2.90919e-10 3.4423e-10 0.541967 0.00138916 0 0 0 0 0 0 0 0 0 0 0 0 0 0 0 0 0 0 0 0 0 0 0 0 0 0 0 0 0 0 0 0 0 0 0 0 0 0 0 0 0 0
0.260832 6.32277e-10 2.87479e-10 3.44798e-10 0.545328 0.00141961 0 0 0 0 0 0 0 0 0 0 0 0 0 0 0 0 0 0 0 0 0 0 0 0 0 0 0 0 0 0 0 0 0 0 0 0 0 0 0 0 0 0
0.274221 6.21498e-10 2.89779e-10 3.31719e-10 0.533741 0.00187131 0 0 0 0 0 0 0 0 0 0 0 0 0 0 0 0 0 0 0 0 0 0 0 0 0 0 0 0 0 0 0 0 0 0 0 0 0 0 0 0 0 0
0.288297 6.11072e-10 2.98037e-10 3.13035e-10 0.512272 0.00251556 0 0 0 0 0 0 0 0 0 0 0 0 0 0 0 0 0 0 0 0 0 0 0 0 0 0 0 0 0 0 0 0 0 0 0 0 0 0 0 0 0 0
0.303095 6.07562e-10 3.09209e-10 2.98353e-10 0.491066 0.0028362 0 0 0 0 0 0 0 0 0 0 0 0 0 0 0 0 0 0 0 0 0 0 0 0 0 0 0 0 0 0 0 0 0 0 0 0 0 0 0 0 0 0
0.318653 6.10402e-10 3.17592e-10 2.9281e-10 0.4797 0.00297223 0 0 0 0 0 0 0 0 0 0 0 0 0 0 0 0 0 0 0 0 0 0 0 0 0 0 0 0 0 0 0 0 0 0 0 0 0 0 0 0 0 0
0.335009 6.17071e-10 3.20916e-10 2.96155e-10 0.479937 0.00293231 0 0 0 0 0 0 0 0 0 0 0 0 0 0 0 0 0 0 0 0 0 0 0 0 0 0 0 0 0 0 0 0 0 0 0 0 0 0 0 0 0 0
0.352205 6.24384e-10 3.22565e-10 3.01819e-10 0.483387 0.00278811 0 0 0 0 0 0 0 0 0 0 0 0 0 0 0 0 0 0 0 0 0 0 0 0 0 0 0 0 0 0 0 0 0 0 0 0 0 0 0 0 0 0
0.370284 6.30183e-10 3.26024e-10 3.04159e-10 0.482651 0.00261033 0 0 0 0 0 0 0 0 0 0 0 0 0 0 0 0 0 0 0 0 0 0 0 0 0 0 0 0 0 0 0 0 0 0 0 0 0 0 0 0 0 0
0.389291 6.33741e-10 3.31403e-10 3.02338e-10 0.477069 0.00243645 0 0 0 0 0 0 0 0 0 0 0 0 0 0 0 0 0 0 0 0 0 0 0 0 0 0 0 0 0 0 0 0 0 0 0 0 0 0 0 0 0 0
0.409273 6.34668e-10 3.37214e-10 2.97454e-10 0.468677 0.00226652 0 0 0 0 0 0 0 0 0 0 0 0 0 0 0 0 0 0 0 0 0 0 0 0 0 0 0 0 0 0 0 0 0 0 0 0 0 0 0 0 0 0
0.430281 6.31797e-10 3.42045e-10 2.89752e-10 0.458615 0.00210471 0 0 0 0 0 0 0 0 0 0 0 0 0 0 0 0 0 0 0 0 0 0 0 0 0 0 0 0 0 0 0 0 0 0 0 0 0 0 0 0 0 0
0.452368 6.23072e-10 3.44513e-10 2.78559e-10 0.447073 0.00193723 0 0 0 0 0 0 0 0 0 0 0 0 0 0 0 0 0 0 0 0 0 0 0 0 0 0 0 0 0 0 0 0 0 0 0 0 0 0 0 0 0 0
0.475588 6.06489e-10 3.43307e-10 2.63183e-10 0.433944 0.00177642 0 0 0 0 0 0 0 0 0 0 0 0 0 0 0 0 0 0 0 0 0 0 0 0 0 0 0 0 0 0 0 0 0 0 0 0 0 0 0 0 0 0
0.5 5.80842e-10 3.37347e-10 2.43495e-10 0.41921 0.00162159 0 0 0 0 0 0 0 0 0 0 0 0 0 0 0 0 0 0 0 0 0 0 0 0 0 0 0 0 0 0 0 0 0 0 0 0 0 0 0 0 0 0
0.525665 5.46918e-10 3.26507e-10 2.20411e-10 0.403005 0.0014751 0 0 0 0 0 0 0 0 0 0 0 0 0 0 0 0 0 0 0 0 0 0 0 0 0 0 0 0 0 0 0 0 0 0 0 0 0 0 0 0 0 0
0.552648 5.06943e-10 3.11504e-10 1.95439e-10 0.385524 0.00134175 0 0 0 0 0 0 0 0 0 0 0 0 0 0 0 0 0 0 0 0 0 0 0 0 0 0 0 0 0 0 0 0 0 0 0 0 0 0 0 0 0 0
0.581015 4.6386e-10 2.93639e-10 1.70221e-10 0.366967 0.00121775 0 0 0 0 0 0 0 0 0 0 0 0 0 0 0 0 0 0 0 0 0 0 0 0 0 0 0 0 0 0 0 0 0 0 0 0 0 0 0 0 0 0
0.610839 4.20673e-10 2.7447e-10 1.46203e-10 0.347545 0.00110516 0 0 0 0 0 0 0 0 0 0 0 0 0 0 0 0 0 0 0 0 0 0 0 0 0 0 0 0 0 0 0 0 0 0 0 0 0 0 0 0 0 0
0.642193 3.79465e-10 2.55201e-10 1.24263e-10 0.32747 0.00100302 0 0 0 0 0 0 0 0 0 0 0 0 0 0 0 0 0 0 0 0 0 0 0 0 0 0 0 0 0 0 0 0 0 0 0 0 0 0 0 0 0 0
0.675157 3.41458e-10 2.36618e-10 1.04841e-10 0.307038 0.000910957 0 0 0 0 0 0 0 0 0 0 0 0 0 0 0 0 0 0 0 0 0 0 0 0 0 0 0 0 0 0 0 0 0 0 0 0 0 0 0 0 0 0
0.709813 3.07114e-10 2.19095e-10 8.80189e-11 0.2866 0.00082817 0 0 0 0 0 0 0 0 0 0 0 0 0 0 0 0 0 0 0 0 0 0 0 0 0 0 0 0 0 0 0 0 0 0 0 0 0 0 0 0 0 0
0.746248 2.76392e-10 2.02747e-10 7.36442e-11 0.266449 0.000754183 0 0 0 0 0 0 0 0 0 0 0 0 0 0 0 0 0 0 0 0 0 0 0 0 0 0 0 0 0 0 0 0 0 0 0 0 0 0 0 0 0 0
0.784553 2.49007e-10 1.87531e-10 6.14761e-11 0.246885 0.000686995 0 0 0 0 0 0 0 0 0 0 0 0 0 0 0 0 0 0 0 0 0 0 0 0 0 0 0 0 0 0 0 0 0 0 0 0 0 0 0 0 0 0
0.824824 2.24599e-10 1.73363e-10 5.12356e-11 0.228121 0.000626788 0 0 0 0 0 0 0 0 0 0 0 0 0 0 0 0 0 0 0 0 0 0 0 0 0 0 0 0 0 0 0 0 0 0 0 0 0 0 0 0 0 0
0.867162 2.02767e-10 1.60124e-10 4.26434e-11 0.210307 0.000572518 0 0 0 0 0 0 0 0 0 0 0 0 0 0 0 0 0 0 0 0 0 0 0 0 0 0 0 0 0 0 0 0 0 0 0 0 0 0 0 0 0 0
0.911674 1.83172e-10 1.47721e-10 3.54511e-11 0.19354 0.000523427 0 0 0 0 0 0 0 0 0 0 0 0 0 0 0 0 0 0 0 0 0 0 0 0 0 0 0 0 0 0 0 0 0 0 0 0 0 0 0 0 0 0
0.95847 1.65498e-10 1.36063e-10 2.94352e-11 0.177858 0.00047944 0 0 0 0 0 0 0 0 0 0 0 0 0 0 0 0 0 0 0 0 0 0 0 0 0 0 0 0 0 0 0 0 0 0 0 0 0 0 0 0 0 0
1.00767 1.49542e-10 1.25127e-10 2.44149e-11 0.163265 0.0004395 0 0 0 0 0 0 0 0 0 0 0 0 0 0 0 0 0 0 0 0 0 0 0 0 0 0 0 0 0 0 0 0 0 0 0 0 0 0 0 0 0 0
1.05939 1.35094e-10 1.14866e-10 2.02276e-11 0.14973 0.000403275 0 0 0 0 0 0 0 0 0 0 0 0 0 0 0 0 0 0 0 0 0 0 0 0 0 0 0 0 0 0 0 0 0 0 0 0 0 0 0 0 0 0
1.11377 1.21949e-10 1.05218e-10 1.67306e-11 0.137194 0.000370298 0 0 0 0 0 0 0 0 0 0 0 0 0 0 0 0 0 0 0 0 0 0 0 0 0 0 0 0 0 0 0 0 0 0 0 0 0 0 0 0 0 0
1.17094 1.10066e-10 9.62368e-11 1.38291e-11 0.125644 0.000339515 0 0 0 0 0 0 0 0 0 0 0 0 0 0 0 0 0 0 0 0 0 0 0 0 0 0 0 0 0 0 0 0 0 0 0 0 0 0 0 0 0 0
1.23105 9.9274e-11 8.78596e-11 1.14144e-11 0.114978 0.000311294 0 0 0 0 0 0 0 0 0 0 0 0 0 0 0 0 0 0 0 0 0 0 0 0 0 0 0 0 0 0 0 0 0 0 0 0 0 0 0 0 0 0
1.29424 8.95011e-11 8.00877e-11 9.41341e-12 0.105177 0.000285362 0 0 0 0 0 0 0 0 0 0 0 0 0 0 0 0 0 0 0 0 0 0 0 0 0 0 0 0 0 0 0 0 0 0 0 0 0 0 0 0 0 0
1.36067 8.06516e-11 7.28964e-11 7.75512e-12 0.0961558 0.000261742 0 0 0 0 0 0 0 0 0 0 0 0 0 0 0 0 0 0 0 0 0 0 0 0 0 0 0 0 0 0 0 0 0 0 0 0 0 0 0 0 0 0
1.43051 7.26357e-11 6.62542e-11 6.38153e-12 0.0878567 0.000240209 0 0 0 0 0 0 0 0 0 0 0 0 0 0 0 0 0 0 0 0 0 0 0 0 0 0 0 0 0 0 0 0 0 0 0 0 0 0 0 0 0 0
1.50394 6.53996e-11 6.01518e-11 5.24783e-12 0.0802425 0.000220279 0 0 0 0 0 0 0 0 0 0 0 0 0 0 0 0 0 0 0 0 0 0 0 0 0 0 0 0 0 0 0 0 0 0 0 0 0 0 0 0 0 0
1.58114 5.88706e-11 5.45577e-11 4.31287e-12 0.0732602 0.000201732 0 0 0 0 0 0 0 0 0 0 0 0 0 0 0 0 0 0 0 0 0 0 0 0 0 0 0 0 0 0 0 0 0 0 0 0 0 0 0 0 0 0
1.6623 5.29794e-11 4.94375e-11 3.54187e-12 0.0668539 0.000184534 0 0 0 0 0 0 0 0 0 0 0 0 0 0 0 0 0 0 0 0 0 0 0 0 0 0 0 0 0 0 0 0 0 0 0 0 0 0 0 0 0 0
1.74763 4.76725e-11 4.47651e-11 2.90737e-12 0.0609863 0.000169005 0 0 0 0 0 0 0 0 0 0 0 0 0 0 0 0 0 0 0 0 0 0 0 0 0 0 0 0 0 0 0 0 0 0 0 0 0 0 0 0 0 0
1.83733 4.28923e-11 4.0507e-11 2.38536e-12 0.0556127 0.000154804 0 0 0 0 0 0 0 0 0 0 0 0 0 0 0 0 0 0 0 0 0 0 0 0 0 0 0 0 0 0 0 0 0 0 0 0 0 0 0 0 0 0
1.93164 3.85893e-11 3.66332e-11 1.95614e-12 0.0506913 0.000141793 0 0 0 0 0 0 0 0 0 0 0 0 0 0 0 0 0 0 0 0 0 0 0 0 0 0 0 0 0 0 0 0 0 0 0 0 0 0 0 0 0 0
2.03079 3.47169e-11 3.31133e-11 1.60358e-12 0.0461902 0.000129725 0 0 0 0 0 0 0 0 0 0 0 0 0 0 0 0 0 0 0 0 0 0 0 0 0 0 0 0 0 0 0 0 0 0 0 0 0 0 0 0 0 0
2.13503 3.12387e-11 2.99243e-11 1.31438e-12 0.0420752 0.000118657 0 0 0 0 0 0 0 0 0 0 0 0 0 0 0 0 0 0 0 0 0 0 0 0 0 0 0 0 0 0 0 0 0 0 0 0 0 0 0 0 0 0
2.24463 2.81097e-11 2.70328e-11 1.07693e-12 0.0383116 0.000108569 0 0 0 0 0 0 0 0 0 0 0 0 0 0 0 0 0 0 0 0 0 0 0 0 0 0 0 0 0 0 0 0 0 0 0 0 0 0 0 0 0 0
2.35984 2.52989e-11 2.44167e-11 8.82232e-13 0.0348723 9.92926e-05 0 0 0 0 0 0 0 0 0 0 0 0 0 0 0 0 0 0 0 0 0 0 0 0 0 0 0 0 0 0 0 0 0 0 0 0 0 0 0 0 0 0
2.48097 2.27735e-11 2.20509e-11 7.22604e-13 0.03173 9.07218e-05 0 0 0 0 0 0 0 0 0 0 0 0 0 0 0 0 0 0 0 0 0 0 0 0 0 0 0 0 0 0 0 0 0 0 0 0 0 0 0 0 0 0
2.60832 2.05053e-11 1.99135e-11 5.91787e-13 0.0288603 8.27967e-05 0 0 0 0 0 0 0 0 0 0 0 0 0 0 0 0 0 0 0 0 0 0 0 0 0 0 0 0 0 0 0 0 0 0 0 0 0 0 0 0 0 0
2.74221 1.847e-11 1.79853e-11 4.84667e-13 0.0262408 7.55862e-05 0 0 0 0 0 0 0 0 0 0 0 0 0 0 0 0 0 0 0 0 0 0 0 0 0 0 0 0 0 0 0 0 0 0 0 0 0 0 0 0 0 0
2.88297 1.66407e-11 1.6244e-11 3.96793e-13 0.0238446 6.90729e-05 0 0 0 0 0 0 0 0 0 0 0 0 0 0 0 0 0 0 0 0 0 0 0 0 0 0 0 0 0 0 0 0 0 0 0 0 0 0 0 0 0 0
3.03095 1.5e-11 1.4675e-11 3.24914e-13 0.021661 6.31538e-05 0 0 0 0 0 0 0 0 0 0 0 0 0 0 0 0 0 0 0 0 0 0 0 0 0 0 0 0 0 0 0 0 0 0 0 0 0 0 0 0 0 0
3.18653 1.35271e-11 1.32611e-11 2.65996e-13 0.019664 5.76567e-05 0 0 0 0 0 0 0 0 0 0 0 0 0 0 0 0 0 0 0 0 0 0 0 0 0 0 0 0 0 0 0 0 0 0 0 0 0 0 0 0 0 0
3.35009 1.22048e-11 1.1987e-11 2.17756e-13 0.0178419 5.2603e-05 0 0 0 0 0 0 0 0 0 0 0 0 0 0 0 0 0 0 0 0 0 0 0 0 0 0 0 0 0 0 0 0 0 0 0 0 0 0 0 0 0 0
3.52205 1.10188e-11 1.08405e-11 1.78271e-13 0.0161788 4.80102e-05 0 0 0 0 0 0 0 0 0 0 0 0 0 0 0 0 0 0 0 0 0 0 0 0 0 0 0 0 0 0 0 0 0 0 0 0 0 0 0 0 0 0
3.70284 9.95418e-12 9.80825e-12 1.45933e-13 0.0146605 4.38066e-05 0 0 0 0 0 0 0 0 0 0 0 0 0 0 0 0 0 0 0 0 0 0 0 0 0 0 0 0 0 0 0 0 0 0 0 0 0 0 0 0 0 0
3.89291 8.99886e-12 8.87941e-12 1.19453e-13 0.0132743 3.9926e-05 0 0 0 0 0 0 0 0 0 0 0 0 0 0 0 0 0 0 0 0 0 0 0 0 0 0 0 0 0 0 0 0 0 0 0 0 0 0 0 0 0 0
4.09273 8.14241e-12 8.04463e-12 9.77828e-14 0.0120091 3.62643e-05 0 0 0 0 0 0 0 0 0 0 0 0 0 0 0 0 0 0 0 0 0 0 0 0 0 0 0 0 0 0 0 0 0 0 0 0 0 0 0 0 0 0
4.30281 7.37382e-12 7.29377e-12 8.00441e-14 0.0108552 3.29535e-05 0 0 0 0 0 0 0 0 0 0 0 0 0 0 0 0 0 0 0 0 0 0 0 0 0 0 0 0 0 0 0 0 1.4013e-45 0 2.8026e-45 0 8.40779e-45 0 2.24208e-44 0 5.74532e-44 0
4.52368 6.68456e-12 6.61903e-12 6.55302e-14 0.00980321 2.99416e-05 0 0 0 0 0 0 0 0 0 0 0 0 0 0 0 0 0 0 0 0 0 0 0 0 0 0 1.4013e-45 0 8.40779e-45 0 2.94273e-44 0 9.80909e-44 0 2.97075e-43 0 8.53391e-43 0 2.31495e-42 0 5.75373e-42 0
4.75588 6.06631e-12 6.01266e-12 5.36496e-14 0.00884386 2.71796e-05 0 0 0 0 0 0 0 0 0 0 0 0 0 0 0 0 0 0 0 0 1.4013e-45 0 9.80909e-45 0 5.04467e-44 0 2.24208e-43 0 8.40779e-43 0 2.94553e-42 0 9.33125e-42 0 2.68951e-41 0 7.32753e-41 0 1.89257e-40 0 4.50062e-40 0
5 5.51113e-12 5.46721e-12 4.39197e-14 0.00796928 2.45398e-05 0 0 0 0 0 0 0 0 0 0 0 0 0 0 0 0 2.8026e-45 0 2.8026e-44 0 1.84971e-43 0 1.04257e-42 0 4.95779e-42 0 2.01731e-41 0 7.10823e-41 0 2.34279e-40 0 7.01626e-40 0 1.92032e-39 0 4.98207e-39 0 1.22851e-38 0 2.80049e-38 0
5.25665 5.01322e-12 4.97727e-12 3.59578e-14 0.00717259 2.21678e-05 0 0 0 0 0 0 0 0 0 0 0 0 1.4013e-45 0 2.94273e-44 0 3.33509e-43 0 2.6975e-42 0 1.6618e-41 0 8.59304e-41 0 3.78494e-40 0 1.4381e-39 0 4.76493e-39 0 1.48163e-38 0 4.20585e-38 0 1.0959e-37 0 2.7139e-37 0 6.40364e-37 0 1.40219e-36 0
5.52648 4.56614e-12 4.53671e-12 2.94388e-14 0.0064472 2.00489e-05 0 0 0 0 0 0 0 0 0 0 7.00649e-45 0 1.8357e-43 0 2.81661e-42 0 2.85963e-41 0 2.0889e-40 0 1.17742e-39 0 5.61885e-39 0 2.30206e-38 0 8.19489e-38 0 2.561e-37 0 7.53421e-37 0 2.0325e-36 0 5.05407e-36 0 1.19739e-35 0 2.70935e-35 0 5.70989e-35 0
5.81015 4.16465e-12 4.14054e-12 2.41037e-14 0.00578769 1.8115e-05 0 0 0 0 0 0 0 0 1.26117e-44 0 6.88038e-43 0 1.59159e-41 0 2.14239e-40 0 1.94279e-39 0 1.28789e-38 0 6.67148e-38 0 2.94987e-37 0 1.12816e-36 0 3.77461e-36 0 1.11578e-35 0 3.11404e-35 0 8.00339e-35 0 1.90358e-34 0 4.32389e-34 0 9.40135e-34 0 1.91049e-33 0
6.10839 3.80345e-12 3.78371e-12 1.97422e-14 0.00519061 1.63023e-05 0 0 0 0 0 0 7.00649e-45 0 1.24435e-42 0 5.52546e-41 0 1.09569e-39 0 1.29903e-38 0 1.05778e-37 0 6.39355e-37 0 3.05639e-36 0 1.25681e-35 0 4.50187e-35 0 1.42e-34 0 3.98117e-34 0 1.05681e-33 0 2.59376e-33 0 5.91362e-33 0 1.29051e-32 0 2.70152e-32 0 5.30307e-32 0
6.42193 3.46172e-12 3.4456e-12 1.61231e-14 0.00465756 1.48144e-05 0 0 0 0 0 0 7.44089e-43 0 9.50963e-41 0 3.50829e-39 0 6.01277e-38 0 6.31791e-37 0 4.64389e-36 0 2.57087e-35 0 1.1386e-34 0 4.3697e-34 0 1.47069e-33 0 4.38588e-33 0 1.16929e-32 0 2.9594e-32 0 6.95184e-32 0 1.52247e-31 0 3.19823e-31 0 6.4579e-31 0 1.22662e-30 0
6.75157 3.18951e-12 3.17629e-12 1.32184e-14 0.00414435 1.32279e-05 0 0 0 0 6.02558e-44 0 5.80278e-41 0 5.85317e-39 0 1.8106e-37 0 2.70118e-36 0 2.53034e-35 0 1.68729e-34 0 8.59214e-34 0 3.53866e-33 0 1.27175e-32 0 4.03401e-32 0 1.14053e-31 0 2.89852e-31 0 7.01084e-31 0 1.57964e-30 0 3.32954e-30 0 6.74537e-30 0 1.31609e-29 0 2.42271e-29 0
7.09813 2.9282e-12 2.91738e-12 1.08238e-14 0.00369639 1.18448e-05 0 0 0 0 5.25207e-42 0 3.58693e-39 0 2.88834e-37 0 7.55631e-36 0 9.8795e-35 0 8.29701e-34 0 5.04315e-33 0 2.37191e-32 0 9.11639e-32 0 3.07794e-31 0 9.22823e-31 0 2.47998e-30 0 6.02203e-30 0 1.39511e-29 0 3.02114e-29 0 6.14026e-29 0 1.20182e-28 0 2.26959e-28 0 4.0553e-28 0
7.46248 2.69371e-12 2.68485e-12 8.86193e-15 0.00328986 1.05694e-05 0 0 2.8026e-45 0 3.59831e-40 0 1.78693e-37 0 1.16139e-35 0 2.59073e-34 0 2.98772e-33 0 2.26154e-32 0 1.25868e-31 0 5.48889e-31 0 1.97542e-30 0 6.28488e-30 0 1.78597e-29 0 4.57343e-29 0 1.06347e-28 0 2.3647e-28 0 4.93122e-28 0 9.68127e-28 0 1.83377e-27 0 3.35716e-27 0 5.83097e-27 0
7.84553 2.48246e-12 2.47521e-12 7.25615e-15 0.00292296 9.34187e-06 0 0 3.11088e-43 0 1.97669e-38 0 7.24965e-36 0 3.84305e-34 0 7.3669e-33 0 7.53971e-32 0 5.1701e-31 0 2.64614e-30 0 1.07388e-29 0 3.63057e-29 0 1.09162e-28 0 2.94783e-28 0 7.20996e-28 0 1.60887e-27 0 3.44056e-27 0 6.92188e-27 0 1.31491e-26 0 2.41415e-26 0 4.29112e-26 0 7.25491e-26 0
8.24824 2.29116e-12 2.28522e-12 5.94109e-15 0.00259305 8.19911e-06 0 0 2.37912e-41 0 8.79887e-37 0 2.41881e-34 0 1.05626e-32 0 1.7529e-31 0 1.60144e-30 0 9.99612e-30 0 4.72415e-29 0 1.79046e-28 0 5.70368e-28 0 1.62521e-27 0 4.18095e-27 0 9.78906e-27 0 2.10044e-26 0 4.32813e-26 0 8.41537e-26 0 1.54932e-25 0 2.76137e-25 0 4.77237e-25 0 7.86431e-25 0
8.67162 2.11977e-12 2.11491e-12 4.8646e-15 0.00229487 7.20916e-06 2.10195e-44 0 1.45039e-39 0 3.20978e-35 0 6.70748e-33 0 2.43584e-31 0 3.52428e-30 0 2.89012e-29 0 1.6497e-28 0 7.22714e-28 0 2.56658e-27 0 7.72643e-27 0 2.09185e-26 0 5.13878e-26 0 1.15422e-25 0 2.38599e-25 0 4.746e-25 0 8.93308e-25 0 1.59635e-24 0 2.76603e-24 0 4.65442e-24 0 7.48516e-24 0
9.11674 1.96507e-12 1.96109e-12 3.98313e-15 0.00202696 6.32492e-06 1.725e-42 0 7.13346e-38 0 9.68612e-34 0 1.5594e-31 0 4.75201e-30 0 6.03452e-29 0 4.46551e-28 0 2.34114e-27 0 9.54253e-27 0 3.18552e-26 0 9.08731e-26 0 2.34351e-25 0 5.50986e-25 0 1.18962e-24 0 2.37352e-24 0 4.5653e-24 0 8.33168e-24 0 1.44727e-23 0 2.44131e-23 0 4.00494e-23 0 6.29301e-23 0
9.5847 1.82612e-12 1.82286e-12 3.26139e-15 0.00178597 5.52644e-06 1.16283e-40 0 2.86191e-36 0 2.44188e-32 0 3.06752e-30 0 7.91143e-29 0 8.87422e-28 0 5.95552e-27 0 2.87967e-26 0 1.09594e-25 0 3.44939e-25 0 9.3491e-25 0 2.30204e-24 0 5.19111e-24 0 1.07946e-23 0 2.08231e-23 0 3.87929e-23 0 6.87479e-23 0 1.16243e-22 0 1.91141e-22 0 3.06078e-22 0 4.70448e-22 0
10.0767 1.70133e-12 1.69866e-12 2.67077e-15 0.00156981 4.78203e-06 6.29828e-39 0 9.46173e-35 0 5.18928e-31 0 5.14856e-29 0 1.13303e-27 0 1.12942e-26 0 6.90682e-26 0 3.09233e-25 0 1.10253e-24 0 3.2812e-24 0 8.47068e-24 0 1.99598e-23 0 4.32573e-23 0 8.6793e-23 0 1.6214e-22 0 2.93025e-22 0 5.04985e-22 0 8.32241e-22 0 1.33565e-21 0 2.09019e-21 0 3.14594e-21 0
