# 1.75e-05 2 9 : grain size, compostion index, size index
# Heating and cooling timescale: 0.0286271 3.41338e+06
# Ratio of heating to cooling to determine stochastic cutoff: 100
# Equilibrium emission is recorded even for those grains in the stochastic regime.
# Emission spectrum was computed for: 
# Type: ISRF
# Scales: 0.25 0.5 1 1.5 2 2.5 3 3.5 4 4.5 5 5.5 6 6.5 7 7.5 8 8.5 9 9.5 10
# StochasticallyHeated: 0 0 0 0 0 0 0 0 0 0 0 0 0 0 0 0 0 0 0 0 0
# Temperature: -1
# Wavelength  CExt  CAbs  CSca  Albedo G EqEm1 StEm1 EqEm2 StEm2 EqEm3 StEm3 EqEm4 StEm4 EqEm5 StEm5 EqEm6 StEm6 EqEm7 StEm7 EqEm8 StEm8 EqEm9 StEm9 EqEm10 StEm10 EqEm11 StEm11 EqEm12 StEm12 EqEm13 StEm13 EqEm14 StEm14 EqEm15 StEm15 EqEm16 StEm16 EqEm17 StEm17 EqEm18 StEm18 EqEm19 StEm19 EqEm20 StEm20 EqEm21 StEm21
0.05 2.18889e-09 9.21121e-10 1.26777e-09 0.579183 0.884246 0 0 0 0 0 0 0 0 0 0 0 0 0 0 0 0 0 0 0 0 0 0 0 0 0 0 0 0 0 0 0 0 0 0 0 0 0 0 0 0 0 0
0.0525665 2.19343e-09 9.26645e-10 1.26678e-09 0.577536 0.883451 0 0 0 0 0 0 0 0 0 0 0 0 0 0 0 0 0 0 0 0 0 0 0 0 0 0 0 0 0 0 0 0 0 0 0 0 0 0 0 0 0 0
0.0552647 2.19825e-09 9.32451e-10 1.2658e-09 0.575822 0.882615 0 0 0 0 0 0 0 0 0 0 0 0 0 0 0 0 0 0 0 0 0 0 0 0 0 0 0 0 0 0 0 0 0 0 0 0 0 0 0 0 0 0
0.0581015 2.20328e-09 9.38547e-10 1.26473e-09 0.574023 0.881735 0 0 0 0 0 0 0 0 0 0 0 0 0 0 0 0 0 0 0 0 0 0 0 0 0 0 0 0 0 0 0 0 0 0 0 0 0 0 0 0 0 0
0.0610839 2.20861e-09 9.44966e-10 1.26364e-09 0.572144 0.880804 0 0 0 0 0 0 0 0 0 0 0 0 0 0 0 0 0 0 0 0 0 0 0 0 0 0 0 0 0 0 0 0 0 0 0 0 0 0 0 0 0 0
0.0642193 2.21418e-09 9.51717e-10 1.26246e-09 0.570172 0.879831 0 0 0 0 0 0 0 0 0 0 0 0 0 0 0 0 0 0 0 0 0 0 0 0 0 0 0 0 0 0 0 0 0 0 0 0 0 0 0 0 0 0
0.0675157 2.21999e-09 9.58805e-10 1.26118e-09 0.568104 0.878806 0 0 0 0 0 0 0 0 0 0 0 0 0 0 0 0 0 0 0 0 0 0 0 0 0 0 0 0 0 0 0 0 0 0 0 0 0 0 0 0 0 0
0.0709813 2.22618e-09 9.66273e-10 1.25991e-09 0.56595 0.877727 0 0 0 0 0 0 0 0 0 0 0 0 0 0 0 0 0 0 0 0 0 0 0 0 0 0 0 0 0 0 0 0 0 0 0 0 0 0 0 0 0 0
0.0746248 2.23268e-09 9.7408e-10 1.2586e-09 0.563717 0.876596 0 0 0 0 0 0 0 0 0 0 0 0 0 0 0 0 0 0 0 0 0 0 0 0 0 0 0 0 0 0 0 0 0 0 0 0 0 0 0 0 0 0
0.0784553 2.23944e-09 9.8232e-10 1.25712e-09 0.561355 0.875412 0 0 0 0 0 0 0 0 0 0 0 0 0 0 0 0 0 0 0 0 0 0 0 0 0 0 0 0 0 0 0 0 0 0 0 0 0 0 0 0 0 0
0.0824824 2.24667e-09 9.91028e-10 1.25564e-09 0.558891 0.874159 0 0 0 0 0 0 0 0 0 0 0 0 0 0 0 0 0 0 0 0 0 0 0 0 0 0 0 0 0 0 0 0 0 0 0 0 0 0 0 0 0 0
0.0867162 2.25416e-09 1.00009e-09 1.25407e-09 0.556337 0.872844 0 0 0 0 0 0 0 0 0 0 0 0 0 0 0 0 0 0 0 0 0 0 0 0 0 0 0 0 0 0 0 0 0 0 0 0 0 0 0 0 0 0
0.0911674 2.26209e-09 1.00969e-09 1.2524e-09 0.553646 0.871461 0 0 0 0 0 0 0 0 0 0 0 0 0 0 0 0 0 0 0 0 0 0 0 0 0 0 0 0 0 0 0 0 0 0 0 0 0 0 0 0 0 0
0.095847 2.27043e-09 1.01976e-09 1.25067e-09 0.55085 0.870009 0 0 0 0 0 0 0 0 0 0 0 0 0 0 0 0 0 0 0 0 0 0 0 0 0 0 0 0 0 0 0 0 0 0 0 0 0 0 0 0 0 0
0.100767 2.27917e-09 1.03034e-09 1.24883e-09 0.547932 0.86848 0 0 0 0 0 0 0 0 0 0 0 0 0 0 0 0 0 0 0 0 0 0 0 0 0 0 0 0 0 0 0 0 0 0 0 0 0 0 0 0 0 0
0.105939 2.28838e-09 1.04145e-09 1.24693e-09 0.544897 0.866877 0 0 0 0 0 0 0 0 0 0 0 0 0 0 0 0 0 0 0 0 0 0 0 0 0 0 0 0 0 0 0 0 0 0 0 0 0 0 0 0 0 0
0.111377 2.29802e-09 1.05314e-09 1.24488e-09 0.541718 0.86519 0 0 0 0 0 0 0 0 0 0 0 0 0 0 0 0 0 0 0 0 0 0 0 0 0 0 0 0 0 0 0 0 0 0 0 0 0 0 0 0 0 0
0.117094 2.30816e-09 1.06544e-09 1.24272e-09 0.538402 0.863412 0 0 0 0 0 0 0 0 0 0 0 0 0 0 0 0 0 0 0 0 0 0 0 0 0 0 0 0 0 0 0 0 0 0 0 0 0 0 0 0 0 0
0.123105 2.31887e-09 1.07842e-09 1.24045e-09 0.534938 0.861542 0 0 0 0 0 0 0 0 0 0 0 0 0 0 0 0 0 0 0 0 0 0 0 0 0 0 0 0 0 0 0 0 0 0 0 0 0 0 0 0 0 0
0.129424 2.33021e-09 1.09204e-09 1.23818e-09 0.531358 0.859582 0 0 0 0 0 0 0 0 0 0 0 0 0 0 0 0 0 0 0 0 0 0 0 0 0 0 0 0 0 0 0 0 0 0 0 0 0 0 0 0 0 0
0.136067 2.34196e-09 1.10625e-09 1.23571e-09 0.52764 0.857522 0 0 0 0 0 0 0 0 0 0 0 0 0 0 0 0 0 0 0 0 0 0 0 0 0 0 0 0 0 0 0 0 0 0 0 0 0 0 0 0 0 0
0.143051 2.35433e-09 1.12128e-09 1.23305e-09 0.523737 0.855354 0 0 0 0 0 0 0 0 0 0 0 0 0 0 0 0 0 0 0 0 0 0 0 0 0 0 0 0 0 0 0 0 0 0 0 0 0 0 0 0 0 0
0.150394 2.36746e-09 1.1371e-09 1.23036e-09 0.519698 0.853072 0 0 0 0 0 0 0 0 0 0 0 0 0 0 0 0 0 0 0 0 0 0 0 0 0 0 0 0 0 0 0 0 0 0 0 0 0 0 0 0 0 0
0.158114 2.38125e-09 1.15374e-09 1.2275e-09 0.515488 0.850674 0 0 0 0 0 0 0 0 0 0 0 0 0 0 0 0 0 0 0 0 0 0 0 0 0 0 0 0 0 0 0 0 0 0 0 0 0 0 0 0 0 0
0.16623 2.39562e-09 1.17117e-09 1.22445e-09 0.51112 0.848157 0 0 0 0 0 0 0 0 0 0 0 0 0 0 0 0 0 0 0 0 0 0 0 0 0 0 0 0 0 0 0 0 0 0 0 0 0 0 0 0 0 0
0.174762 2.41078e-09 1.18952e-09 1.22126e-09 0.506581 0.845503 0 0 0 0 0 0 0 0 0 0 0 0 0 0 0 0 0 0 0 0 0 0 0 0 0 0 0 0 0 0 0 0 0 0 0 0 0 0 0 0 0 0
0.183733 2.42676e-09 1.20886e-09 1.21791e-09 0.501864 0.842714 0 0 0 0 0 0 0 0 0 0 0 0 0 0 0 0 0 0 0 0 0 0 0 0 0 0 0 0 0 0 0 0 0 0 0 0 0 0 0 0 0 0
0.193164 2.44353e-09 1.22913e-09 1.2144e-09 0.496986 0.839792 0 0 0 0 0 0 0 0 0 0 0 0 0 0 0 0 0 0 0 0 0 0 0 0 0 0 0 0 0 0 0 0 0 0 0 0 0 0 0 0 0 0
0.203079 2.46541e-09 1.24716e-09 1.21825e-09 0.494136 0.8359 0 0 0 0 0 0 0 0 0 0 0 0 0 0 0 0 0 0 0 0 0 0 0 0 0 0 0 0 0 0 0 0 0 0 0 0 0 0 0 0 0 0
0.213503 2.50795e-09 1.25126e-09 1.2567e-09 0.501084 0.828121 0 0 0 0 0 0 0 0 0 0 0 0 0 0 0 0 0 0 0 0 0 0 0 0 0 0 0 0 0 0 0 0 0 0 0 0 0 0 0 0 0 0
0.224463 2.55325e-09 1.25518e-09 1.29807e-09 0.508398 0.819848 0 0 0 0 0 0 0 0 0 0 0 0 0 0 0 0 0 0 0 0 0 0 0 0 0 0 0 0 0 0 0 0 0 0 0 0 0 0 0 0 0 0
0.235984 2.60077e-09 1.25923e-09 1.34155e-09 0.515826 0.811138 0 0 0 0 0 0 0 0 0 0 0 0 0 0 0 0 0 0 0 0 0 0 0 0 0 0 0 0 0 0 0 0 0 0 0 0 0 0 0 0 0 0
0.248097 2.65082e-09 1.26356e-09 1.38726e-09 0.523332 0.801994 0 0 0 0 0 0 0 0 0 0 0 0 0 0 0 0 0 0 0 0 0 0 0 0 0 0 0 0 0 0 0 0 0 0 0 0 0 0 0 0 0 0
0.260832 2.7033e-09 1.268e-09 1.43529e-09 0.530942 0.792377 0 0 0 0 0 0 0 0 0 0 0 0 0 0 0 0 0 0 0 0 0 0 0 0 0 0 0 0 0 0 0 0 0 0 0 0 0 0 0 0 0 0
0.274221 2.75858e-09 1.27283e-09 1.48575e-09 0.538593 0.78226 0 0 0 0 0 0 0 0 0 0 0 0 0 0 0 0 0 0 0 0 0 0 0 0 0 0 0 0 0 0 0 0 0 0 0 0 0 0 0 0 0 0
0.288297 2.81669e-09 1.27777e-09 1.53892e-09 0.546357 0.771628 0 0 0 0 0 0 0 0 0 0 0 0 0 0 0 0 0 0 0 0 0 0 0 0 0 0 0 0 0 0 0 0 0 0 0 0 0 0 0 0 0 0
0.303095 2.88118e-09 1.28181e-09 1.59938e-09 0.555111 0.76096 0 0 0 0 0 0 0 0 0 0 0 0 0 0 0 0 0 0 0 0 0 0 0 0 0 0 0 0 0 0 0 0 0 0 0 0 0 0 0 0 0 0
0.318653 2.99144e-09 1.2707e-09 1.72074e-09 0.575222 0.755975 0 0 0 0 0 0 0 0 0 0 0 0 0 0 0 0 0 0 0 0 0 0 0 0 0 0 0 0 0 0 0 0 0 0 0 0 0 0 0 0 0 0
0.335009 3.11055e-09 1.25796e-09 1.85259e-09 0.595582 0.751199 0 0 0 0 0 0 0 0 0 0 0 0 0 0 0 0 0 0 0 0 0 0 0 0 0 0 0 0 0 0 0 0 0 0 0 0 0 0 0 0 0 0
0.352205 3.23575e-09 1.24452e-09 1.99124e-09 0.615386 0.746172 0 0 0 0 0 0 0 0 0 0 0 0 0 0 0 0 0 0 0 0 0 0 0 0 0 0 0 0 0 0 0 0 0 0 0 0 0 0 0 0 0 0
0.370284 3.36738e-09 1.23046e-09 2.13692e-09 0.634594 0.740884 0 0 0 0 0 0 0 0 0 0 0 0 0 0 0 0 0 0 0 0 0 0 0 0 0 0 0 0 0 0 0 0 0 0 0 0 0 0 0 0 0 0
0.389291 3.5057e-09 1.21559e-09 2.29011e-09 0.653253 0.735326 0 0 0 0 0 0 0 0 0 0 0 0 0 0 0 0 0 0 0 0 0 0 0 0 0 0 0 0 0 0 0 0 0 0 0 0 0 0 0 0 0 0
0.409273 3.62271e-09 1.19603e-09 2.42668e-09 0.669852 0.727769 0 0 0 0 0 0 0 0 0 0 0 0 0 0 0 0 0 0 0 0 0 0 0 0 0 0 0 0 0 0 0 0 0 0 0 0 0 0 0 0 0 0
0.430281 3.6524e-09 1.16237e-09 2.49003e-09 0.681751 0.714191 0 0 0 0 0 0 0 0 0 0 0 0 0 0 0 0 0 0 0 0 0 0 0 0 0 0 0 0 0 0 0 0 0 0 0 0 0 0 0 0 0 0
0.452368 3.68365e-09 1.12699e-09 2.55666e-09 0.694056 0.69991 0 0 0 0 0 0 0 0 0 0 0 0 0 0 0 0 0 0 0 0 0 0 0 0 0 0 0 0 0 0 0 0 0 0 0 0 0 0 0 0 0 0
0.475588 3.7165e-09 1.0898e-09 2.6267e-09 0.706766 0.684901 0 0 0 0 0 0 0 0 0 0 0 0 0 0 0 0 0 0 0 0 0 0 0 0 0 0 0 0 0 0 0 0 0 0 0 0 0 0 0 0 0 0
0.5 3.75073e-09 1.0507e-09 2.70003e-09 0.719867 0.669138 0 0 0 0 0 0 0 0 0 0 0 0 0 0 0 0 0 0 0 0 0 0 0 0 0 0 0 0 0 0 0 0 0 0 0 0 0 0 0 0 0 0
0.525665 3.69125e-09 1.01386e-09 2.67738e-09 0.725333 0.659285 0 0 0 0 0 0 0 0 0 0 0 0 0 0 0 0 0 0 0 0 0 0 0 0 0 0 0 0 0 0 0 0 0 0 0 0 0 0 0 0 0 0
0.552648 3.59824e-09 9.76344e-10 2.6219e-09 0.728661 0.651045 0 0 0 0 0 0 0 0 0 0 0 0 0 0 0 0 0 0 0 0 0 0 0 0 0 0 0 0 0 0 0 0 0 0 0 0 0 0 0 0 0 0
0.581015 3.50063e-09 9.36983e-10 2.56364e-09 0.732338 0.642391 0 0 0 0 0 0 0 0 0 0 0 0 0 0 0 0 0 0 0 0 0 0 0 0 0 0 0 0 0 0 0 0 0 0 0 0 0 0 0 0 0 0
0.610839 3.38697e-09 8.94717e-10 2.49226e-09 0.735836 0.632837 0 0 0 0 0 0 0 0 0 0 0 0 0 0 0 0 0 0 0 0 0 0 0 0 0 0 0 0 0 0 0 0 0 0 0 0 0 0 0 0 0 0
0.642193 3.18102e-09 8.43475e-10 2.33755e-09 0.734841 0.619219 0 0 0 0 0 0 0 0 0 0 0 0 0 0 0 0 0 0 0 0 0 0 0 0 0 0 0 0 0 0 0 0 0 0 0 0 0 0 0 0 0 0
0.675157 2.96449e-09 7.89605e-10 2.17488e-09 0.733645 0.604906 0 0 0 0 0 0 0 0 0 0 0 0 0 0 0 0 0 0 0 0 0 0 0 0 0 0 0 0 0 0 0 0 0 0 0 0 0 0 0 0 0 0
0.709813 2.73234e-09 7.32179e-10 2.00017e-09 0.732033 0.58911 0 0 0 0 0 0 0 0 0 0 0 0 0 0 0 0 0 0 0 0 0 0 0 0 0 0 0 0 0 0 0 0 0 0 0 0 0 0 0 0 0 0
0.746248 2.44897e-09 6.64743e-10 1.78423e-09 0.728563 0.565853 0 0 0 0 0 0 0 0 0 0 0 0 0 0 0 0 0 0 0 0 0 0 0 0 0 0 0 0 0 0 0 0 0 0 0 0 0 0 0 0 0 0
0.784553 2.14773e-09 5.93262e-10 1.55447e-09 0.723772 0.540848 0 0 0 0 0 0 0 0 0 0 0 0 0 0 0 0 0 0 0 0 0 0 0 0 0 0 0 0 0 0 0 0 0 0 0 0 0 0 0 0 0 0
0.824824 1.86218e-09 5.2306e-10 1.33912e-09 0.719114 0.50984 0 0 0 0 0 0 0 0 0 0 0 0 0 0 0 0 0 0 0 0 0 0 0 0 0 0 0 0 0 0 0 0 0 0 0 0 0 0 0 0 0 0
0.867162 1.6201e-09 4.58498e-10 1.1616e-09 0.716994 0.468442 0 0 0 0 0 0 0 0 0 0 0 0 0 0 0 0 0 0 0 0 0 0 0 0 0 0 0 0 0 0 0 0 0 0 0 0 0 0 0 0 0 0
0.911674 1.36838e-09 3.91402e-10 9.76979e-10 0.713967 0.425053 0 0 0 0 0 0 0 0 0 0 0 0 0 0 0 0 0 0 0 0 0 0 0 0 0 0 0 0 0 0 0 0 0 0 0 0 0 0 0 0 0 0
0.95847 1.19712e-09 3.46484e-10 8.5064e-10 0.71057 0.384071 0 0 0 0 0 0 0 0 0 0 0 0 0 0 0 0 0 0 0 0 0 0 0 0 0 0 0 0 0 0 0 0 0 0 0 0 0 0 0 0 0 0
1.00767 1.02076e-09 3.00279e-10 7.2048e-10 0.705828 0.341246 0 0 0 0 0 0 0 0 0 0 0 0 0 0 0 0 0 0 0 0 0 0 0 0 0 0 0 0 0 0 0 0 0 0 0 0 0 0 0 0 0 0
1.05939 8.86984e-10 2.67259e-10 6.19725e-10 0.698688 0.30704 0 0 0 0 0 0 0 0 0 0 0 0 0 0 0 0 0 0 0 0 0 0 0 0 0 0 0 0 0 0 0 0 0 0 0 0 0 0 0 0 0 0
1.11377 7.55286e-10 2.35162e-10 5.20124e-10 0.688645 0.27304 0 0 0 0 0 0 0 0 0 0 0 0 0 0 0 0 0 0 0 0 0 0 0 0 0 0 0 0 0 0 0 0 0 0 0 0 0 0 0 0 0 0
1.17094 6.52448e-10 2.10559e-10 4.41889e-10 0.677278 0.246507 0 0 0 0 0 0 0 0 0 0 0 0 0 0 0 0 0 0 0 0 0 0 0 0 0 0 0 0 0 0 0 0 0 0 0 0 0 0 0 0 0 0
1.23105 5.54046e-10 1.86945e-10 3.67101e-10 0.662582 0.221045 0 0 0 0 0 0 0 0 0 0 0 0 0 0 0 0 0 0 0 0 0 0 0 0 0 0 0 0 0 0 0 0 0 0 0 0 0 0 0 0 0 0
1.29424 4.73543e-10 1.67217e-10 3.06325e-10 0.64688 0.199943 0 0 0 0 0 0 0 0 0 0 0 0 0 0 0 0 0 0 0 0 0 0 0 0 0 0 0 0 0 0 0 0 0 0 0 0 0 0 0 0 0 0
1.36067 4.03598e-10 1.49425e-10 2.54173e-10 0.629767 0.181047 0 0 0 0 0 0 0 0 0 0 0 0 0 0 0 0 0 0 0 0 0 0 0 0 0 0 0 0 0 0 0 0 0 0 0 0 0 0 0 0 0 0
1.43051 3.41292e-10 1.32954e-10 2.08338e-10 0.61044 0.163711 0 0 0 0 0 0 0 0 0 0 0 0 0 0 0 0 0 0 0 0 0 0 0 0 0 0 0 0 0 0 0 0 0 0 0 0 0 0 0 0 0 0
1.50394 2.90088e-10 1.18353e-10 1.71735e-10 0.59201 0.14869 0 0 0 0 0 0 0 0 0 0 0 0 0 0 0 0 0 0 0 0 0 0 0 0 0 0 0 0 0 0 0 0 0 0 0 0 0 0 0 0 0 0
1.58114 2.46204e-10 1.04733e-10 1.41472e-10 0.57461 0.135219 0 0 0 0 0 0 0 0 0 0 0 0 0 0 0 0 0 0 0 0 0 0 0 0 0 0 0 0 0 0 0 0 0 0 0 0 0 0 0 0 0 0
1.6623 2.07691e-10 9.19531e-11 1.15737e-10 0.557259 0.122891 0 0 0 0 0 0 0 0 0 0 0 0 0 0 0 0 0 0 0 0 0 0 0 0 0 0 0 0 0 0 0 0 0 0 0 0 0 0 0 0 0 0
1.74763 1.74615e-10 8.03111e-11 9.43035e-11 0.540067 0.111695 0 0 0 0 0 0 0 0 0 0 0 0 0 0 0 0 0 0 0 0 0 0 0 0 0 0 0 0 0 0 0 0 0 0 0 0 0 0 0 0 0 0
1.83733 1.46985e-10 7.02237e-11 7.67615e-11 0.52224 0.101507 0 0 0 0 0 0 0 0 0 0 0 0 0 0 0 0 0 0 0 0 0 0 0 0 0 0 0 0 0 0 0 0 0 0 0 0 0 0 0 0 0 0
1.93164 1.24121e-10 6.17889e-11 6.23325e-11 0.50219 0.0922314 0 0 0 0 0 0 0 0 0 0 0 0 0 0 0 0 0 0 0 0 0 0 0 0 0 0 0 0 0 0 0 0 0 0 0 0 0 0 0 0 0 0
2.03079 1.05661e-10 5.50035e-11 5.06571e-11 0.479432 0.0838304 0 0 0 0 0 0 0 0 0 0 0 0 0 0 0 0 0 0 0 0 0 0 0 0 0 0 0 0 0 0 0 0 0 0 0 0 0 0 0 0 0 0
2.13503 9.0098e-11 4.8873e-11 4.12251e-11 0.457558 0.0762103 0 0 0 0 0 0 0 0 0 0 0 0 0 0 0 0 0 0 0 0 0 0 0 0 0 0 0 0 0 0 0 0 0 0 0 0 0 0 0 0 0 0
2.24463 7.82571e-11 4.47384e-11 3.35187e-11 0.428315 0.0692717 0 0 0 0 0 0 0 0 0 0 0 0 0 0 0 0 0 0 0 0 0 0 0 0 0 0 0 0 0 0 0 0 0 0 0 0 0 0 0 0 0 0
2.35984 6.88559e-11 4.15419e-11 2.73141e-11 0.396684 0.0629656 0 0 0 0 0 0 0 0 0 0 0 0 0 0 0 0 0 0 0 0 0 0 0 0 0 0 0 0 0 0 0 0 0 0 0 0 0 0 0 0 0 0
2.48097 6.05687e-11 3.82946e-11 2.22741e-11 0.367749 0.0572429 0 0 0 0 0 0 0 0 0 0 0 0 0 0 0 0 0 0 0 0 0 0 0 0 0 0 0 0 0 0 0 0 0 0 0 0 0 0 0 0 0 0
2.60832 5.34364e-11 3.52995e-11 1.81369e-11 0.339412 0.0520104 0 0 0 0 0 0 0 0 0 0 0 0 0 0 0 0 0 0 0 0 0 0 0 0 0 0 0 0 0 0 0 0 0 0 0 0 0 0 0 0 0 0
2.74221 4.73999e-11 3.26177e-11 1.47822e-11 0.311861 0.047229 0 0 0 0 0 0 0 0 0 0 0 0 0 0 0 0 0 0 0 0 0 0 0 0 0 0 0 0 0 0 0 0 0 0 0 0 0 0 0 0 0 0
2.88297 4.21117e-11 3.0062e-11 1.20497e-11 0.286137 0.0428774 0 0 0 0 0 0 0 0 0 0 0 0 0 0 0 0 0 0 0 0 0 0 0 0 0 0 0 0 0 0 0 0 0 0 0 0 0 0 0 0 0 0
3.03095 3.74909e-11 2.76875e-11 9.80335e-12 0.261486 0.0388951 0 0 0 0 0 0 0 0 0 0 0 0 0 0 0 0 0 0 0 0 0 0 0 0 0 0 0 0 0 0 0 0 0 0 0 0 0 0 0 0 0 0
3.18653 3.35259e-11 2.55263e-11 7.99951e-12 0.238607 0.0353067 0 0 0 0 0 0 0 0 0 0 0 0 0 0 0 0 0 0 0 0 0 0 0 0 0 0 0 0 0 0 0 0 0 0 0 0 0 0 0 0 0 0
3.35009 2.99853e-11 2.34781e-11 6.5072e-12 0.217013 0.032013 0 0 0 0 0 0 0 0 0 0 0 0 0 0 0 0 0 0 0 0 0 0 0 0 0 0 0 0 0 0 0 0 0 0 0 0 0 0 0 0 0 0
3.52205 2.68632e-11 2.15558e-11 5.30742e-12 0.197572 0.0290447 0 0 0 0 0 0 0 0 0 0 0 0 0 0 0 0 0 0 0 0 0 0 0 0 0 0 0 0 0 0 0 0 0 0 0 0 0 0 0 0 0 0
3.70284 2.40908e-11 1.9771e-11 4.31985e-12 0.179315 0.0263358 0 0 0 0 0 0 0 0 0 0 0 0 0 0 0 0 0 0 0 0 0 0 0 0 0 0 0 0 0 0 0 0 0 0 0 0 0 0 0 0 0 0
3.89291 2.17002e-11 1.81882e-11 3.51206e-12 0.161844 0.0238707 0 0 0 0 0 0 0 0 0 0 0 0 0 0 0 0 0 0 0 0 0 0 0 0 0 0 0 0 0 0 0 0 0 0 0 0 0 0 0 0 0 0
4.09273 1.96215e-11 1.67681e-11 2.85339e-12 0.145422 0.0216321 0 0 0 0 0 0 0 0 0 0 0 0 0 0 0 0 0 0 0 0 0 0 0 0 0 0 0 0 0 0 0 0 0 0 0 0 0 0 0 0 0 0
4.30281 1.78175e-11 1.55013e-11 2.31618e-12 0.129994 0.0195988 0 0 0 0 0 0 0 0 0 0 0 0 0 0 0 0 0 0 0 0 0 0 0 0 0 0 0 0 0 0 0 0 0 0 0 0 0 0 0 0 0 0
4.52368 1.62733e-11 1.43956e-11 1.87768e-12 0.115384 0.0177508 0 0 0 0 0 0 0 0 0 0 0 0 0 0 0 0 0 0 0 0 0 0 0 0 0 0 0 0 0 0 0 0 0 0 0 0 0 0 0 0 0 0
4.75588 1.49585e-11 1.344e-11 1.51847e-12 0.101513 0.0161057 0 0 0 0 0 0 0 0 0 0 0 0 0 0 0 0 0 0 0 0 0 0 0 0 0 0 0 0 0 0 0 0 0 0 0 0 0 0 0 0 0 0
5 1.38615e-11 1.26376e-11 1.22382e-12 0.0882895 0.0145819 0 0 0 0 0 0 0 0 0 0 0 0 0 0 0 0 0 0 0 0 0 0 0 0 0 0 0 0 0 0 0 0 0 0 0 0 0 0 0 0 0 0
5.25665 1.32594e-11 1.22811e-11 9.78241e-13 0.0737774 0.0131843 0 0 0 0 0 0 0 0 0 0 0 0 0 0 0 0 0 0 0 0 0 0 0 0 0 0 0 0 0 0 0 0 0 0 0 0 0 0 0 0 0 0
5.52648 1.28739e-11 1.20872e-11 7.86669e-13 0.0611057 0.0119316 0 0 0 0 0 0 0 0 0 0 0 0 0 0 0 0 0 0 0 0 0 0 0 0 0 0 0 0 0 0 0 0 0 0 0 0 0 0 0 0 0 0
5.81015 1.29262e-11 1.22971e-11 6.29101e-13 0.0486686 0.0107892 0 0 0 0 0 0 0 0 0 0 0 0 0 0 0 0 0 0 0 0 0 0 0 0 0 0 0 0 0 0 0 0 0 0 0 0 0 0 0 0 0 0
6.10839 1.42188e-11 1.3715e-11 5.03824e-13 0.0354336 0.00975806 0 0 0 0 0 0 0 0 0 0 0 0 0 0 0 0 0 0 0 0 0 0 0 0 0 0 0 0 0 0 0 0 0 0 0 0 0 0 1.4013e-45 0 2.8026e-45 0
6.42193 1.50645e-11 1.46623e-11 4.02195e-13 0.0266981 0.00882357 0 0 0 0 0 0 0 0 0 0 0 0 0 0 0 0 0 0 0 0 0 0 0 0 0 0 0 0 1.4013e-45 0 2.8026e-45 0 7.00649e-45 0 2.10195e-44 0 5.46506e-44 0 1.37327e-43 0 3.29305e-43 0
6.75157 1.67133e-11 1.63915e-11 3.21855e-13 0.0192574 0.00798095 0 0 0 0 0 0 0 0 0 0 0 0 0 0 0 0 0 0 0 0 0 0 1.4013e-45 0 8.40779e-45 0 3.08286e-44 0 1.05097e-43 0 3.30706e-43 0 9.43074e-43 0 2.56718e-42 0 6.3689e-42 0 1.51635e-41 0 3.47214e-41 0
7.09813 1.7533e-11 1.72761e-11 2.5689e-13 0.0146518 0.00721834 0 0 0 0 0 0 0 0 0 0 0 0 0 0 0 0 1.4013e-45 0 8.40779e-45 0 4.62428e-44 0 2.25609e-43 0 9.40271e-43 0 3.38414e-42 0 1.09315e-41 0 3.26699e-41 0 8.85929e-41 0 2.29746e-40 0 5.4516e-40 0 1.24425e-39 0 2.7361e-39 0
7.46248 1.89228e-11 1.87231e-11 1.99682e-13 0.0105525 0.0065113 0 0 0 0 0 0 0 0 0 0 0 0 1.4013e-45 0 1.54143e-44 0 1.42932e-43 0 9.51482e-43 0 5.15818e-42 0 2.31915e-41 0 8.9955e-41 0 3.0431e-40 0 9.28157e-40 0 2.62958e-39 0 6.7917e-39 0 1.6812e-38 0 3.82449e-38 0 8.38421e-38 0 1.77409e-37 0
7.84553 2.33505e-11 2.31959e-11 1.54639e-13 0.0066225 0.00586845 0 0 0 0 0 0 0 0 0 0 8.40779e-45 0 1.75162e-43 0 2.07112e-42 0 1.69921e-41 0 1.03157e-40 0 5.15137e-40 0 2.1519e-39 0 7.81237e-39 0 2.49019e-38 0 7.19271e-38 0 1.93676e-37 0 4.77582e-37 0 1.13102e-36 0 2.4717e-36 0 5.21484e-36 0 1.06381e-35 0
8.24824 3.09691e-11 3.08497e-11 1.19453e-13 0.00385715 0.00528258 0 0 0 0 0 0 0 0 3.36312e-44 0 1.24996e-42 0 2.20705e-41 0 2.3175e-40 0 1.71552e-39 0 9.53657e-39 0 4.4027e-38 0 1.71515e-37 0 5.84688e-37 0 1.76114e-36 0 4.83017e-36 0 1.2392e-35 0 2.924e-35 0 6.63923e-35 0 1.39659e-34 0 2.84107e-34 0 5.59739e-34 0
8.67162 4.23437e-11 4.22468e-11 9.68569e-14 0.0022874 0.00476212 0 0 0 0 0 0 4.90454e-44 0 4.78403e-42 0 1.47896e-40 0 2.26905e-39 0 2.1242e-38 0 1.42602e-37 0 7.29036e-37 0 3.12349e-36 0 1.13865e-35 0 3.656e-35 0 1.04351e-34 0 2.7244e-34 0 6.67533e-34 0 1.51044e-33 0 3.29501e-33 0 6.68404e-33 0 1.31339e-32 0 2.50334e-32 0
9.11674 5.65805e-11 5.64956e-11 8.48811e-14 0.00150018 0.00430145 0 0 0 0 9.80909e-45 0 6.64356e-42 0 5.19079e-40 0 1.35734e-38 0 1.82255e-37 0 1.52969e-36 0 9.35753e-36 0 4.4176e-35 0 1.7629e-34 0 6.03322e-34 0 1.82991e-33 0 4.96228e-33 0 1.23625e-32 0 2.8994e-32 0 6.30412e-32 0 1.32385e-31 0 2.59431e-31 0 4.93236e-31 0 9.10968e-31 0
9.5847 6.78133e-11 6.77315e-11 8.17979e-14 0.00120622 0.00391393 0 0 0 0 1.36066e-42 0 6.37361e-40 0 4.02495e-38 0 8.9745e-37 0 1.06152e-35 0 8.03051e-35 0 4.49673e-34 0 1.96795e-33 0 7.3402e-33 0 2.36561e-32 0 6.79669e-32 0 1.75548e-31 0 4.18279e-31 0 9.41003e-31 0 1.96987e-30 0 3.98952e-30 0 7.56552e-30 0 1.39395e-29 0 2.49855e-29 0
10.0767 7.0892e-11 7.08112e-11 8.08077e-14 0.00113987 0.00359892 0 0 2.8026e-45 0 1.22546e-40 0 4.25237e-38 0 2.19333e-36 0 4.20269e-35 0 4.40616e-34 0 3.01973e-33 0 1.55451e-32 0 6.33008e-32 0 2.21407e-31 0 6.73926e-31 0 1.83903e-30 0 4.53487e-30 0 1.03568e-29 0 2.23954e-29 0 4.52211e-29 0 8.8483e-29 0 1.62633e-28 0 2.90844e-28 0 5.0667e-28 0
10.5939 6.57433e-11 6.5668e-11 7.52359e-14 0.00114439 0.00333046 0 0 2.62043e-43 0 7.78192e-39 0 2.02949e-36 0 8.63476e-35 0 1.43238e-33 0 1.33895e-32 0 8.35337e-32 0 3.96957e-31 0 1.50933e-30 0 4.96612e-30 0 1.43165e-29 0 3.71984e-29 0 8.77737e-29 0 1.92537e-28 0 4.00954e-28 0 7.82306e-28 0 1.48136e-27 0 2.64304e-27 0 4.59441e-27 0 7.78978e-27 0
11.1377 5.76258e-11 5.7559e-11 6.68557e-14 0.00116017 0.00308573 0 0 2.09102e-41 0 3.75363e-37 0 7.46067e-35 0 2.6431e-33 0 3.82268e-32 0 3.20391e-31 0 1.82792e-30 0 8.04989e-30 0 2.86755e-29 0 8.90206e-29 0 2.43702e-28 0 6.04367e-28 0 1.36753e-27 0 2.88689e-27 0 5.80038e-27 0 1.09538e-26 0 2.01054e-26 0 3.48722e-26 0 5.90039e-26 0 9.74947e-26 0
11.7094 4.7869e-11 4.78109e-11 5.81285e-14 0.00121433 0.00286607 4.06377e-44 0 1.25256e-39 0 1.39374e-35 0 2.13941e-33 0 6.36775e-32 0 8.08335e-31 0 6.10694e-30 0 3.20019e-29 0 1.31092e-28 0 4.38893e-28 0 1.28919e-27 0 3.35994e-27 0 7.97106e-27 0 1.73315e-26 0 3.52767e-26 0 6.85044e-26 0 1.25414e-25 0 2.23469e-25 0 3.77317e-25 0 6.22237e-25 0 1.00325e-24 0
12.3105 3.33601e-11 3.33123e-11 4.78297e-14 0.00143374 0.00265991 2.75075e-42 0 5.04512e-38 0 3.56201e-34 0 4.27635e-32 0 1.07848e-30 0 1.20931e-29 0 8.27732e-29 0 4.00055e-28 0 1.52975e-27 0 4.82815e-27 0 1.34553e-26 0 3.34653e-26 0 7.61134e-26 0 1.59336e-25 0 3.13252e-25 0 5.88914e-25 0 1.04679e-24 0 1.81334e-24 0 2.98443e-24 0 4.80291e-24 0 7.56533e-24 0
12.9424 2.02733e-11 2.02379e-11 3.54061e-14 0.00174644 0.00241172 1.2645e-40 0 1.4358e-36 0 6.57663e-33 0 6.24968e-31 0 1.34635e-29 0 1.34162e-28 0 8.35985e-28 0 3.74129e-27 0 1.33993e-26 0 3.99827e-26 0 1.05987e-25 0 2.52135e-25 0 5.50904e-25 0 1.1124e-24 0 2.11597e-24 0 3.85729e-24 0 6.66641e-24 0 1.12425e-23 0 1.80585e-23 0 2.83945e-23 0 4.37445e-23 0
