# 0.000257326 2 85 : grain size, compostion index, size index
# Heating and cooling timescale: 4.10761e-05 6.72777e+13
# Ratio of heating to cooling to determine stochastic cutoff: 100
# Equilibrium emission is recorded even for those grains in the stochastic regime.
# Emission spectrum was computed for: 
# Type: ISRF
# Scales: 0.25 0.5 1 1.5 2 2.5 3 3.5 4 4.5 5 5.5 6 6.5 7 7.5 8 8.5 9 9.5 10
# StochasticallyHeated: 0 0 0 0 0 0 0 0 0 0 0 0 0 0 0 0 0 0 0 0 0
# Temperature: -1
# Wavelength  CExt  CAbs  CSca  Albedo G EqEm1 StEm1 EqEm2 StEm2 EqEm3 StEm3 EqEm4 StEm4 EqEm5 StEm5 EqEm6 StEm6 EqEm7 StEm7 EqEm8 StEm8 EqEm9 StEm9 EqEm10 StEm10 EqEm11 StEm11 EqEm12 StEm12 EqEm13 StEm13 EqEm14 StEm14 EqEm15 StEm15 EqEm16 StEm16 EqEm17 StEm17 EqEm18 StEm18 EqEm19 StEm19 EqEm20 StEm20 EqEm21 StEm21
0.05 4.23137e-07 1.78348e-07 2.44789e-07 0.578511 0.932444 0 0 0 0 0 0 0 0 0 0 0 0 0 0 0 0 0 0 0 0 0 0 0 0 0 0 0 0 0 0 0 0 0 0 0 0 0 0 0 0 0 0
0.0525665 4.23482e-07 1.76922e-07 2.46561e-07 0.582222 0.926739 0 0 0 0 0 0 0 0 0 0 0 0 0 0 0 0 0 0 0 0 0 0 0 0 0 0 0 0 0 0 0 0 0 0 0 0 0 0 0 0 0 0
0.0552647 4.2386e-07 1.74457e-07 2.49403e-07 0.588409 0.918023 0 0 0 0 0 0 0 0 0 0 0 0 0 0 0 0 0 0 0 0 0 0 0 0 0 0 0 0 0 0 0 0 0 0 0 0 0 0 0 0 0 0
0.0581015 4.24327e-07 1.7069e-07 2.53637e-07 0.59774 0.90448 0 0 0 0 0 0 0 0 0 0 0 0 0 0 0 0 0 0 0 0 0 0 0 0 0 0 0 0 0 0 0 0 0 0 0 0 0 0 0 0 0 0
0.0610839 4.24893e-07 1.66972e-07 2.57921e-07 0.607025 0.8893 0 0 0 0 0 0 0 0 0 0 0 0 0 0 0 0 0 0 0 0 0 0 0 0 0 0 0 0 0 0 0 0 0 0 0 0 0 0 0 0 0 0
0.0642193 4.255e-07 1.6451e-07 2.6099e-07 0.613372 0.876962 0 0 0 0 0 0 0 0 0 0 0 0 0 0 0 0 0 0 0 0 0 0 0 0 0 0 0 0 0 0 0 0 0 0 0 0 0 0 0 0 0 0
0.0675157 4.26123e-07 1.6329e-07 2.62833e-07 0.6168 0.868262 0 0 0 0 0 0 0 0 0 0 0 0 0 0 0 0 0 0 0 0 0 0 0 0 0 0 0 0 0 0 0 0 0 0 0 0 0 0 0 0 0 0
0.0709813 4.2675e-07 1.63081e-07 2.63669e-07 0.617853 0.86278 0 0 0 0 0 0 0 0 0 0 0 0 0 0 0 0 0 0 0 0 0 0 0 0 0 0 0 0 0 0 0 0 0 0 0 0 0 0 0 0 0 0
0.0746248 4.27375e-07 1.63713e-07 2.63662e-07 0.616933 0.860111 0 0 0 0 0 0 0 0 0 0 0 0 0 0 0 0 0 0 0 0 0 0 0 0 0 0 0 0 0 0 0 0 0 0 0 0 0 0 0 0 0 0
0.0784553 4.27967e-07 1.65279e-07 2.62688e-07 0.613804 0.860734 0 0 0 0 0 0 0 0 0 0 0 0 0 0 0 0 0 0 0 0 0 0 0 0 0 0 0 0 0 0 0 0 0 0 0 0 0 0 0 0 0 0
0.0824824 4.28479e-07 1.68139e-07 2.6034e-07 0.607592 0.866147 0 0 0 0 0 0 0 0 0 0 0 0 0 0 0 0 0 0 0 0 0 0 0 0 0 0 0 0 0 0 0 0 0 0 0 0 0 0 0 0 0 0
0.0867162 4.28889e-07 1.69405e-07 2.59483e-07 0.605013 0.86907 0 0 0 0 0 0 0 0 0 0 0 0 0 0 0 0 0 0 0 0 0 0 0 0 0 0 0 0 0 0 0 0 0 0 0 0 0 0 0 0 0 0
0.0911674 4.29506e-07 1.68248e-07 2.61258e-07 0.608276 0.862697 0 0 0 0 0 0 0 0 0 0 0 0 0 0 0 0 0 0 0 0 0 0 0 0 0 0 0 0 0 0 0 0 0 0 0 0 0 0 0 0 0 0
0.095847 4.30152e-07 1.68485e-07 2.61667e-07 0.608313 0.85945 0 0 0 0 0 0 0 0 0 0 0 0 0 0 0 0 0 0 0 0 0 0 0 0 0 0 0 0 0 0 0 0 0 0 0 0 0 0 0 0 0 0
0.100767 4.30721e-07 1.6939e-07 2.61331e-07 0.60673 0.858958 0 0 0 0 0 0 0 0 0 0 0 0 0 0 0 0 0 0 0 0 0 0 0 0 0 0 0 0 0 0 0 0 0 0 0 0 0 0 0 0 0 0
0.105939 4.31178e-07 1.7143e-07 2.59747e-07 0.602414 0.862742 0 0 0 0 0 0 0 0 0 0 0 0 0 0 0 0 0 0 0 0 0 0 0 0 0 0 0 0 0 0 0 0 0 0 0 0 0 0 0 0 0 0
0.111377 4.31587e-07 1.73458e-07 2.58129e-07 0.598093 0.867664 0 0 0 0 0 0 0 0 0 0 0 0 0 0 0 0 0 0 0 0 0 0 0 0 0 0 0 0 0 0 0 0 0 0 0 0 0 0 0 0 0 0
0.117094 4.32031e-07 1.74888e-07 2.57143e-07 0.595195 0.870736 0 0 0 0 0 0 0 0 0 0 0 0 0 0 0 0 0 0 0 0 0 0 0 0 0 0 0 0 0 0 0 0 0 0 0 0 0 0 0 0 0 0
0.123105 4.32501e-07 1.75967e-07 2.56534e-07 0.593141 0.872656 0 0 0 0 0 0 0 0 0 0 0 0 0 0 0 0 0 0 0 0 0 0 0 0 0 0 0 0 0 0 0 0 0 0 0 0 0 0 0 0 0 0
0.129424 4.32993e-07 1.76759e-07 2.56234e-07 0.591775 0.873565 0 0 0 0 0 0 0 0 0 0 0 0 0 0 0 0 0 0 0 0 0 0 0 0 0 0 0 0 0 0 0 0 0 0 0 0 0 0 0 0 0 0
0.136067 4.33507e-07 1.77232e-07 2.56275e-07 0.591166 0.873275 0 0 0 0 0 0 0 0 0 0 0 0 0 0 0 0 0 0 0 0 0 0 0 0 0 0 0 0 0 0 0 0 0 0 0 0 0 0 0 0 0 0
0.143051 4.34032e-07 1.77198e-07 2.56834e-07 0.59174 0.870928 0 0 0 0 0 0 0 0 0 0 0 0 0 0 0 0 0 0 0 0 0 0 0 0 0 0 0 0 0 0 0 0 0 0 0 0 0 0 0 0 0 0
0.150394 4.34434e-07 1.78078e-07 2.56356e-07 0.590092 0.872037 0 0 0 0 0 0 0 0 0 0 0 0 0 0 0 0 0 0 0 0 0 0 0 0 0 0 0 0 0 0 0 0 0 0 0 0 0 0 0 0 0 0
0.158114 4.34821e-07 1.80169e-07 2.54652e-07 0.585648 0.878265 0 0 0 0 0 0 0 0 0 0 0 0 0 0 0 0 0 0 0 0 0 0 0 0 0 0 0 0 0 0 0 0 0 0 0 0 0 0 0 0 0 0
0.16623 4.35302e-07 1.82556e-07 2.52746e-07 0.580623 0.885873 0 0 0 0 0 0 0 0 0 0 0 0 0 0 0 0 0 0 0 0 0 0 0 0 0 0 0 0 0 0 0 0 0 0 0 0 0 0 0 0 0 0
0.174762 4.35874e-07 1.84767e-07 2.51108e-07 0.576101 0.892778 0 0 0 0 0 0 0 0 0 0 0 0 0 0 0 0 0 0 0 0 0 0 0 0 0 0 0 0 0 0 0 0 0 0 0 0 0 0 0 0 0 0
0.183733 4.36505e-07 1.86814e-07 2.49691e-07 0.572023 0.898943 0 0 0 0 0 0 0 0 0 0 0 0 0 0 0 0 0 0 0 0 0 0 0 0 0 0 0 0 0 0 0 0 0 0 0 0 0 0 0 0 0 0
0.193164 4.37183e-07 1.88652e-07 2.48531e-07 0.568483 0.904162 0 0 0 0 0 0 0 0 0 0 0 0 0 0 0 0 0 0 0 0 0 0 0 0 0 0 0 0 0 0 0 0 0 0 0 0 0 0 0 0 0 0
0.203079 4.37901e-07 1.90319e-07 2.47582e-07 0.565384 0.908581 0 0 0 0 0 0 0 0 0 0 0 0 0 0 0 0 0 0 0 0 0 0 0 0 0 0 0 0 0 0 0 0 0 0 0 0 0 0 0 0 0 0
0.213503 4.38629e-07 1.91859e-07 2.4677e-07 0.562594 0.912405 0 0 0 0 0 0 0 0 0 0 0 0 0 0 0 0 0 0 0 0 0 0 0 0 0 0 0 0 0 0 0 0 0 0 0 0 0 0 0 0 0 0
0.224463 4.39522e-07 1.9319e-07 2.46332e-07 0.560453 0.915491 0 0 0 0 0 0 0 0 0 0 0 0 0 0 0 0 0 0 0 0 0 0 0 0 0 0 0 0 0 0 0 0 0 0 0 0 0 0 0 0 0 0
0.235984 4.40052e-07 1.94374e-07 2.45679e-07 0.558294 0.917737 0 0 0 0 0 0 0 0 0 0 0 0 0 0 0 0 0 0 0 0 0 0 0 0 0 0 0 0 0 0 0 0 0 0 0 0 0 0 0 0 0 0
0.248097 4.41049e-07 1.95463e-07 2.45586e-07 0.556823 0.919558 0 0 0 0 0 0 0 0 0 0 0 0 0 0 0 0 0 0 0 0 0 0 0 0 0 0 0 0 0 0 0 0 0 0 0 0 0 0 0 0 0 0
0.260832 4.41969e-07 1.96445e-07 2.45524e-07 0.555522 0.920907 0 0 0 0 0 0 0 0 0 0 0 0 0 0 0 0 0 0 0 0 0 0 0 0 0 0 0 0 0 0 0 0 0 0 0 0 0 0 0 0 0 0
0.274221 4.42747e-07 1.97365e-07 2.45382e-07 0.554226 0.921896 0 0 0 0 0 0 0 0 0 0 0 0 0 0 0 0 0 0 0 0 0 0 0 0 0 0 0 0 0 0 0 0 0 0 0 0 0 0 0 0 0 0
0.288297 4.43242e-07 1.98226e-07 2.45016e-07 0.552782 0.922536 0 0 0 0 0 0 0 0 0 0 0 0 0 0 0 0 0 0 0 0 0 0 0 0 0 0 0 0 0 0 0 0 0 0 0 0 0 0 0 0 0 0
0.303095 4.44162e-07 1.99027e-07 2.45134e-07 0.551903 0.923034 0 0 0 0 0 0 0 0 0 0 0 0 0 0 0 0 0 0 0 0 0 0 0 0 0 0 0 0 0 0 0 0 0 0 0 0 0 0 0 0 0 0
0.318653 4.46325e-07 1.99798e-07 2.46528e-07 0.552349 0.923779 0 0 0 0 0 0 0 0 0 0 0 0 0 0 0 0 0 0 0 0 0 0 0 0 0 0 0 0 0 0 0 0 0 0 0 0 0 0 0 0 0 0
0.335009 4.46459e-07 2.00516e-07 2.45943e-07 0.550874 0.923642 0 0 0 0 0 0 0 0 0 0 0 0 0 0 0 0 0 0 0 0 0 0 0 0 0 0 0 0 0 0 0 0 0 0 0 0 0 0 0 0 0 0
0.352205 4.46864e-07 2.01185e-07 2.45679e-07 0.549784 0.923438 0 0 0 0 0 0 0 0 0 0 0 0 0 0 0 0 0 0 0 0 0 0 0 0 0 0 0 0 0 0 0 0 0 0 0 0 0 0 0 0 0 0
0.370284 4.49917e-07 2.01865e-07 2.48052e-07 0.551328 0.923891 0 0 0 0 0 0 0 0 0 0 0 0 0 0 0 0 0 0 0 0 0 0 0 0 0 0 0 0 0 0 0 0 0 0 0 0 0 0 0 0 0 0
0.389291 4.47934e-07 2.02367e-07 2.45567e-07 0.548222 0.922462 0 0 0 0 0 0 0 0 0 0 0 0 0 0 0 0 0 0 0 0 0 0 0 0 0 0 0 0 0 0 0 0 0 0 0 0 0 0 0 0 0 0
0.409273 4.52863e-07 2.02906e-07 2.49957e-07 0.551948 0.923181 0 0 0 0 0 0 0 0 0 0 0 0 0 0 0 0 0 0 0 0 0 0 0 0 0 0 0 0 0 0 0 0 0 0 0 0 0 0 0 0 0 0
0.430281 4.50072e-07 2.03387e-07 2.46685e-07 0.548101 0.921228 0 0 0 0 0 0 0 0 0 0 0 0 0 0 0 0 0 0 0 0 0 0 0 0 0 0 0 0 0 0 0 0 0 0 0 0 0 0 0 0 0 0
0.452368 4.54668e-07 2.03731e-07 2.50937e-07 0.551913 0.921305 0 0 0 0 0 0 0 0 0 0 0 0 0 0 0 0 0 0 0 0 0 0 0 0 0 0 0 0 0 0 0 0 0 0 0 0 0 0 0 0 0 0
0.475588 4.5482e-07 2.03885e-07 2.50934e-07 0.551722 0.919731 0 0 0 0 0 0 0 0 0 0 0 0 0 0 0 0 0 0 0 0 0 0 0 0 0 0 0 0 0 0 0 0 0 0 0 0 0 0 0 0 0 0
0.5 4.52804e-07 2.04256e-07 2.48547e-07 0.548908 0.917464 0 0 0 0 0 0 0 0 0 0 0 0 0 0 0 0 0 0 0 0 0 0 0 0 0 0 0 0 0 0 0 0 0 0 0 0 0 0 0 0 0 0
0.525665 4.61876e-07 2.0435e-07 2.57526e-07 0.557565 0.918474 0 0 0 0 0 0 0 0 0 0 0 0 0 0 0 0 0 0 0 0 0 0 0 0 0 0 0 0 0 0 0 0 0 0 0 0 0 0 0 0 0 0
0.552648 4.56081e-07 2.04492e-07 2.51589e-07 0.551632 0.914258 0 0 0 0 0 0 0 0 0 0 0 0 0 0 0 0 0 0 0 0 0 0 0 0 0 0 0 0 0 0 0 0 0 0 0 0 0 0 0 0 0 0
0.581015 4.55867e-07 2.04122e-07 2.51745e-07 0.552234 0.911349 0 0 0 0 0 0 0 0 0 0 0 0 0 0 0 0 0 0 0 0 0 0 0 0 0 0 0 0 0 0 0 0 0 0 0 0 0 0 0 0 0 0
0.610839 4.68197e-07 2.03929e-07 2.64268e-07 0.564438 0.912712 0 0 0 0 0 0 0 0 0 0 0 0 0 0 0 0 0 0 0 0 0 0 0 0 0 0 0 0 0 0 0 0 0 0 0 0 0 0 0 0 0 0
0.642193 4.63824e-07 2.03847e-07 2.59977e-07 0.560508 0.908655 0 0 0 0 0 0 0 0 0 0 0 0 0 0 0 0 0 0 0 0 0 0 0 0 0 0 0 0 0 0 0 0 0 0 0 0 0 0 0 0 0 0
0.675157 4.55566e-07 2.03569e-07 2.51997e-07 0.553152 0.903125 0 0 0 0 0 0 0 0 0 0 0 0 0 0 0 0 0 0 0 0 0 0 0 0 0 0 0 0 0 0 0 0 0 0 0 0 0 0 0 0 0 0
0.709813 4.67249e-07 2.02661e-07 2.64587e-07 0.566267 0.903367 0 0 0 0 0 0 0 0 0 0 0 0 0 0 0 0 0 0 0 0 0 0 0 0 0 0 0 0 0 0 0 0 0 0 0 0 0 0 0 0 0 0
0.746248 4.79763e-07 2.027e-07 2.77063e-07 0.5775 0.903401 0 0 0 0 0 0 0 0 0 0 0 0 0 0 0 0 0 0 0 0 0 0 0 0 0 0 0 0 0 0 0 0 0 0 0 0 0 0 0 0 0 0
0.784553 4.69355e-07 2.01092e-07 2.68263e-07 0.571557 0.894469 0 0 0 0 0 0 0 0 0 0 0 0 0 0 0 0 0 0 0 0 0 0 0 0 0 0 0 0 0 0 0 0 0 0 0 0 0 0 0 0 0 0
0.824824 4.58084e-07 2.01435e-07 2.56649e-07 0.560266 0.885095 0 0 0 0 0 0 0 0 0 0 0 0 0 0 0 0 0 0 0 0 0 0 0 0 0 0 0 0 0 0 0 0 0 0 0 0 0 0 0 0 0 0
0.867162 4.65919e-07 1.99501e-07 2.66418e-07 0.571812 0.88408 0 0 0 0 0 0 0 0 0 0 0 0 0 0 0 0 0 0 0 0 0 0 0 0 0 0 0 0 0 0 0 0 0 0 0 0 0 0 0 0 0 0
0.911674 4.8798e-07 1.9806e-07 2.8992e-07 0.594122 0.888865 0 0 0 0 0 0 0 0 0 0 0 0 0 0 0 0 0 0 0 0 0 0 0 0 0 0 0 0 0 0 0 0 0 0 0 0 0 0 0 0 0 0
0.95847 4.96873e-07 1.97663e-07 2.9921e-07 0.602186 0.887888 0 0 0 0 0 0 0 0 0 0 0 0 0 0 0 0 0 0 0 0 0 0 0 0 0 0 0 0 0 0 0 0 0 0 0 0 0 0 0 0 0 0
1.00767 4.81392e-07 1.97621e-07 2.83771e-07 0.58948 0.877135 0 0 0 0 0 0 0 0 0 0 0 0 0 0 0 0 0 0 0 0 0 0 0 0 0 0 0 0 0 0 0 0 0 0 0 0 0 0 0 0 0 0
1.05939 4.61282e-07 1.96772e-07 2.6451e-07 0.573424 0.861912 0 0 0 0 0 0 0 0 0 0 0 0 0 0 0 0 0 0 0 0 0 0 0 0 0 0 0 0 0 0 0 0 0 0 0 0 0 0 0 0 0 0
1.11377 4.60898e-07 1.96103e-07 2.64795e-07 0.57452 0.854702 0 0 0 0 0 0 0 0 0 0 0 0 0 0 0 0 0 0 0 0 0 0 0 0 0 0 0 0 0 0 0 0 0 0 0 0 0 0 0 0 0 0
1.17094 4.84191e-07 1.95633e-07 2.88558e-07 0.595959 0.85739 0 0 0 0 0 0 0 0 0 0 0 0 0 0 0 0 0 0 0 0 0 0 0 0 0 0 0 0 0 0 0 0 0 0 0 0 0 0 0 0 0 0
1.23105 5.14353e-07 1.93556e-07 3.20797e-07 0.62369 0.858371 0 0 0 0 0 0 0 0 0 0 0 0 0 0 0 0 0 0 0 0 0 0 0 0 0 0 0 0 0 0 0 0 0 0 0 0 0 0 0 0 0 0
1.29424 5.2916e-07 1.9076e-07 3.38401e-07 0.639505 0.855941 0 0 0 0 0 0 0 0 0 0 0 0 0 0 0 0 0 0 0 0 0 0 0 0 0 0 0 0 0 0 0 0 0 0 0 0 0 0 0 0 0 0
1.36067 5.17965e-07 1.86756e-07 3.31209e-07 0.639443 0.84664 0 0 0 0 0 0 0 0 0 0 0 0 0 0 0 0 0 0 0 0 0 0 0 0 0 0 0 0 0 0 0 0 0 0 0 0 0 0 0 0 0 0
1.43051 4.86792e-07 1.81846e-07 3.04945e-07 0.626439 0.820374 0 0 0 0 0 0 0 0 0 0 0 0 0 0 0 0 0 0 0 0 0 0 0 0 0 0 0 0 0 0 0 0 0 0 0 0 0 0 0 0 0 0
1.50394 4.59186e-07 1.81988e-07 2.77198e-07 0.603672 0.79987 0 0 0 0 0 0 0 0 0 0 0 0 0 0 0 0 0 0 0 0 0 0 0 0 0 0 0 0 0 0 0 0 0 0 0 0 0 0 0 0 0 0
1.58114 4.54677e-07 1.82479e-07 2.72198e-07 0.598663 0.792174 0 0 0 0 0 0 0 0 0 0 0 0 0 0 0 0 0 0 0 0 0 0 0 0 0 0 0 0 0 0 0 0 0 0 0 0 0 0 0 0 0 0
1.6623 4.74173e-07 1.81547e-07 2.92626e-07 0.61713 0.798355 0 0 0 0 0 0 0 0 0 0 0 0 0 0 0 0 0 0 0 0 0 0 0 0 0 0 0 0 0 0 0 0 0 0 0 0 0 0 0 0 0 0
1.74763 4.9995e-07 1.78668e-07 3.21281e-07 0.642627 0.816821 0 0 0 0 0 0 0 0 0 0 0 0 0 0 0 0 0 0 0 0 0 0 0 0 0 0 0 0 0 0 0 0 0 0 0 0 0 0 0 0 0 0
1.83733 5.3822e-07 1.78128e-07 3.60092e-07 0.669043 0.83632 0 0 0 0 0 0 0 0 0 0 0 0 0 0 0 0 0 0 0 0 0 0 0 0 0 0 0 0 0 0 0 0 0 0 0 0 0 0 0 0 0 0
1.93164 5.81808e-07 1.81246e-07 4.00562e-07 0.688478 0.839723 0 0 0 0 0 0 0 0 0 0 0 0 0 0 0 0 0 0 0 0 0 0 0 0 0 0 0 0 0 0 0 0 0 0 0 0 0 0 0 0 0 0
2.03079 5.87448e-07 1.81617e-07 4.05831e-07 0.690838 0.846263 0 0 0 0 0 0 0 0 0 0 0 0 0 0 0 0 0 0 0 0 0 0 0 0 0 0 0 0 0 0 0 0 0 0 0 0 0 0 0 0 0 0
2.13503 5.83773e-07 1.76899e-07 4.06874e-07 0.696974 0.825674 0 0 0 0 0 0 0 0 0 0 0 0 0 0 0 0 0 0 0 0 0 0 0 0 0 0 0 0 0 0 0 0 0 0 0 0 0 0 0 0 0 0
2.24463 5.56905e-07 1.79556e-07 3.77349e-07 0.677583 0.812105 0 0 0 0 0 0 0 0 0 0 0 0 0 0 0 0 0 0 0 0 0 0 0 0 0 0 0 0 0 0 0 0 0 0 0 0 0 0 0 0 0 0
2.35984 5.22353e-07 1.76655e-07 3.45698e-07 0.661809 0.758959 0 0 0 0 0 0 0 0 0 0 0 0 0 0 0 0 0 0 0 0 0 0 0 0 0 0 0 0 0 0 0 0 0 0 0 0 0 0 0 0 0 0
2.48097 4.77854e-07 1.76328e-07 3.01526e-07 0.631001 0.711487 0 0 0 0 0 0 0 0 0 0 0 0 0 0 0 0 0 0 0 0 0 0 0 0 0 0 0 0 0 0 0 0 0 0 0 0 0 0 0 0 0 0
2.60832 4.61054e-07 1.7719e-07 2.83863e-07 0.615684 0.646846 0 0 0 0 0 0 0 0 0 0 0 0 0 0 0 0 0 0 0 0 0 0 0 0 0 0 0 0 0 0 0 0 0 0 0 0 0 0 0 0 0 0
2.74221 4.30274e-07 1.79748e-07 2.50526e-07 0.582247 0.557637 0 0 0 0 0 0 0 0 0 0 0 0 0 0 0 0 0 0 0 0 0 0 0 0 0 0 0 0 0 0 0 0 0 0 0 0 0 0 0 0 0 0
2.88297 4.46313e-07 1.69167e-07 2.77146e-07 0.620969 0.556798 0 0 0 0 0 0 0 0 0 0 0 0 0 0 0 0 0 0 0 0 0 0 0 0 0 0 0 0 0 0 0 0 0 0 0 0 0 0 0 0 0 0
3.03095 4.66178e-07 1.84217e-07 2.81961e-07 0.604835 0.535797 0 0 0 0 0 0 0 0 0 0 0 0 0 0 0 0 0 0 0 0 0 0 0 0 0 0 0 0 0 0 0 0 0 0 0 0 0 0 0 0 0 0
3.18653 4.72032e-07 1.60918e-07 3.11114e-07 0.659095 0.545728 0 0 0 0 0 0 0 0 0 0 0 0 0 0 0 0 0 0 0 0 0 0 0 0 0 0 0 0 0 0 0 0 0 0 0 0 0 0 0 0 0 0
3.35009 5.53511e-07 1.6379e-07 3.89721e-07 0.704089 0.600696 0 0 0 0 0 0 0 0 0 0 0 0 0 0 0 0 0 0 0 0 0 0 0 0 0 0 0 0 0 0 0 0 0 0 0 0 0 0 0 0 0 0
3.52205 6.0832e-07 1.77531e-07 4.30789e-07 0.708163 0.61596 0 0 0 0 0 0 0 0 0 0 0 0 0 0 0 0 0 0 0 0 0 0 0 0 0 0 0 0 0 0 0 0 0 0 0 0 0 0 0 0 0 0
3.70284 6.25973e-07 1.51088e-07 4.74885e-07 0.758635 0.653588 0 0 0 0 0 0 0 0 0 0 0 0 0 0 0 0 0 0 0 0 0 0 0 0 0 0 0 0 0 0 0 0 0 0 0 0 0 0 0 0 0 0
3.89291 7.20162e-07 1.49753e-07 5.70409e-07 0.792057 0.688742 0 0 0 0 0 0 0 0 0 0 0 0 0 0 0 0 0 0 0 0 0 0 0 0 0 0 0 0 0 0 0 0 0 0 0 0 0 0 0 0 0 0
4.09273 7.87397e-07 1.61634e-07 6.25763e-07 0.794723 0.694707 0 0 0 0 0 0 0 0 0 0 0 0 0 0 0 0 0 0 0 0 0 0 0 0 0 0 0 0 0 0 0 0 0 0 0 0 0 0 0 0 0 0
4.30281 7.71041e-07 1.44783e-07 6.26258e-07 0.812224 0.702864 0 0 0 0 0 0 0 0 0 0 0 0 0 0 0 0 0 0 0 0 0 0 0 0 0 0 0 0 0 0 0 0 0 0 0 0 0 0 0 0 0 0
4.52368 8.03422e-07 1.32175e-07 6.71247e-07 0.835485 0.731272 0 0 0 0 0 0 0 0 0 0 0 0 0 0 0 0 0 0 0 0 0 0 0 0 0 0 0 0 0 0 0 0 0 0 0 0 0 0 0 0 0 0
4.75588 8.55466e-07 1.36074e-07 7.19392e-07 0.840936 0.742615 0 0 0 0 0 0 0 0 0 0 0 0 0 0 0 0 0 0 0 0 0 0 0 0 0 0 0 0 0 0 0 0 0 0 0 0 0 0 0 0 0 0
5 8.42546e-07 1.36936e-07 7.05609e-07 0.837473 0.734416 0 0 0 0 0 0 0 0 0 0 0 0 0 0 0 0 0 0 0 0 0 0 0 0 0 0 0 0 0 0 0 0 0 0 0 0 0 0 0 0 0 0
5.25665 7.76757e-07 1.23205e-07 6.53552e-07 0.841386 0.724195 0 0 0 0 0 0 0 0 0 0 0 0 0 0 0 0 0 0 0 0 0 0 0 0 0 0 0 0 0 0 0 0 0 0 0 0 0 0 0 0 0 0
5.52648 7.40263e-07 1.15253e-07 6.2501e-07 0.844308 0.731505 0 0 0 0 0 0 0 0 0 0 0 0 0 0 0 0 0 0 0 0 0 0 0 0 0 0 0 0 0 0 0 0 0 0 0 0 0 0 0 0 0 0
5.81015 7.11399e-07 1.1673e-07 5.94669e-07 0.835915 0.744598 0 0 0 0 0 0 0 0 0 0 0 0 0 0 0 0 0 0 0 0 0 0 0 0 0 0 0 0 0 0 0 0 0 0 0 0 0 0 0 0 0 0
6.10839 6.48488e-07 1.1782e-07 5.30668e-07 0.818316 0.746501 0 0 0 0 0 0 0 0 0 0 0 0 0 0 0 0 0 0 0 0 0 0 0 0 0 0 0 0 0 0 0 0 0 0 0 0 0 0 0 0 0 0
6.42193 5.53149e-07 1.10582e-07 4.42568e-07 0.800087 0.727908 0 0 0 0 0 0 0 0 0 0 0 0 0 0 0 0 0 0 0 0 0 0 0 0 0 0 0 0 0 0 0 0 0 0 0 0 0 0 0 0 0 0
6.75157 4.57007e-07 9.97797e-08 3.57227e-07 0.781667 0.700126 0 0 0 0 0 0 0 0 0 0 0 0 0 0 0 0 0 0 0 0 0 0 0 0 0 0 0 0 0 0 0 0 0 0 0 0 0 0 0 0 0 0
7.09813 3.61426e-07 9.26423e-08 2.68783e-07 0.743675 0.686765 0 0 0 0 0 0 0 0 0 0 0 0 0 0 0 0 0 0 0 0 0 0 0 0 0 0 0 0 0 0 0 0 0 0 0 0 0 0 0 0 0 0
7.46248 2.52604e-07 9.85151e-08 1.54089e-07 0.610002 0.698203 0 0 0 0 0 0 0 0 0 0 0 0 0 0 0 0 0 0 0 0 0 0 0 0 0 0 0 0 0 0 0 0 0 0 0 0 0 0 0 0 1.4013e-45 0
7.84553 2.02962e-07 1.39318e-07 6.36441e-08 0.313576 0.694315 0 0 0 0 0 0 0 0 0 0 0 0 0 0 0 0 0 0 0 0 0 0 0 0 0 0 0 0 0 0 2.8026e-45 0 7.00649e-45 0 2.10195e-44 0 6.02558e-44 0 1.55544e-43 0 3.78351e-43 0
8.24824 2.60354e-07 2.03233e-07 5.7121e-08 0.219398 0.656499 0 0 0 0 0 0 0 0 0 0 0 0 0 0 0 0 0 0 0 0 0 0 2.8026e-45 0 1.26117e-44 0 5.04467e-44 0 1.8357e-43 0 6.05361e-43 0 1.87354e-42 0 5.08952e-42 0 1.35716e-41 0 3.31856e-41 0 7.72704e-41 0
8.67162 3.30954e-07 2.4719e-07 8.37641e-08 0.253099 0.617519 0 0 0 0 0 0 0 0 0 0 0 0 0 0 0 0 1.4013e-45 0 1.68156e-44 0 1.079e-43 0 5.63322e-43 0 2.49431e-42 0 9.50501e-42 0 3.25998e-41 0 1.01256e-40 0 2.96432e-40 0 7.67033e-40 0 1.94942e-39 0 4.5632e-39 0 1.01958e-38 0
9.11674 4.18974e-07 2.90162e-07 1.28811e-07 0.307445 0.578372 0 0 0 0 0 0 0 0 0 0 0 0 2.8026e-45 0 4.2039e-44 0 4.30199e-43 0 3.19076e-42 0 1.88839e-41 0 9.08756e-41 0 3.74599e-40 0 1.33728e-39 0 4.31854e-39 0 1.26915e-38 0 3.52563e-38 0 8.70898e-38 0 2.11485e-37 0 4.74909e-37 0 1.02027e-36 0
9.5847 5.03398e-07 3.25822e-07 1.77576e-07 0.352755 0.550647 0 0 0 0 0 0 0 0 0 0 2.24208e-44 0 5.26888e-43 0 7.25312e-42 0 6.70423e-41 0 4.50991e-40 0 2.44696e-39 0 1.09058e-38 0 4.19509e-38 0 1.40739e-37 0 4.29212e-37 0 1.19671e-36 0 3.16263e-36 0 7.47489e-36 0 1.73822e-35 0 3.75217e-35 0 7.76555e-35 0
10.0767 5.4058e-07 3.38168e-07 2.02412e-07 0.374435 0.519276 0 0 0 0 0 0 0 0 7.84727e-44 0 3.68121e-42 0 7.46878e-41 0 9.04324e-40 0 7.49845e-39 0 4.59588e-38 0 2.29598e-37 0 9.51285e-37 0 3.42633e-36 0 1.08352e-35 0 3.12932e-35 0 8.29901e-35 0 2.0916e-34 0 4.74019e-34 0 1.0578e-33 0 2.19919e-33 0 4.39269e-33 0
10.5939 5.69756e-07 3.42656e-07 2.271e-07 0.398592 0.480396 0 0 0 0 0 0 8.68805e-44 0 1.18858e-41 0 4.58415e-40 0 8.02849e-39 0 8.60649e-38 0 6.43608e-37 0 3.61056e-36 0 1.6675e-35 0 6.44566e-35 0 2.18079e-34 0 6.51943e-34 0 1.78786e-33 0 4.52095e-33 0 1.08913e-32 0 2.37165e-32 0 5.08905e-32 0 1.02089e-31 0 1.9714e-31 0
11.1377 5.81432e-07 3.41089e-07 2.40342e-07 0.413363 0.44448 0 0 0 0 1.26117e-44 0 1.26439e-41 0 1.35726e-39 0 4.37949e-38 0 6.66947e-37 0 6.36775e-36 0 4.31637e-35 0 2.2259e-34 0 9.54012e-34 0 3.45212e-33 0 1.10049e-32 0 3.11862e-32 0 8.14134e-32 0 1.96753e-31 0 4.54076e-31 0 9.51913e-31 0 1.96786e-30 0 3.8157e-30 0 7.13538e-30 0
11.7094 5.93092e-07 3.40837e-07 2.52255e-07 0.425322 0.412885 0 0 0 0 1.90997e-42 0 1.42714e-39 0 1.21921e-37 0 3.32027e-36 0 4.42689e-35 0 3.78574e-34 0 2.33725e-33 0 1.11253e-32 0 4.44119e-32 0 1.50925e-31 0 4.54653e-31 0 1.22453e-30 0 3.05039e-30 0 7.06104e-30 0 1.56439e-29 0 3.16313e-29 0 6.31124e-29 0 1.18482e-28 0 2.14894e-28 0
12.3105 6.06035e-07 3.41542e-07 2.64492e-07 0.436431 0.392837 0 0 1.4013e-45 0 2.34249e-40 0 1.26681e-37 0 8.70995e-36 0 2.01858e-34 0 2.37163e-33 0 1.82638e-32 0 1.03169e-31 0 4.55061e-31 0 1.69788e-30 0 5.43538e-30 0 1.55155e-29 0 3.98149e-29 0 9.48592e-29 0 2.10764e-28 0 4.49163e-28 0 8.77502e-28 0 1.69277e-27 0 3.08165e-27 0 5.42912e-27 0
12.9424 6.05737e-07 3.37568e-07 2.68168e-07 0.442714 0.387679 0 0 2.92871e-43 0 2.2131e-38 0 8.80232e-36 0 4.92261e-34 0 9.7854e-33 0 1.01939e-31 0 7.10557e-31 0 3.68843e-30 0 1.51319e-29 0 5.29434e-29 0 1.60127e-28 0 4.34269e-28 0 1.06428e-27 0 2.43042e-27 0 5.19362e-27 0 1.06668e-26 0 2.01687e-26 0 3.76787e-26 0 6.66157e-26 0 1.1416e-25 0
13.6067 5.56424e-07 3.11555e-07 2.44869e-07 0.440076 0.386067 0 0 3.52931e-41 0 1.54375e-36 0 4.58407e-34 0 2.10632e-32 0 3.61839e-31 0 3.36189e-30 0 2.13144e-29 0 1.02093e-28 0 3.90946e-28 0 1.2867e-27 0 3.6869e-27 0 9.52361e-27 0 2.23404e-26 0 4.90013e-26 0 1.00901e-25 0 2.00077e-25 0 3.6672e-25 0 6.64509e-25 0 1.14261e-24 0 1.90728e-24 0
14.3051 4.49527e-07 2.6478e-07 1.84747e-07 0.410981 0.347965 3.36312e-44 0 3.05501e-39 0 7.93073e-35 0 1.78345e-32 0 6.79791e-31 0 1.01641e-29 0 8.46979e-29 0 4.90683e-28 0 2.17724e-27 0 7.80832e-27 0 2.4247e-26 0 6.59966e-26 0 1.62757e-25 0 3.66227e-25 0 7.73057e-25 0 1.53668e-24 0 2.94693e-24 0 5.24397e-24 0 9.23043e-24 0 1.54571e-23 0 2.5164e-23 0
15.0394 3.87347e-07 2.50671e-07 1.36676e-07 0.352851 0.29119 4.536e-42 0 2.32198e-37 0 3.66974e-33 0 6.33508e-31 0 2.02148e-29 0 2.64856e-28 0 1.99002e-27 0 1.05812e-26 0 4.36563e-26 0 1.47102e-25 0 4.32208e-25 0 1.12027e-24 0 2.64364e-24 0 5.71763e-24 0 1.16369e-23 0 2.23687e-23 0 4.15548e-23 0 7.18936e-23 0 1.23101e-22 0 2.01018e-22 0 3.19562e-22 0
