# 3.17825e-05 1 65 : grain size, compostion index, size index
# Heating and cooling timescale: 0.00265434 1.20794e+06
# Ratio of heating to cooling to determine stochastic cutoff: 100
# Equilibrium emission is recorded even for those grains in the stochastic regime.
# Emission spectrum was computed for: 
# Type: IRSF
# Scales: 0.25 0.5 1 1.5 2 2.5 3 3.5 4 4.5 5 5.5 6 6.5 7 7.5 8 8.5 9 9.5 10
# StochasticallyHeated: 0 0 0 0 0 0 0 0 0 0 0 0 0 0 0 0 0 0 0 0 0
# Temperature: -1
# Wavelength  CExt  CAbs  CSca  Albedo G EqEm1 StEm1 EqEm2 StEm2 EqEm3 StEm3 EqEm4 StEm4 EqEm5 StEm5 EqEm6 StEm6 EqEm7 StEm7 EqEm8 StEm8 EqEm9 StEm9 EqEm10 StEm10 EqEm11 StEm11 EqEm12 StEm12 EqEm13 StEm13 EqEm14 StEm14 EqEm15 StEm15 EqEm16 StEm16 EqEm17 StEm17 EqEm18 StEm18 EqEm19 StEm19 EqEm20 StEm20 EqEm21 StEm21
0.05 6.68704e-09 2.35154e-09 4.3355e-09 0.648344 0.857863 0 0 0 0 0 0 0 0 0 0 0 0 0 0 0 0 0 0 0 0 0 0 0 0 0 0 0 0 0 0 0 0 0 0 0 0 0 0 0 0 0 0
0.0525665 6.72258e-09 2.33731e-09 4.38526e-09 0.652319 0.845985 0 0 0 0 0 0 0 0 0 0 0 0 0 0 0 0 0 0 0 0 0 0 0 0 0 0 0 0 0 0 0 0 0 0 0 0 0 0 0 0 0 0
0.0552647 6.75994e-09 2.33421e-09 4.42573e-09 0.6547 0.836118 0 0 0 0 0 0 0 0 0 0 0 0 0 0 0 0 0 0 0 0 0 0 0 0 0 0 0 0 0 0 0 0 0 0 0 0 0 0 0 0 0 0
0.0581015 6.79421e-09 2.34551e-09 4.4487e-09 0.654778 0.830013 0 0 0 0 0 0 0 0 0 0 0 0 0 0 0 0 0 0 0 0 0 0 0 0 0 0 0 0 0 0 0 0 0 0 0 0 0 0 0 0 0 0
0.0610839 6.82844e-09 2.33258e-09 4.49587e-09 0.658403 0.821733 0 0 0 0 0 0 0 0 0 0 0 0 0 0 0 0 0 0 0 0 0 0 0 0 0 0 0 0 0 0 0 0 0 0 0 0 0 0 0 0 0 0
0.0642193 6.87887e-09 2.27576e-09 4.60311e-09 0.669166 0.804758 0 0 0 0 0 0 0 0 0 0 0 0 0 0 0 0 0 0 0 0 0 0 0 0 0 0 0 0 0 0 0 0 0 0 0 0 0 0 0 0 0 0
0.0675157 6.95097e-09 2.23605e-09 4.71492e-09 0.678311 0.786401 0 0 0 0 0 0 0 0 0 0 0 0 0 0 0 0 0 0 0 0 0 0 0 0 0 0 0 0 0 0 0 0 0 0 0 0 0 0 0 0 0 0
0.0709813 7.02947e-09 2.28238e-09 4.74709e-09 0.675313 0.779977 0 0 0 0 0 0 0 0 0 0 0 0 0 0 0 0 0 0 0 0 0 0 0 0 0 0 0 0 0 0 0 0 0 0 0 0 0 0 0 0 0 0
0.0746248 7.09987e-09 2.36931e-09 4.73056e-09 0.666289 0.781331 0 0 0 0 0 0 0 0 0 0 0 0 0 0 0 0 0 0 0 0 0 0 0 0 0 0 0 0 0 0 0 0 0 0 0 0 0 0 0 0 0 0
0.0784553 7.15777e-09 2.46321e-09 4.69457e-09 0.65587 0.785842 0 0 0 0 0 0 0 0 0 0 0 0 0 0 0 0 0 0 0 0 0 0 0 0 0 0 0 0 0 0 0 0 0 0 0 0 0 0 0 0 0 0
0.0824824 7.20218e-09 2.55676e-09 4.64542e-09 0.645002 0.79092 0 0 0 0 0 0 0 0 0 0 0 0 0 0 0 0 0 0 0 0 0 0 0 0 0 0 0 0 0 0 0 0 0 0 0 0 0 0 0 0 0 0
0.0867162 7.24283e-09 2.60294e-09 4.63989e-09 0.640619 0.789426 0 0 0 0 0 0 0 0 0 0 0 0 0 0 0 0 0 0 0 0 0 0 0 0 0 0 0 0 0 0 0 0 0 0 0 0 0 0 0 0 0 0
0.0911674 7.29192e-09 2.63038e-09 4.66153e-09 0.639274 0.784344 0 0 0 0 0 0 0 0 0 0 0 0 0 0 0 0 0 0 0 0 0 0 0 0 0 0 0 0 0 0 0 0 0 0 0 0 0 0 0 0 0 0
0.095847 7.33179e-09 2.67619e-09 4.65561e-09 0.634989 0.782135 0 0 0 0 0 0 0 0 0 0 0 0 0 0 0 0 0 0 0 0 0 0 0 0 0 0 0 0 0 0 0 0 0 0 0 0 0 0 0 0 0 0
0.100767 7.3295e-09 2.77369e-09 4.55581e-09 0.621572 0.791255 0 0 0 0 0 0 0 0 0 0 0 0 0 0 0 0 0 0 0 0 0 0 0 0 0 0 0 0 0 0 0 0 0 0 0 0 0 0 0 0 0 0
0.105939 7.3164e-09 2.86072e-09 4.45568e-09 0.608999 0.80346 0 0 0 0 0 0 0 0 0 0 0 0 0 0 0 0 0 0 0 0 0 0 0 0 0 0 0 0 0 0 0 0 0 0 0 0 0 0 0 0 0 0
0.111377 7.26274e-09 2.99822e-09 4.26453e-09 0.587178 0.827116 0 0 0 0 0 0 0 0 0 0 0 0 0 0 0 0 0 0 0 0 0 0 0 0 0 0 0 0 0 0 0 0 0 0 0 0 0 0 0 0 0 0
0.117094 7.25762e-09 3.16539e-09 4.09223e-09 0.563853 0.856145 0 0 0 0 0 0 0 0 0 0 0 0 0 0 0 0 0 0 0 0 0 0 0 0 0 0 0 0 0 0 0 0 0 0 0 0 0 0 0 0 0 0
0.123105 7.27394e-09 3.28944e-09 3.9845e-09 0.547777 0.876602 0 0 0 0 0 0 0 0 0 0 0 0 0 0 0 0 0 0 0 0 0 0 0 0 0 0 0 0 0 0 0 0 0 0 0 0 0 0 0 0 0 0
0.129424 7.29764e-09 3.40593e-09 3.89171e-09 0.533283 0.894746 0 0 0 0 0 0 0 0 0 0 0 0 0 0 0 0 0 0 0 0 0 0 0 0 0 0 0 0 0 0 0 0 0 0 0 0 0 0 0 0 0 0
0.136067 7.31382e-09 3.50501e-09 3.80881e-09 0.520769 0.909382 0 0 0 0 0 0 0 0 0 0 0 0 0 0 0 0 0 0 0 0 0 0 0 0 0 0 0 0 0 0 0 0 0 0 0 0 0 0 0 0 0 0
0.143051 7.30122e-09 3.5747e-09 3.72652e-09 0.510397 0.920466 0 0 0 0 0 0 0 0 0 0 0 0 0 0 0 0 0 0 0 0 0 0 0 0 0 0 0 0 0 0 0 0 0 0 0 0 0 0 0 0 0 0
0.150394 7.21465e-09 3.579e-09 3.63565e-09 0.503926 0.926897 0 0 0 0 0 0 0 0 0 0 0 0 0 0 0 0 0 0 0 0 0 0 0 0 0 0 0 0 0 0 0 0 0 0 0 0 0 0 0 0 0 0
0.158114 7.09014e-09 3.52626e-09 3.56388e-09 0.502653 0.926458 0 0 0 0 0 0 0 0 0 0 0 0 0 0 0 0 0 0 0 0 0 0 0 0 0 0 0 0 0 0 0 0 0 0 0 0 0 0 0 0 0 0
0.16623 7.06805e-09 3.42871e-09 3.63934e-09 0.5149 0.914678 0 0 0 0 0 0 0 0 0 0 0 0 0 0 0 0 0 0 0 0 0 0 0 0 0 0 0 0 0 0 0 0 0 0 0 0 0 0 0 0 0 0
0.174762 7.18328e-09 3.30655e-09 3.87673e-09 0.539689 0.888905 0 0 0 0 0 0 0 0 0 0 0 0 0 0 0 0 0 0 0 0 0 0 0 0 0 0 0 0 0 0 0 0 0 0 0 0 0 0 0 0 0 0
0.183733 7.34303e-09 3.18133e-09 4.1617e-09 0.566755 0.85582 0 0 0 0 0 0 0 0 0 0 0 0 0 0 0 0 0 0 0 0 0 0 0 0 0 0 0 0 0 0 0 0 0 0 0 0 0 0 0 0 0 0
0.193164 7.53377e-09 3.07643e-09 4.45734e-09 0.591648 0.82325 0 0 0 0 0 0 0 0 0 0 0 0 0 0 0 0 0 0 0 0 0 0 0 0 0 0 0 0 0 0 0 0 0 0 0 0 0 0 0 0 0 0
0.203079 7.75334e-09 3.01743e-09 4.7359e-09 0.610821 0.797639 0 0 0 0 0 0 0 0 0 0 0 0 0 0 0 0 0 0 0 0 0 0 0 0 0 0 0 0 0 0 0 0 0 0 0 0 0 0 0 0 0 0
0.213503 7.99206e-09 2.9939e-09 4.99816e-09 0.62539 0.777832 0 0 0 0 0 0 0 0 0 0 0 0 0 0 0 0 0 0 0 0 0 0 0 0 0 0 0 0 0 0 0 0 0 0 0 0 0 0 0 0 0 0
0.224463 8.22565e-09 3.01429e-09 5.21136e-09 0.63355 0.764744 0 0 0 0 0 0 0 0 0 0 0 0 0 0 0 0 0 0 0 0 0 0 0 0 0 0 0 0 0 0 0 0 0 0 0 0 0 0 0 0 0 0
0.235984 8.35534e-09 3.01589e-09 5.33945e-09 0.639047 0.75405 0 0 0 0 0 0 0 0 0 0 0 0 0 0 0 0 0 0 0 0 0 0 0 0 0 0 0 0 0 0 0 0 0 0 0 0 0 0 0 0 0 0
0.248097 8.34365e-09 3.02474e-09 5.31891e-09 0.63748 0.746578 0 0 0 0 0 0 0 0 0 0 0 0 0 0 0 0 0 0 0 0 0 0 0 0 0 0 0 0 0 0 0 0 0 0 0 0 0 0 0 0 0 0
0.260832 8.26936e-09 3.06223e-09 5.20713e-09 0.62969 0.742556 0 0 0 0 0 0 0 0 0 0 0 0 0 0 0 0 0 0 0 0 0 0 0 0 0 0 0 0 0 0 0 0 0 0 0 0 0 0 0 0 0 0
0.274221 8.19981e-09 3.11736e-09 5.08245e-09 0.619825 0.740602 0 0 0 0 0 0 0 0 0 0 0 0 0 0 0 0 0 0 0 0 0 0 0 0 0 0 0 0 0 0 0 0 0 0 0 0 0 0 0 0 0 0
0.288297 8.16256e-09 3.21445e-09 4.94811e-09 0.606195 0.743936 0 0 0 0 0 0 0 0 0 0 0 0 0 0 0 0 0 0 0 0 0 0 0 0 0 0 0 0 0 0 0 0 0 0 0 0 0 0 0 0 0 0
0.303095 8.16347e-09 3.29702e-09 4.86645e-09 0.596126 0.74643 0 0 0 0 0 0 0 0 0 0 0 0 0 0 0 0 0 0 0 0 0 0 0 0 0 0 0 0 0 0 0 0 0 0 0 0 0 0 0 0 0 0
0.318653 8.17682e-09 3.37505e-09 4.80177e-09 0.587242 0.748276 0 0 0 0 0 0 0 0 0 0 0 0 0 0 0 0 0 0 0 0 0 0 0 0 0 0 0 0 0 0 0 0 0 0 0 0 0 0 0 0 0 0
0.335009 8.20152e-09 3.44663e-09 4.75489e-09 0.579757 0.74933 0 0 0 0 0 0 0 0 0 0 0 0 0 0 0 0 0 0 0 0 0 0 0 0 0 0 0 0 0 0 0 0 0 0 0 0 0 0 0 0 0 0
0.352205 8.23965e-09 3.51238e-09 4.72727e-09 0.573722 0.749251 0 0 0 0 0 0 0 0 0 0 0 0 0 0 0 0 0 0 0 0 0 0 0 0 0 0 0 0 0 0 0 0 0 0 0 0 0 0 0 0 0 0
0.370284 8.2828e-09 3.57186e-09 4.71095e-09 0.568762 0.747604 0 0 0 0 0 0 0 0 0 0 0 0 0 0 0 0 0 0 0 0 0 0 0 0 0 0 0 0 0 0 0 0 0 0 0 0 0 0 0 0 0 0
0.389291 8.32504e-09 3.61962e-09 4.70542e-09 0.565213 0.744066 0 0 0 0 0 0 0 0 0 0 0 0 0 0 0 0 0 0 0 0 0 0 0 0 0 0 0 0 0 0 0 0 0 0 0 0 0 0 0 0 0 0
0.409273 8.3732e-09 3.66705e-09 4.70616e-09 0.56205 0.740232 0 0 0 0 0 0 0 0 0 0 0 0 0 0 0 0 0 0 0 0 0 0 0 0 0 0 0 0 0 0 0 0 0 0 0 0 0 0 0 0 0 0
0.430281 8.42722e-09 3.71842e-09 4.7088e-09 0.55876 0.736179 0 0 0 0 0 0 0 0 0 0 0 0 0 0 0 0 0 0 0 0 0 0 0 0 0 0 0 0 0 0 0 0 0 0 0 0 0 0 0 0 0 0
0.452368 8.48601e-09 3.76923e-09 4.71678e-09 0.55583 0.731791 0 0 0 0 0 0 0 0 0 0 0 0 0 0 0 0 0 0 0 0 0 0 0 0 0 0 0 0 0 0 0 0 0 0 0 0 0 0 0 0 0 0
0.475588 8.55711e-09 3.81577e-09 4.74133e-09 0.554081 0.727308 0 0 0 0 0 0 0 0 0 0 0 0 0 0 0 0 0 0 0 0 0 0 0 0 0 0 0 0 0 0 0 0 0 0 0 0 0 0 0 0 0 0
0.5 8.64265e-09 3.86279e-09 4.77987e-09 0.553055 0.723562 0 0 0 0 0 0 0 0 0 0 0 0 0 0 0 0 0 0 0 0 0 0 0 0 0 0 0 0 0 0 0 0 0 0 0 0 0 0 0 0 0 0
0.525665 8.72089e-09 3.91515e-09 4.80574e-09 0.551061 0.720092 0 0 0 0 0 0 0 0 0 0 0 0 0 0 0 0 0 0 0 0 0 0 0 0 0 0 0 0 0 0 0 0 0 0 0 0 0 0 0 0 0 0
0.552648 8.73991e-09 3.94852e-09 4.79139e-09 0.548219 0.711785 0 0 0 0 0 0 0 0 0 0 0 0 0 0 0 0 0 0 0 0 0 0 0 0 0 0 0 0 0 0 0 0 0 0 0 0 0 0 0 0 0 0
0.581015 8.7276e-09 3.99657e-09 4.73103e-09 0.542077 0.699195 0 0 0 0 0 0 0 0 0 0 0 0 0 0 0 0 0 0 0 0 0 0 0 0 0 0 0 0 0 0 0 0 0 0 0 0 0 0 0 0 0 0
0.610839 8.69747e-09 4.06371e-09 4.63376e-09 0.532771 0.686257 0 0 0 0 0 0 0 0 0 0 0 0 0 0 0 0 0 0 0 0 0 0 0 0 0 0 0 0 0 0 0 0 0 0 0 0 0 0 0 0 0 0
0.642193 8.51419e-09 4.01471e-09 4.49948e-09 0.528468 0.654518 0 0 0 0 0 0 0 0 0 0 0 0 0 0 0 0 0 0 0 0 0 0 0 0 0 0 0 0 0 0 0 0 0 0 0 0 0 0 0 0 0 0
0.675157 8.53238e-09 4.03072e-09 4.50166e-09 0.527598 0.607672 0 0 0 0 0 0 0 0 0 0 0 0 0 0 0 0 0 0 0 0 0 0 0 0 0 0 0 0 0 0 0 0 0 0 0 0 0 0 0 0 0 0
0.709813 8.73989e-09 4.07244e-09 4.66746e-09 0.53404 0.578585 0 0 0 0 0 0 0 0 0 0 0 0 0 0 0 0 0 0 0 0 0 0 0 0 0 0 0 0 0 0 0 0 0 0 0 0 0 0 0 0 0 0
0.746248 8.90008e-09 4.05251e-09 4.84757e-09 0.544666 0.572224 0 0 0 0 0 0 0 0 0 0 0 0 0 0 0 0 0 0 0 0 0 0 0 0 0 0 0 0 0 0 0 0 0 0 0 0 0 0 0 0 0 0
0.784553 8.98548e-09 3.97846e-09 5.00702e-09 0.557234 0.561793 0 0 0 0 0 0 0 0 0 0 0 0 0 0 0 0 0 0 0 0 0 0 0 0 0 0 0 0 0 0 0 0 0 0 0 0 0 0 0 0 0 0
0.824824 9.52257e-09 4.06288e-09 5.4597e-09 0.573343 0.533915 0 0 0 0 0 0 0 0 0 0 0 0 0 0 0 0 0 0 0 0 0 0 0 0 0 0 0 0 0 0 0 0 0 0 0 0 0 0 0 0 0 0
0.867162 9.68687e-09 3.77486e-09 5.91201e-09 0.610312 0.503028 0 0 0 0 0 0 0 0 0 0 0 0 0 0 0 0 0 0 0 0 0 0 0 0 0 0 0 0 0 0 0 0 0 0 0 0 0 0 0 0 0 0
0.911674 1.00474e-08 3.58001e-09 6.46735e-09 0.643687 0.501396 0 0 0 0 0 0 0 0 0 0 0 0 0 0 0 0 0 0 0 0 0 0 0 0 0 0 0 0 0 0 0 0 0 0 0 0 0 0 0 0 0 0
0.95847 1.05702e-08 3.59619e-09 6.97406e-09 0.659782 0.509771 0 0 0 0 0 0 0 0 0 0 0 0 0 0 0 0 0 0 0 0 0 0 0 0 0 0 0 0 0 0 0 0 0 0 0 0 0 0 0 0 0 0
1.00767 1.12596e-08 3.73675e-09 7.52284e-09 0.668127 0.5174 0 0 0 0 0 0 0 0 0 0 0 0 0 0 0 0 0 0 0 0 0 0 0 0 0 0 0 0 0 0 0 0 0 0 0 0 0 0 0 0 0 0
1.05939 1.17508e-08 3.87647e-09 7.87437e-09 0.670111 0.505606 0 0 0 0 0 0 0 0 0 0 0 0 0 0 0 0 0 0 0 0 0 0 0 0 0 0 0 0 0 0 0 0 0 0 0 0 0 0 0 0 0 0
1.11377 1.10759e-08 3.59176e-09 7.48412e-09 0.675713 0.469863 0 0 0 0 0 0 0 0 0 0 0 0 0 0 0 0 0 0 0 0 0 0 0 0 0 0 0 0 0 0 0 0 0 0 0 0 0 0 0 0 0 0
1.17094 1.05145e-08 3.29983e-09 7.21468e-09 0.686164 0.433839 0 0 0 0 0 0 0 0 0 0 0 0 0 0 0 0 0 0 0 0 0 0 0 0 0 0 0 0 0 0 0 0 0 0 0 0 0 0 0 0 0 0
1.23105 1.04292e-08 3.16293e-09 7.26623e-09 0.696722 0.400416 0 0 0 0 0 0 0 0 0 0 0 0 0 0 0 0 0 0 0 0 0 0 0 0 0 0 0 0 0 0 0 0 0 0 0 0 0 0 0 0 0 0
1.29424 1.06049e-08 3.11064e-09 7.4943e-09 0.70668 0.368985 0 0 0 0 0 0 0 0 0 0 0 0 0 0 0 0 0 0 0 0 0 0 0 0 0 0 0 0 0 0 0 0 0 0 0 0 0 0 0 0 0 0
1.36067 1.09567e-08 3.12228e-09 7.83439e-09 0.715034 0.343145 0 0 0 0 0 0 0 0 0 0 0 0 0 0 0 0 0 0 0 0 0 0 0 0 0 0 0 0 0 0 0 0 0 0 0 0 0 0 0 0 0 0
1.43051 1.13122e-08 3.18114e-09 8.13109e-09 0.718788 0.326228 0 0 0 0 0 0 0 0 0 0 0 0 0 0 0 0 0 0 0 0 0 0 0 0 0 0 0 0 0 0 0 0 0 0 0 0 0 0 0 0 0 0
1.50394 1.12152e-08 3.22496e-09 7.99025e-09 0.712448 0.315735 0 0 0 0 0 0 0 0 0 0 0 0 0 0 0 0 0 0 0 0 0 0 0 0 0 0 0 0 0 0 0 0 0 0 0 0 0 0 0 0 0 0
1.58114 1.04681e-08 3.19333e-09 7.27481e-09 0.694948 0.300865 0 0 0 0 0 0 0 0 0 0 0 0 0 0 0 0 0 0 0 0 0 0 0 0 0 0 0 0 0 0 0 0 0 0 0 0 0 0 0 0 0 0
1.6623 9.60143e-09 3.1346e-09 6.46682e-09 0.673527 0.273044 0 0 0 0 0 0 0 0 0 0 0 0 0 0 0 0 0 0 0 0 0 0 0 0 0 0 0 0 0 0 0 0 0 0 0 0 0 0 0 0 0 0
1.74763 8.98653e-09 3.10876e-09 5.87777e-09 0.654065 0.235585 0 0 0 0 0 0 0 0 0 0 0 0 0 0 0 0 0 0 0 0 0 0 0 0 0 0 0 0 0 0 0 0 0 0 0 0 0 0 0 0 0 0
1.83733 8.57082e-09 3.11488e-09 5.45594e-09 0.636571 0.196885 0 0 0 0 0 0 0 0 0 0 0 0 0 0 0 0 0 0 0 0 0 0 0 0 0 0 0 0 0 0 0 0 0 0 0 0 0 0 0 0 0 0
1.93164 8.2328e-09 3.1308e-09 5.102e-09 0.619716 0.161593 0 0 0 0 0 0 0 0 0 0 0 0 0 0 0 0 0 0 0 0 0 0 0 0 0 0 0 0 0 0 0 0 0 0 0 0 0 0 0 0 0 0
2.03079 7.89384e-09 3.1375e-09 4.75634e-09 0.602538 0.130981 0 0 0 0 0 0 0 0 0 0 0 0 0 0 0 0 0 0 0 0 0 0 0 0 0 0 0 0 0 0 0 0 0 0 0 0 0 0 0 0 0 0
2.13503 7.50894e-09 3.11864e-09 4.3903e-09 0.584676 0.104892 0 0 0 0 0 0 0 0 0 0 0 0 0 0 0 0 0 0 0 0 0 0 0 0 0 0 0 0 0 0 0 0 0 0 0 0 0 0 0 0 0 0
2.24463 7.05828e-09 3.06695e-09 3.99133e-09 0.565482 0.0824895 0 0 0 0 0 0 0 0 0 0 0 0 0 0 0 0 0 0 0 0 0 0 0 0 0 0 0 0 0 0 0 0 0 0 0 0 0 0 0 0 0 0
2.35984 6.54782e-09 2.9815e-09 3.56632e-09 0.544658 0.0634295 0 0 0 0 0 0 0 0 0 0 0 0 0 0 0 0 0 0 0 0 0 0 0 0 0 0 0 0 0 0 0 0 0 0 0 0 0 0 0 0 0 0
2.48097 5.99244e-09 2.86422e-09 3.12822e-09 0.522029 0.0471739 0 0 0 0 0 0 0 0 0 0 0 0 0 0 0 0 0 0 0 0 0 0 0 0 0 0 0 0 0 0 0 0 0 0 0 0 0 0 0 0 0 0
2.60832 5.41733e-09 2.72048e-09 2.69684e-09 0.497818 0.0333288 0 0 0 0 0 0 0 0 0 0 0 0 0 0 0 0 0 0 0 0 0 0 0 0 0 0 0 0 0 0 0 0 0 0 0 0 0 0 0 0 0 0
2.74221 4.84897e-09 2.56101e-09 2.28796e-09 0.471845 0.0216287 0 0 0 0 0 0 0 0 0 0 0 0 0 0 0 0 0 0 0 0 0 0 0 0 0 0 0 0 0 0 0 0 0 0 0 0 0 0 0 0 0 0
2.88297 4.31094e-09 2.39697e-09 1.91397e-09 0.443979 0.012069 0 0 0 0 0 0 0 0 0 0 0 0 0 0 0 0 0 0 0 0 0 0 0 0 0 0 0 0 0 0 0 0 0 0 0 0 0 0 0 0 0 0
3.03095 3.8166e-09 2.23278e-09 1.58382e-09 0.414982 0.0043617 0 0 0 0 0 0 0 0 0 0 0 0 0 0 0 0 0 0 0 0 0 0 0 0 0 0 0 0 0 0 0 0 0 0 0 0 0 0 0 0 0 0
3.18653 3.37245e-09 2.07268e-09 1.29977e-09 0.385408 -0.00159849 0 0 0 0 0 0 0 0 0 0 0 0 0 0 0 0 0 0 0 0 0 0 0 0 0 0 0 0 0 0 0 0 0 0 0 0 0 0 0 0 0 0
3.35009 2.97899e-09 1.91929e-09 1.0597e-09 0.355723 -0.00599906 0 0 0 0 0 0 0 0 0 0 0 0 0 0 0 0 0 0 0 0 0 0 0 0 0 0 0 0 0 0 0 0 0 0 0 0 0 0 0 0 0 0
3.52205 2.63376e-09 1.774e-09 8.5976e-10 0.326438 -0.00901163 0 0 0 0 0 0 0 0 0 0 0 0 0 0 0 0 0 0 0 0 0 0 0 0 0 0 0 0 0 0 0 0 0 0 0 0 0 0 0 0 0 0
3.70284 2.33268e-09 1.63687e-09 6.95813e-10 0.298289 -0.0108065 0 0 0 0 0 0 0 0 0 0 0 0 0 0 0 0 0 0 0 0 0 0 0 0 0 0 0 0 0 0 0 0 0 0 0 0 0 0 0 0 0 0
3.89291 2.06927e-09 1.5074e-09 5.61862e-10 0.271527 -0.0115402 0 0 0 0 0 0 0 0 0 0 0 0 0 0 0 0 0 0 0 0 0 0 0 0 0 0 0 0 0 0 0 0 0 0 0 0 0 0 0 0 0 0
4.09273 1.83702e-09 1.38389e-09 4.53127e-10 0.246664 -0.0116479 0 0 0 0 0 0 0 0 0 0 0 0 0 0 0 0 0 0 0 0 0 0 0 0 0 0 0 0 0 0 0 0 0 0 0 0 0 0 0 0 0 0
4.30281 1.63313e-09 1.26788e-09 3.65257e-10 0.223654 -0.0112264 0 0 0 0 0 0 0 0 0 0 0 0 0 0 0 0 0 0 0 0 0 0 0 0 0 0 0 0 0 0 0 0 0 0 0 0 0 0 0 0 0 0
4.52368 1.45382e-09 1.15923e-09 2.94587e-10 0.202629 -0.0104068 0 0 0 0 0 0 0 0 0 0 0 0 0 0 0 0 0 0 0 0 0 0 0 0 0 0 0 0 0 0 0 0 0 0 0 0 0 0 0 0 0 0
4.75588 1.29515e-09 1.05756e-09 2.37593e-10 0.183448 -0.00932505 0 0 0 0 0 0 0 0 0 0 0 0 0 0 0 0 0 0 0 0 0 0 0 0 0 0 0 0 0 0 0 0 0 0 0 0 0 0 0 0 0 0
5 1.15356e-09 9.61887e-10 1.91671e-10 0.166157 -0.00818158 0 0 0 0 0 0 0 0 0 0 0 0 0 0 0 0 0 0 0 0 0 0 0 0 0 0 0 0 0 0 0 0 0 0 0 0 0 0 0 0 1.4013e-45 0
5.25665 1.0285e-09 8.73675e-10 1.54823e-10 0.150533 -0.00722815 0 0 0 0 0 0 0 0 0 0 0 0 0 0 0 0 0 0 0 0 0 0 0 0 0 0 0 0 0 0 1.4013e-45 0 2.8026e-45 0 8.40779e-45 0 1.96182e-44 0 4.76441e-44 0 1.06499e-43 0
5.52648 9.17976e-10 7.928e-10 1.25176e-10 0.136361 -0.00628872 0 0 0 0 0 0 0 0 0 0 0 0 0 0 0 0 0 0 0 0 0 0 1.4013e-45 0 4.2039e-45 0 1.4013e-44 0 4.90454e-44 0 1.45735e-43 0 3.9937e-43 0 1.02715e-42 0 2.53775e-42 0 5.77615e-42 0 1.24211e-41 0
5.81015 8.19756e-10 7.18522e-10 1.01234e-10 0.123493 -0.00533259 0 0 0 0 0 0 0 0 0 0 0 0 0 0 0 0 0 0 5.60519e-45 0 2.8026e-44 0 1.31722e-43 0 5.1848e-43 0 1.79226e-42 0 5.74252e-42 0 1.63742e-41 0 4.27494e-41 0 1.04918e-40 0 2.47984e-40 0 5.42154e-40 0 1.12307e-39 0
6.10839 7.32073e-10 6.50151e-10 8.19223e-11 0.111905 -0.00447973 0 0 0 0 0 0 0 0 0 0 0 0 1.4013e-45 0 1.12104e-44 0 9.80909e-44 0 6.48801e-43 0 3.31127e-42 0 1.46071e-41 0 5.37594e-41 0 1.74864e-40 0 5.29248e-40 0 1.43367e-39 0 3.57172e-39 0 8.38995e-39 0 1.90148e-38 0 4.00134e-38 0 7.9992e-38 0
6.42193 6.55333e-10 5.8896e-10 6.63734e-11 0.101282 -0.00351075 0 0 0 0 0 0 0 0 0 0 5.60519e-45 0 1.1911e-43 0 1.36206e-42 0 1.08334e-41 0 6.54799e-41 0 3.08541e-40 0 1.26573e-39 0 4.37136e-39 0 1.34231e-38 0 3.84882e-38 0 9.93085e-38 0 2.36625e-37 0 5.33131e-37 0 1.16096e-36 0 2.35589e-36 0 4.55312e-36 0
6.75157 5.85649e-10 5.31827e-10 5.3822e-11 0.0919014 -0.00300164 0 0 0 0 0 0 0 0 2.10195e-44 0 7.52497e-43 0 1.28387e-41 0 1.29872e-40 0 9.33418e-40 0 5.16771e-39 0 2.25751e-38 0 8.64428e-38 0 2.81011e-37 0 8.169e-37 0 2.22489e-36 0 5.48112e-36 0 1.25179e-35 0 2.71071e-35 0 5.68284e-35 0 1.11403e-34 0 2.08487e-34 0
7.09813 5.24069e-10 4.80409e-10 4.36601e-11 0.0833098 -0.00252006 0 0 0 0 0 0 2.38221e-44 0 2.39622e-42 0 7.26629e-41 0 1.07882e-39 0 9.74697e-39 0 6.36218e-38 0 3.23997e-37 0 1.31707e-36 0 4.72323e-36 0 1.44956e-35 0 3.99995e-35 0 1.03741e-34 0 2.44564e-34 0 5.36468e-34 0 1.11869e-33 0 2.26203e-33 0 4.29098e-33 0 7.78843e-33 0
7.46248 4.69277e-10 4.33841e-10 3.5436e-11 0.0755119 -0.00215055 0 0 0 0 4.2039e-45 0 2.62603e-42 0 2.14743e-40 0 5.51303e-39 0 7.17506e-38 0 5.82202e-37 0 3.46762e-36 0 1.63099e-35 0 6.19131e-35 0 2.08609e-34 0 6.06111e-34 0 1.59165e-33 0 3.94035e-33 0 8.90828e-33 0 1.88057e-32 0 3.78333e-32 0 7.39146e-32 0 1.35898e-31 0 2.39589e-31 0
7.84553 4.20379e-10 3.91584e-10 2.8795e-11 0.0684977 -0.00200546 0 0 0 0 4.38606e-43 0 2.30194e-40 0 1.51821e-38 0 3.32649e-37 0 3.81953e-36 0 2.79811e-35 0 1.52752e-34 0 6.66156e-34 0 2.36931e-33 0 7.52341e-33 0 2.075e-32 0 5.19807e-32 0 1.23114e-31 0 2.67467e-31 0 5.44406e-31 0 1.05848e-30 0 2.00143e-30 0 3.57199e-30 0 6.12548e-30 0
8.24824 3.77161e-10 3.53752e-10 2.34089e-11 0.0620662 -0.00214605 0 0 0 0 4.12178e-41 0 1.59563e-38 0 8.57724e-37 0 1.61639e-35 0 1.64746e-34 0 1.09507e-33 0 5.5027e-33 0 2.23325e-32 0 7.46585e-32 0 2.24064e-31 0 5.88118e-31 0 1.40869e-30 0 3.19889e-30 0 6.69128e-30 0 1.3155e-29 0 2.47603e-29 0 4.53841e-29 0 7.87393e-29 0 1.31518e-28 0
8.67162 3.39041e-10 3.2001e-10 1.90311e-11 0.0561321 -0.0022576 0 0 7.00649e-44 0 3.05858e-39 0 8.8516e-37 0 3.91698e-35 0 6.39571e-34 0 5.82009e-33 0 3.52691e-32 0 1.63793e-31 0 6.20804e-31 0 1.95661e-30 0 5.56538e-30 0 1.39356e-29 0 3.19856e-29 0 6.97827e-29 0 1.40802e-28 0 2.67829e-28 0 4.88778e-28 0 8.69785e-28 0 1.46898e-27 0 2.39294e-27 0
9.11674 3.05276e-10 2.89794e-10 1.54819e-11 0.0507144 -0.00235408 0 0 6.93222e-42 0 1.80994e-37 0 3.97178e-35 0 1.46068e-33 0 2.08099e-32 0 1.70015e-31 0 9.43517e-31 0 4.06527e-30 0 1.44376e-29 0 4.30235e-29 0 1.16287e-28 0 2.78418e-28 0 6.13635e-28 0 1.28873e-27 0 2.51269e-27 0 4.63184e-27 0 8.20827e-27 0 1.42014e-26 0 2.33788e-26 0 3.71871e-26 0
9.5847 2.75294e-10 2.62698e-10 1.25966e-11 0.0457569 -0.0024293 9.80909e-45 0 5.43502e-40 0 8.63612e-36 0 1.45656e-33 0 4.49219e-32 0 5.62142e-31 0 4.14501e-30 0 2.11568e-29 0 8.48823e-29 0 2.83368e-28 0 8.00585e-28 0 2.06134e-27 0 4.72937e-27 0 1.0029e-26 0 2.03131e-26 0 3.83351e-26 0 6.85871e-26 0 1.18197e-25 0 1.99096e-25 0 3.19879e-25 0 4.97409e-25 0
10.0767 2.4858e-10 2.38331e-10 1.02496e-11 0.0412325 -0.00254841 1.01034e-42 0 3.38827e-38 0 3.35723e-34 0 4.40816e-32 0 1.14996e-30 0 1.27202e-29 0 8.50761e-29 0 4.01022e-28 0 1.50341e-27 0 4.73206e-27 0 1.27082e-26 0 3.12443e-26 0 6.88362e-26 0 1.40713e-25 0 2.75351e-25 0 5.03778e-25 0 8.76093e-25 0 1.4702e-24 0 2.41421e-24 0 3.79003e-24 0 5.76779e-24 0
10.5939 2.24888e-10 2.16551e-10 8.33762e-12 0.0370745 -0.00279051 8.43315e-41 0 1.69985e-36 0 1.07476e-32 0 1.11216e-30 0 2.47421e-29 0 2.43379e-28 0 1.48355e-27 0 6.48317e-27 0 2.27864e-26 0 6.78165e-26 0 1.73549e-25 0 4.08352e-25 0 8.65629e-25 0 1.70879e-24 0 3.23598e-24 0 5.74843e-24 0 9.73033e-24 0 1.59212e-23 0 2.55187e-23 0 3.91889e-23 0 5.84287e-23 0
11.1377 2.04216e-10 1.97435e-10 6.78048e-12 0.0332026 -0.00308422 5.59383e-39 0 6.94973e-35 0 2.86612e-31 0 2.3647e-29 0 4.52133e-28 0 3.97775e-27 0 2.21988e-26 0 9.02699e-26 0 2.98387e-25 0 8.42002e-25 0 2.05814e-24 0 4.64456e-24 0 9.49096e-24 0 1.81237e-23 0 3.32678e-23 0 5.74624e-23 0 9.47986e-23 0 1.51429e-22 0 2.37186e-22 0 3.56695e-22 0 5.21544e-22 0
11.7094 1.85184e-10 1.79618e-10 5.56698e-12 0.0300618 -0.00332863 2.96671e-37 0 2.32614e-33 0 6.38921e-30 0 4.24969e-28 0 7.03528e-27 0 5.56602e-26 0 2.85615e-25 0 1.08455e-24 0 3.38169e-24 0 9.07134e-24 0 2.12267e-23 0 4.60355e-23 0 9.0846e-23 0 1.68084e-22 0 2.99519e-22 0 5.03727e-22 0 8.10958e-22 0 1.26612e-21 0 1.94017e-21 0 2.86019e-21 0 4.10519e-21 0
