# 1.89175e-07 0 16 : grain size, compostion index, size index
# Heating and cooling timescale: 11973.7 117.701
# Ratio of heating to cooling to determine stochastic cutoff: 100
# Equilibrium emission is recorded even for those grains in the stochastic regime.
# Emission spectrum was computed for: 
# Type: IRSF
# Scales: 0.25 0.5 1 1.5 2 2.5 3 3.5 4 4.5 5 5.5 6 6.5 7 7.5 8 8.5 9 9.5 10
# StochasticallyHeated: 1 1 1 1 1 1 1 1 1 1 1 1 1 1 1 1 1 1 1 1 1
# Temperature: -1
# Wavelength  CExt  CAbs  CSca  Albedo G EqEm1 StEm1 EqEm2 StEm2 EqEm3 StEm3 EqEm4 StEm4 EqEm5 StEm5 EqEm6 StEm6 EqEm7 StEm7 EqEm8 StEm8 EqEm9 StEm9 EqEm10 StEm10 EqEm11 StEm11 EqEm12 StEm12 EqEm13 StEm13 EqEm14 StEm14 EqEm15 StEm15 EqEm16 StEm16 EqEm17 StEm17 EqEm18 StEm18 EqEm19 StEm19 EqEm20 StEm20 EqEm21 StEm21
0.05 2.81083e-14 2.79666e-14 1.41711e-16 0.0050416 0.00793223 0 0 0 0 0 0 0 0 0 0 0 0 0 0 0 0 0 0 0 0 0 0 0 0 0 0 0 0 0 0 0 0 0 0 0 0 0 0 0 0 0 0
0.0525665 3.25533e-14 3.24011e-14 1.52237e-16 0.00467655 0.00706397 0 0 0 0 0 0 0 0 0 0 0 0 0 0 0 0 0 0 0 0 0 0 0 0 0 0 0 0 0 0 0 0 0 0 0 0 0 0 0 0 0 0
0.0552647 3.75778e-14 3.74144e-14 1.63397e-16 0.00434823 0.00628764 0 0 0 0 0 0 0 0 0 0 0 0 0 0 0 0 0 0 0 0 0 0 0 0 0 0 0 0 0 0 0 0 0 0 0 0 0 0 0 0 0 0
0.0581015 4.46929e-14 4.45202e-14 1.72673e-16 0.00386355 0.00559271 0 0 0 0 0 0 0 0 0 0 0 0 0 0 0 0 0 0 0 0 0 0 0 0 0 0 0 0 0 0 0 0 0 0 0 0 0 0 0 0 0 0
0.0610839 6.28639e-14 6.26798e-14 1.84097e-16 0.0029285 0.00492394 0 0 0 0 0 0 0 0 0 0 0 0 0 0 0 0 0 0 0 0 0 0 0 0 0 0 0 0 0 0 0 0 0 0 0 0 0 0 0 0 0 0
0.0642193 7.94209e-14 7.9215e-14 2.05947e-16 0.00259311 0.00425875 0 0 0 0 0 0 0 0 0 0 0 0 0 0 0 0 0 0 0 0 0 0 0 0 0 0 0 0 0 0 0 0 0 0 0 0 0 0 0 0 0 0
0.0675157 9.49973e-14 9.47536e-14 2.43686e-16 0.00256519 0.00358706 0 0 0 0 0 0 0 0 0 0 0 0 0 0 0 0 0 0 0 0 0 0 0 0 0 0 0 0 0 0 0 0 0 0 0 0 0 0 0 0 0 0
0.0709813 1.09121e-13 1.08867e-13 2.54418e-16 0.00233152 0.00300076 0 0 0 0 0 0 0 0 0 0 0 0 0 0 0 0 0 0 0 0 0 0 0 0 0 0 0 0 0 0 0 0 0 0 0 0 0 0 0 0 0 0
0.0746248 1.01936e-13 1.01711e-13 2.24777e-16 0.00220508 0.00258055 0 0 0 0 0 0 0 0 0 0 0 0 0 0 0 0 0 0 0 0 0 0 0 0 0 0 0 0 0 0 0 0 0 0 0 0 0 0 0 0 0 0
0.0784553 8.01022e-14 7.99263e-14 1.75841e-16 0.00219521 0.00230077 0 0 0 0 0 0 0 0 0 0 0 0 0 0 0 0 0 0 0 0 0 0 0 0 0 0 0 0 0 0 0 0 0 0 0 0 0 0 0 0 0 0
0.0824824 6.35668e-14 6.34427e-14 1.24127e-16 0.0019527 0.00214455 0 0 0 0 0 0 0 0 0 0 0 0 0 0 0 0 0 0 0 0 0 0 0 0 0 0 0 0 0 0 0 0 0 0 0 0 0 0 0 0 0 0
0.0867162 5.32415e-14 5.31459e-14 9.5609e-17 0.00179576 0.00205391 0 0 0 0 0 0 0 0 0 0 0 0 0 0 0 0 0 0 0 0 0 0 0 0 0 0 0 0 0 0 0 0 0 0 0 0 0 0 0 0 0 0
0.0911674 4.64537e-14 4.63735e-14 8.0266e-17 0.00172787 0.00198963 0 0 0 0 0 0 0 0 0 0 0 0 0 0 0 0 0 0 0 0 0 0 0 0 0 0 0 0 0 0 0 0 0 0 0 0 0 0 0 0 0 0
0.095847 4.15654e-14 4.15016e-14 6.38202e-17 0.00153542 0.00209359 0 0 0 0 0 0 0 0 0 0 0 0 0 0 0 0 0 0 0 0 0 0 0 0 0 0 0 0 0 0 0 0 0 0 0 0 0 0 0 0 0 0
0.100767 3.64761e-14 3.64325e-14 4.35522e-17 0.00119399 0.00244253 0 0 0 0 0 0 0 0 0 0 0 0 0 0 0 0 0 0 0 0 0 0 0 0 0 0 0 0 0 0 0 0 0 0 0 0 0 0 0 0 0 0
0.105939 3.17944e-14 3.17643e-14 3.01624e-17 0.000948669 0.00263848 0 0 0 0 0 0 0 0 0 0 0 0 0 0 0 0 0 0 0 0 0 0 0 0 0 0 0 0 0 0 0 0 0 0 0 0 0 0 0 0 0 0
0.111377 2.72785e-14 2.72601e-14 1.84166e-17 0.000675134 0.00302074 0 0 0 0 0 0 0 0 0 0 0 0 0 0 0 0 0 0 0 0 0 0 0 0 0 0 0 0 0 0 0 0 0 0 0 0 0 0 0 0 0 0
0.117094 2.31171e-14 2.31056e-14 1.14606e-17 0.000495762 0.00277379 0 0 0 0 0 0 0 0 0 0 0 0 0 0 0 0 0 0 0 0 0 0 0 0 0 0 0 0 0 0 0 0 0 0 0 0 0 0 0 0 0 0
0.123105 1.94303e-14 1.94228e-14 7.45838e-18 0.000383854 0.00238102 0 0 0 0 0 0 0 0 0 0 0 0 0 0 0 0 0 0 0 0 0 0 0 0 0 0 0 0 0 0 0 0 0 0 0 0 0 0 0 0 0 0
0.129424 1.63431e-14 1.63383e-14 4.79306e-18 0.000293278 0.00200275 0 0 0 0 0 0 0 0 0 0 0 0 0 0 0 0 0 0 0 0 0 0 0 0 0 0 0 0 0 0 0 0 0 0 0 0 0 0 0 0 0 0
0.136067 1.48205e-14 1.48174e-14 3.10311e-18 0.00020938 0.0016947 0 0 0 0 0 0 0 0 0 0 0 0 0 0 0 0 0 0 0 0 0 0 0 0 0 0 0 0 0 0 0 0 0 0 0 0 0 0 0 0 0 0
0.143051 1.34506e-14 1.34485e-14 2.03715e-18 0.000151454 0.00144583 0 0 0 0 0 0 0 0 0 0 0 0 0 0 0 0 0 0 0 0 0 0 0 0 0 0 0 0 0 0 0 0 0 0 0 0 0 0 0 0 0 0
0.150394 1.27052e-14 1.27038e-14 1.38713e-18 0.000109178 0.00123439 0 0 0 0 0 0 0 0 0 0 0 0 0 0 0 0 0 0 0 0 0 0 0 0 0 0 0 0 0 0 0 0 0 0 0 0 0 0 0 0 0 0
0.158114 1.25576e-14 1.25565e-14 1.04842e-18 8.34894e-05 0.0010572 0 0 0 0 0 0 0 0 0 0 0 0 0 0 0 0 0 0 0 0 0 0 0 0 0 0 0 0 0 0 0 0 0 0 0 0 0 0 0 0 0 0
0.16623 1.30563e-14 1.30553e-14 9.67717e-19 7.41187e-05 0.000908974 0 0 0 0 0 0 0 0 0 0 0 0 0 0 0 0 0 0 0 0 0 0 0 0 0 0 0 0 0 0 0 0 0 0 0 0 0 0 0 0 0 0
0.174762 1.43043e-14 1.43032e-14 1.16493e-18 8.14389e-05 0.000781688 0 0 0 0 0 0 0 0 0 0 0 0 0 0 0 0 0 0 0 0 0 0 0 0 0 0 0 0 0 0 0 0 0 0 0 0 0 0 0 0 0 0
0.183733 1.65276e-14 1.65259e-14 1.66217e-18 0.00010057 0.000665858 0 0 0 0 0 0 0 0 0 0 0 0 0 0 0 0 0 0 0 0 0 0 0 0 0 0 0 0 0 0 0 0 0 0 0 0 0 0 0 0 0 0
0.193164 2.04588e-14 2.04562e-14 2.63982e-18 0.000129031 0.000554151 0 0 0 0 0 0 0 0 0 0 0 0 0 0 0 0 0 0 0 0 0 0 0 0 0 0 0 0 0 0 0 0 0 0 0 0 0 0 0 0 0 0
0.203079 2.67979e-14 2.67938e-14 4.03327e-18 0.000150507 0.000444376 0 0 0 0 0 0 0 0 0 0 0 0 0 0 0 0 0 0 0 0 0 0 0 0 0 0 0 0 0 0 0 0 0 0 0 0 0 0 0 0 0 0
0.213503 3.30127e-14 3.30078e-14 4.96052e-18 0.000150261 0.000341755 0 0 0 0 0 0 0 0 0 0 0 0 0 0 0 0 0 0 0 0 0 0 0 0 0 0 0 0 0 0 0 0 0 0 0 0 0 0 0 0 0 0
0.224463 3.17025e-14 3.16984e-14 4.12823e-18 0.000130218 0.000253064 0 0 0 0 0 0 0 0 0 0 0 0 0 0 0 0 0 0 0 0 0 0 0 0 0 0 0 0 0 0 0 0 0 0 0 0 0 0 0 0 0 0
0.235984 2.44973e-14 2.44945e-14 2.80039e-18 0.000114314 0.000180665 0 0 0 0 0 0 0 0 0 0 0 0 0 0 0 0 0 0 0 0 0 0 0 0 0 0 0 0 0 0 0 0 0 0 0 0 0 0 0 0 0 0
0.248097 1.85021e-14 1.85003e-14 1.81147e-18 9.79063e-05 0.000138316 0 0 0 0 0 0 0 0 0 0 0 0 0 0 0 0 0 0 0 0 0 0 0 0 0 0 0 0 0 0 0 0 0 0 0 0 0 0 0 0 0 0
0.260832 1.48078e-14 1.48065e-14 1.24333e-18 8.39648e-05 0.000143665 0 0 0 0 0 0 0 0 0 0 0 0 0 0 0 0 0 0 0 0 0 0 0 0 0 0 0 0 0 0 0 0 0 0 0 0 0 0 0 0 0 0
0.274221 1.25957e-14 1.25948e-14 8.96401e-19 7.11675e-05 0.000191879 0 0 0 0 0 0 0 0 0 0 0 0 0 0 0 0 0 0 0 0 0 0 0 0 0 0 0 0 0 0 0 0 0 0 0 0 0 0 0 0 0 0
0.288297 1.1215e-14 1.12144e-14 6.67922e-19 5.9556e-05 0.00025755 0 0 0 0 0 0 0 0 0 0 0 0 0 0 0 0 0 0 0 0 0 0 0 0 0 0 0 0 0 0 0 0 0 0 0 0 0 0 0 0 0 0
0.303095 1.01623e-14 1.01618e-14 5.14585e-19 5.06368e-05 0.00028893 0 0 0 0 0 0 0 0 0 0 0 0 0 0 0 0 0 0 0 0 0 0 0 0 0 0 0 0 0 0 0 0 0 0 0 0 0 0 0 0 0 0
0.318653 8.88406e-15 8.88366e-15 4.00622e-19 4.50945e-05 0.000301599 0 0 0 0 0 0 0 0 0 0 0 0 0 0 0 0 0 0 0 0 0 0 0 0 0 0 0 0 0 0 0 0 0 0 0 0 0 0 0 0 0 0
0.335009 7.80686e-15 7.80655e-15 3.15506e-19 4.0414e-05 0.000296676 0 0 0 0 0 0 0 0 0 0 0 0 0 0 0 0 0 0 0 0 0 0 0 0 0 0 0 0 0 0 0 0 0 0 0 0 0 0 0 0 0 0
0.352205 6.81548e-15 6.81523e-15 2.51547e-19 3.69081e-05 0.000281562 0 0 0 0 0 0 0 0 0 0 0 0 0 0 0 0 0 0 0 0 0 0 0 0 0 0 0 0 0 0 0 0 0 0 0 0 0 0 0 0 0 0
0.370284 5.90801e-15 5.90781e-15 2.0233e-19 3.42467e-05 0.000263265 0 0 0 0 0 0 0 0 0 0 0 0 0 0 0 0 0 0 0 0 0 0 0 0 0 0 0 0 0 0 0 0 0 0 0 0 0 0 0 0 0 0
0.389291 5.08322e-15 5.08305e-15 1.63998e-19 3.22626e-05 0.000245471 0 0 0 0 0 0 0 0 0 0 0 0 0 0 0 0 0 0 0 0 0 0 0 0 0 0 0 0 0 0 0 0 0 0 0 0 0 0 0 0 0 0
0.409273 4.341e-15 4.34086e-15 1.33326e-19 3.07131e-05 0.00022819 0 0 0 0 0 0 0 0 0 0 0 0 0 0 0 0 0 0 0 0 0 0 0 0 0 0 0 0 0 0 0 0 0 0 0 0 0 0 0 0 0 0
0.430281 3.677e-15 3.67689e-15 1.08499e-19 2.95074e-05 0.000211769 0 0 0 0 0 0 0 0 0 0 0 0 0 0 0 0 0 0 0 0 0 0 0 0 0 0 0 0 0 0 0 0 0 0 0 0 0 0 0 0 0 0
0.452368 3.08751e-15 3.08742e-15 8.82823e-20 2.85933e-05 0.0001948 0 0 0 0 0 0 0 0 0 0 0 0 0 0 0 0 0 0 0 0 0 0 0 0 0 0 0 0 0 0 0 0 0 0 0 0 0 0 0 0 0 0
0.475588 2.56901e-15 2.56894e-15 7.18809e-20 2.798e-05 0.000178547 0 0 0 0 0 0 0 0 0 0 0 0 0 0 0 0 0 0 0 0 0 0 0 0 0 0 0 0 0 0 0 0 0 0 0 0 0 0 0 0 0 0
0.5 2.11816e-15 2.1181e-15 5.8681e-20 2.77038e-05 0.000162951 0 0 0 0 0 0 0 0 0 0 0 0 0 0 0 0 0 0 0 0 0 0 0 0 0 0 0 0 0 0 0 0 0 0 0 0 0 0 0 0 0 0
0.525665 1.7286e-15 1.72855e-15 4.79567e-20 2.7743e-05 0.000148203 0 0 0 0 0 0 0 0 0 0 0 0 0 0 0 0 0 0 0 0 0 0 0 0 0 0 0 0 0 0 0 0 0 0 0 0 0 0 0 0 0 0
0.552648 1.39535e-15 1.39531e-15 3.9207e-20 2.80983e-05 0.000134768 0 0 0 0 0 0 0 0 0 0 0 0 0 0 0 0 0 0 0 0 0 0 0 0 0 0 0 0 0 0 0 0 0 0 0 0 0 0 0 0 0 0
0.581015 1.11375e-15 1.11372e-15 3.22101e-20 2.89203e-05 0.000122282 0 0 0 0 0 0 0 0 0 0 0 0 0 0 0 0 0 0 0 0 0 0 0 0 0 0 0 0 0 0 0 0 0 0 0 0 0 0 0 0 0 0
0.610839 8.78219e-16 8.78192e-16 2.64696e-20 3.01401e-05 0.000110971 0 0 0 0 0 0 0 0 0 0 0 0 0 0 0 0 0 0 0 0 0 0 0 0 0 0 0 0 0 0 0 0 0 0 0 0 0 0 0 0 0 0
0.642193 6.82678e-16 6.82656e-16 2.17486e-20 3.18577e-05 0.00010071 0 0 0 0 0 0 0 0 0 0 0 0 0 0 0 0 0 0 0 0 0 0 0 0 0 0 0 0 0 0 0 0 0 0 0 0 0 0 0 0 0 0
0.675157 5.21525e-16 5.21507e-16 1.78901e-20 3.43035e-05 9.14412e-05 0 0 0 0 0 0 0 0 0 0 0 0 0 0 0 0 0 0 0 0 0 0 0 0 0 0 0 0 0 0 0 0 0 0 0 0 0 0 0 0 0 0
0.709813 3.88916e-16 3.88902e-16 1.47411e-20 3.7903e-05 8.31275e-05 0 0 0 0 0 0 0 0 0 0 0 0 0 0 0 0 0 0 0 0 0 0 0 0 0 0 0 0 0 0 0 1.4013e-45 0 1.4013e-45 0 1.4013e-45 0 1.4013e-45 0 1.4013e-45 0 1.4013e-45
0.746248 2.74972e-16 2.7496e-16 1.21486e-20 4.41811e-05 7.56996e-05 0 0 0 0 0 0 0 0 0 0 0 1.4013e-45 0 1.4013e-45 0 1.4013e-45 0 2.8026e-45 0 4.2039e-45 0 5.60519e-45 0 7.00649e-45 0 9.80909e-45 0 1.26117e-44 0 1.54143e-44 0 1.82169e-44 0 2.38221e-44 0 2.8026e-44 0 3.36312e-44 0 4.06377e-44 0 4.62428e-44
0.784553 1.6501e-16 1.65e-16 1.00089e-20 6.06565e-05 6.89537e-05 0 0 0 0 0 2.8026e-45 0 5.60519e-45 0 1.12104e-44 0 1.96182e-44 0 2.94273e-44 0 4.48416e-44 0 6.30584e-44 0 8.54792e-44 0 1.13505e-43 0 1.48538e-43 0 1.90577e-43 0 2.39622e-43 0 2.99878e-43 0 3.58732e-43 0 4.38606e-43 0 5.29691e-43 0 6.17973e-43 0 7.35682e-43 0 8.46384e-43
0.824824 8.65402e-17 8.65319e-17 8.24426e-21 9.52651e-05 6.28994e-05 0 2.8026e-45 0 1.12104e-44 0 4.48416e-44 0 1.03696e-43 0 1.93379e-43 0 3.19496e-43 0 4.89053e-43 0 7.1186e-43 0 9.99126e-43 0 1.33964e-42 0 1.75302e-42 0 2.25049e-42 0 2.84183e-42 0 3.53688e-42 0 4.34823e-42 0 5.1848e-42 0 6.24559e-42 0 7.4507e-42 0 8.66002e-42 0 1.01804e-41 0 1.167e-41
0.867162 5.83516e-17 5.83448e-17 6.79322e-21 0.000116419 5.7452e-05 0 4.62428e-44 0 1.96182e-43 0 8.18358e-43 0 1.89736e-42 0 3.53127e-42 0 5.77895e-42 0 8.75111e-42 0 1.25696e-41 0 1.73775e-41 0 2.30612e-41 0 2.98617e-41 0 3.79079e-41 0 4.73233e-41 0 5.82548e-41 0 7.08104e-41 0 8.40289e-41 0 1.00112e-40 0 1.18207e-40 0 1.3675e-40 0 1.59168e-40 0 1.81713e-40
0.911674 3.68633e-17 3.68577e-17 5.59462e-21 0.000151767 5.25239e-05 0 6.95044e-43 0 2.9147e-42 0 1.20666e-41 0 2.78536e-41 0 5.15019e-41 0 8.36897e-41 0 1.25643e-40 0 1.78709e-40 0 2.44368e-40 0 3.21574e-40 0 4.12839e-40 0 5.19484e-40 0 6.42788e-40 0 7.84218e-40 0 9.44886e-40 0 1.11621e-39 0 1.3184e-39 0 1.54369e-39 0 1.77845e-39 0 2.05324e-39 0 2.33515e-39
0.95847 1.34661e-17 1.34615e-17 4.60368e-21 0.000341871 4.81071e-05 0 5.20442e-42 0 2.15169e-41 0 8.84233e-41 0 2.0339e-40 0 3.73864e-40 0 6.0389e-40 0 9.00427e-40 0 1.27086e-39 0 1.72304e-39 0 2.25243e-39 0 2.87211e-39 0 3.58912e-39 0 4.4102e-39 0 5.34297e-39 0 6.39321e-39 0 7.5229e-39 0 8.82513e-39 0 1.02649e-38 0 1.17827e-38 0 1.35159e-38 0 1.53192e-38
1.00767 3.50206e-18 3.49827e-18 3.78853e-21 0.0010818 4.40965e-05 0 2.42537e-41 0 9.8395e-41 0 4.00376e-40 0 9.16983e-40 0 1.67626e-39 0 2.69334e-39 0 3.99296e-39 0 5.60057e-39 0 7.54252e-39 0 9.80747e-39 0 1.24382e-38 0 1.54586e-38 0 1.8891e-38 0 2.27608e-38 0 2.70873e-38 0 3.17667e-38 0 3.70666e-38 0 4.28901e-38 0 4.90759e-38 0 5.60096e-38 0 6.32934e-38
1.05939 1.0625e-18 1.05938e-18 3.11641e-21 0.00293309 4.04586e-05 0 1.17397e-40 0 4.62564e-40 0 1.85369e-39 0 4.21982e-39 0 7.66895e-39 0 1.22595e-38 0 1.80823e-38 0 2.52285e-38 0 3.37902e-38 0 4.37427e-38 0 5.52309e-38 0 6.83385e-38 0 8.3145e-38 0 9.97375e-38 0 1.18185e-37 0 1.382e-37 0 1.60576e-37 0 1.8504e-37 0 2.11148e-37 0 2.40017e-37 0 2.70528e-37
1.11377 3.75452e-19 3.72889e-19 2.56274e-21 0.00682574 3.71468e-05 0 6.01608e-40 0 2.26581e-39 0 8.8589e-39 0 1.99787e-38 0 3.60518e-38 0 5.73122e-38 0 8.41048e-38 0 1.1677e-37 0 1.55646e-37 0 2.00696e-37 0 2.52433e-37 0 3.11165e-37 0 3.77186e-37 0 4.50813e-37 0 5.32301e-37 0 6.2085e-37 0 7.18895e-37 0 8.2566e-37 0 9.39901e-37 0 1.06496e-36 0 1.19762e-36
1.17094 1.50605e-19 1.48498e-19 2.10652e-21 0.0139871 3.40552e-05 0 3.25129e-39 0 1.14693e-38 0 4.31403e-38 0 9.58663e-38 0 1.7134e-37 0 2.70509e-37 0 3.94703e-37 0 5.45217e-37 0 7.2332e-37 0 9.29079e-37 0 1.16433e-36 0 1.43025e-36 0 1.72794e-36 0 2.05859e-36 0 2.42318e-36 0 2.81951e-36 0 3.25519e-36 0 3.72805e-36 0 4.23461e-36 0 4.7851e-36 0 5.37011e-36
1.23105 7.01345e-20 6.84021e-20 1.73232e-21 0.0247 3.12246e-05 0 1.92867e-38 0 6.25277e-38 0 2.2234e-37 0 4.83158e-37 0 8.51916e-37 0 1.33258e-36 0 1.9305e-36 0 2.65083e-36 0 3.49857e-36 0 4.4747e-36 0 5.58618e-36 0 6.83763e-36 0 8.23349e-36 0 9.77837e-36 0 1.14763e-35 0 1.33211e-35 0 1.53379e-35 0 1.75205e-35 0 1.98591e-35 0 2.23864e-35 0 2.50741e-35
1.29424 3.90638e-20 3.76387e-20 1.42505e-21 0.03648 2.86209e-05 0 1.30474e-37 0 3.84961e-37 0 1.27257e-36 0 2.67988e-36 0 4.63724e-36 0 7.16246e-36 0 1.02787e-35 0 1.40083e-35 0 1.83725e-35 0 2.33784e-35 0 2.90544e-35 0 3.54206e-35 0 4.24961e-35 0 5.03006e-35 0 5.88514e-35 0 6.81319e-35 0 7.82318e-35 0 8.91332e-35 0 1.00807e-34 0 1.13368e-34 0 1.26723e-34
1.36067 2.71476e-20 2.5976e-20 1.1716e-21 0.0431566 2.62491e-05 0 1.0494e-36 0 2.82756e-36 0 8.60115e-36 0 1.74063e-35 0 2.93921e-35 0 4.46485e-35 0 6.32896e-35 0 8.54243e-35 0 1.11157e-34 0 1.40534e-34 0 1.73688e-34 0 2.10719e-34 0 2.5172e-34 0 2.96788e-34 0 3.46009e-34 0 3.99337e-34 0 4.57144e-34 0 5.19376e-34 0 5.85937e-34 0 6.57297e-34 0 7.33109e-34
1.43051 2.31767e-20 2.22139e-20 9.62778e-22 0.0415408 2.40881e-05 0 9.77359e-36 0 2.43831e-35 0 6.82478e-35 0 1.32048e-34 0 2.16597e-34 0 3.22394e-34 0 4.50068e-34 0 6.00221e-34 0 7.73429e-34 0 9.69987e-34 0 1.19061e-33 0 1.43586e-33 0 1.70625e-33 0 2.00231e-33 0 2.32453e-33 0 2.67279e-33 0 3.04889e-33 0 3.45265e-33 0 3.88375e-33 0 4.3444e-33 0 4.83312e-33
1.50394 2.27019e-20 2.19105e-20 7.91464e-22 0.0348633 2.20908e-05 0 9.6735e-35 0 2.2742e-34 0 5.90997e-34 0 1.09299e-33 0 1.73794e-33 0 2.52867e-33 0 3.46878e-33 0 4.56172e-33 0 5.81084e-33 0 7.218e-33 0 8.78729e-33 0 1.05219e-32 0 1.24249e-32 0 1.44994e-32 0 1.67483e-32 0 1.91713e-32 0 2.1778e-32 0 2.45678e-32 0 2.75396e-32 0 3.07048e-32 0 3.40564e-32
1.58114 2.38789e-20 2.32282e-20 6.50645e-22 0.0272477 2.02287e-05 0 9.38719e-34 0 2.11376e-33 0 5.17013e-33 0 9.17743e-33 0 1.41593e-32 0 2.01306e-32 0 2.71113e-32 0 3.51203e-32 0 4.41765e-32 0 5.42907e-32 0 6.54858e-32 0 7.77802e-32 0 9.11911e-32 0 1.05736e-31 0 1.21432e-31 0 1.3828e-31 0 1.56329e-31 0 1.7558e-31 0 1.96027e-31 0 2.17732e-31 0 2.4066e-31
1.6623 2.59899e-20 2.5455e-20 5.34934e-22 0.0205823 1.85015e-05 0 8.54388e-33 0 1.86642e-32 0 4.3575e-32 0 7.47328e-32 0 1.12244e-31 0 1.56175e-31 0 2.06625e-31 0 2.6369e-31 0 3.27468e-31 0 3.98015e-31 0 4.75451e-31 0 5.59874e-31 0 6.51377e-31 0 7.50054e-31 0 8.55991e-31 0 9.692e-31 0 1.08994e-30 0 1.21822e-30 0 1.35402e-30 0 1.49764e-30 0 1.64893e-30
1.74763 2.87624e-20 2.83226e-20 4.3985e-22 0.0152925 1.6945e-05 0 7.15237e-32 0 1.52982e-31 0 3.4504e-31 0 5.75798e-31 0 8.45614e-31 0 1.15469e-30 0 1.50346e-30 0 1.89235e-30 0 2.32181e-30 0 2.79206e-30 0 3.30371e-30 0 3.85721e-30 0 4.45304e-30 0 5.09163e-30 0 5.77341e-30 0 6.49843e-30 0 7.26804e-30 0 8.08218e-30 0 8.94077e-30 0 9.84544e-30 0 1.07952e-29
1.83733 3.21244e-20 3.17628e-20 3.61628e-22 0.0112571 1.55224e-05 0 5.47146e-31 0 1.15317e-30 0 2.53607e-30 0 4.1441e-30 0 5.97763e-30 0 8.0366e-30 0 1.03225e-29 0 1.28368e-29 0 1.55812e-29 0 1.85564e-29 0 2.1765e-29 0 2.52092e-29 0 2.88907e-29 0 3.28116e-29 0 3.69738e-29 0 4.1377e-29 0 4.60282e-29 0 5.09265e-29 0 5.60714e-29 0 6.1471e-29 0 6.71201e-29
1.93164 3.61141e-20 3.58169e-20 2.97203e-22 0.00822955 1.42163e-05 0 3.82454e-30 0 7.97699e-30 0 1.72228e-29 0 2.76987e-29 0 3.93971e-29 0 5.23111e-29 0 6.64428e-29 0 8.17959e-29 0 9.8375e-29 0 1.1618e-28 0 1.35221e-28 0 1.55505e-28 0 1.7704e-28 0 1.99834e-28 0 2.23893e-28 0 2.49214e-28 0 2.75829e-28 0 3.03734e-28 0 3.32921e-28 0 3.63432e-28 0 3.95237e-28
2.03079 4.08524e-20 4.06082e-20 2.442e-22 0.00597761 1.30043e-05 0 2.45025e-29 0 5.07231e-29 0 1.08039e-28 0 1.71676e-28 0 2.4155e-28 0 3.17589e-28 0 3.99778e-28 0 4.8811e-28 0 5.82588e-28 0 6.8319e-28 0 7.89951e-28 0 9.02893e-28 0 1.02204e-27 0 1.1474e-27 0 1.27901e-27 0 1.41684e-27 0 1.56103e-27 0 1.71155e-27 0 1.86835e-27 0 2.03162e-27 0 2.20122e-27
2.13503 4.65641e-20 4.63633e-20 2.00806e-22 0.00431246 1.18956e-05 0 1.44617e-28 0 2.97723e-28 0 6.27757e-28 0 9.88433e-28 0 1.37913e-27 0 1.79934e-27 0 2.24886e-27 0 2.72754e-27 0 3.23531e-27 0 3.77196e-27 0 4.33759e-27 0 4.93222e-27 0 5.55587e-27 0 6.2086e-27 0 6.89043e-27 0 7.60115e-27 0 8.34146e-27 0 9.11107e-27 0 9.90973e-27 0 1.07383e-26 0 1.1596e-26
2.24463 5.35917e-20 5.34267e-20 1.65048e-22 0.00307973 1.08852e-05 0 7.91065e-28 0 1.6218e-27 0 3.39342e-27 0 5.30565e-27 0 7.3547e-27 0 9.53753e-27 0 1.18527e-26 0 1.42991e-26 0 1.68758e-26 0 1.95817e-26 0 2.24167e-26 0 2.53806e-26 0 2.84734e-26 0 3.16949e-26 0 3.5045e-26 0 3.85224e-26 0 4.21301e-26 0 4.58666e-26 0 4.97304e-26 0 5.37254e-26 0 5.78475e-26
2.35984 6.25318e-20 6.23962e-20 1.35606e-22 0.00216858 9.95388e-06 0 4.0422e-27 0 8.26061e-27 0 1.71818e-26 0 2.67168e-26 0 3.68455e-26 0 4.75516e-26 0 5.88267e-26 0 7.0664e-26 0 8.30582e-26 0 9.60018e-26 0 1.09494e-25 0 1.23533e-25 0 1.38117e-25 0 1.53244e-25 0 1.68913e-25 0 1.85116e-25 0 2.01867e-25 0 2.19157e-25 0 2.3698e-25 0 2.55351e-25 0 2.74252e-25
2.48097 7.45126e-20 7.44012e-20 1.11396e-22 0.001495 9.0936e-06 0 1.95099e-26 0 3.97699e-26 0 8.23326e-26 0 1.27467e-25 0 1.75075e-25 0 2.25076e-25 0 2.77426e-25 0 3.32092e-25 0 3.89043e-25 0 4.48242e-25 0 5.09683e-25 0 5.73351e-25 0 6.39233e-25 0 7.07321e-25 0 7.77602e-25 0 8.50044e-25 1.4013e-45 9.24699e-25 4.2039e-45 1.00153e-24 8.40779e-45 1.0805e-24 1.68156e-44 1.16167e-24 3.22299e-44 1.24497e-24
2.60832 9.19887e-20 9.18971e-20 9.15856e-23 0.000995618 8.29993e-06 0 9.05676e-26 0 1.84243e-25 0 3.7999e-25 0 5.86241e-25 0 8.02536e-25 0 1.02851e-24 0 1.26396e-24 0 1.50871e-24 0 1.76261e-24 0 2.0255e-24 0 2.29733e-24 1.4013e-45 2.57803e-24 2.8026e-45 2.86752e-24 7.00649e-45 3.16575e-24 2.10195e-44 3.47267e-24 5.1848e-44 3.78812e-24 1.21913e-43 4.11231e-24 2.71852e-43 4.44506e-24 5.61921e-43 4.78623e-24 1.11683e-42 5.13607e-24 2.13418e-42 5.49424e-24
2.74221 1.20823e-19 1.20747e-19 7.52726e-23 0.000623001 7.57759e-06 0 4.16723e-25 0 8.46343e-25 0 1.74015e-24 0 2.67698e-24 0 3.65473e-24 0 4.67177e-24 0 5.72712e-24 0 6.81998e-24 1.4013e-45 7.94971e-24 4.2039e-45 9.11549e-24 1.82169e-44 1.03171e-23 6.30584e-44 1.15541e-23 2.00386e-43 1.28263e-23 5.61921e-43 1.41332e-23 1.46576e-42 1.54747e-23 3.53127e-42 1.68501e-23 7.89211e-42 1.82602e-23 1.68842e-41 1.97042e-23 3.37166e-41 2.11814e-23 6.47624e-41 2.2693e-23 1.19852e-40 2.42373e-23
2.88297 1.79215e-19 1.79153e-19 6.18175e-23 0.000344935 6.92393e-06 0 2.02423e-24 0 4.10544e-24 0 8.41952e-24 0 1.29214e-23 0 1.76011e-23 0 2.24508e-23 1.4013e-45 2.7466e-23 1.26117e-44 3.26427e-23 7.70714e-44 3.79777e-23 3.6714e-43 4.34673e-23 1.43913e-42 4.911e-23 4.79104e-42 5.49041e-23 1.43017e-41 6.08479e-23 3.80439e-41 6.69399e-23 9.47502e-41 7.31788e-23 2.18734e-40 7.95613e-23 4.7001e-40 8.6091e-23 9.68919e-40 9.27642e-23 1.87053e-39 9.95779e-23 3.4802e-39 1.06537e-22 6.24995e-39 1.13634e-22
3.03095 3.53946e-19 3.53895e-19 5.07763e-23 0.000143458 6.33032e-06 0 1.22786e-23 0 2.48738e-23 0 5.09016e-23 0 7.79614e-23 0 1.05995e-22 1.54143e-44 1.34956e-22 1.79366e-43 1.64817e-22 1.39009e-42 1.95554e-22 7.68752e-42 2.2715e-22 3.40305e-41 2.5958e-22 1.24927e-40 2.92836e-22 3.91956e-40 3.26909e-22 1.10935e-39 3.61786e-22 2.81322e-39 3.9746e-22 6.70124e-39 4.33921e-22 1.4851e-38 4.71152e-22 3.07415e-38 5.0917e-22 6.11739e-38 5.47955e-22 1.14365e-37 5.87489e-22 2.06429e-37 6.27797e-22 3.6027e-37 6.68841e-22
