# 0.0023131 1 106 : grain size, compostion index, size index
# Heating and cooling timescale: 6.60641e-07 inf
# Ratio of heating to cooling to determine stochastic cutoff: 100
# Equilibrium emission is recorded even for those grains in the stochastic regime.
# Emission spectrum was computed for: 
# Type: IRSF
# Scales: 0.25 0.5 1 1.5 2 2.5 3 3.5 4 4.5 5 5.5 6 6.5 7 7.5 8 8.5 9 9.5 10
# StochasticallyHeated: 0 0 0 0 0 0 0 0 0 0 0 0 0 0 0 0 0 0 0 0 0
# Temperature: -1
# Wavelength  CExt  CAbs  CSca  Albedo G EqEm1 StEm1 EqEm2 StEm2 EqEm3 StEm3 EqEm4 StEm4 EqEm5 StEm5 EqEm6 StEm6 EqEm7 StEm7 EqEm8 StEm8 EqEm9 StEm9 EqEm10 StEm10 EqEm11 StEm11 EqEm12 StEm12 EqEm13 StEm13 EqEm14 StEm14 EqEm15 StEm15 EqEm16 StEm16 EqEm17 StEm17 EqEm18 StEm18 EqEm19 StEm19 EqEm20 StEm20 EqEm21 StEm21
0.05 3.37691e-05 1.19229e-05 2.18462e-05 0.646928 0.854247 0 0 0 0 0 0 0 0 0 0 0 0 0 0 0 0 0 0 0 0 0 0 0 0 0 0 0 0 0 0 0 0 0 0 0 0 0 0 0 0 0 0
0.0525665 3.3776e-05 1.17302e-05 2.20458e-05 0.652707 0.841788 0 0 0 0 0 0 0 0 0 0 0 0 0 0 0 0 0 0 0 0 0 0 0 0 0 0 0 0 0 0 0 0 0 0 0 0 0 0 0 0 0 0
0.0552647 3.37832e-05 1.15847e-05 2.21985e-05 0.657087 0.831447 0 0 0 0 0 0 0 0 0 0 0 0 0 0 0 0 0 0 0 0 0 0 0 0 0 0 0 0 0 0 0 0 0 0 0 0 0 0 0 0 0 0
0.0581015 3.37902e-05 1.15196e-05 2.22707e-05 0.659086 0.825105 0 0 0 0 0 0 0 0 0 0 0 0 0 0 0 0 0 0 0 0 0 0 0 0 0 0 0 0 0 0 0 0 0 0 0 0 0 0 0 0 0 0
0.0610839 3.37974e-05 1.13573e-05 2.24401e-05 0.663959 0.816368 0 0 0 0 0 0 0 0 0 0 0 0 0 0 0 0 0 0 0 0 0 0 0 0 0 0 0 0 0 0 0 0 0 0 0 0 0 0 0 0 0 0
0.0642193 3.38058e-05 1.09511e-05 2.28547e-05 0.676058 0.798134 0 0 0 0 0 0 0 0 0 0 0 0 0 0 0 0 0 0 0 0 0 0 0 0 0 0 0 0 0 0 0 0 0 0 0 0 0 0 0 0 0 0
0.0675157 3.38158e-05 1.05482e-05 2.32676e-05 0.688069 0.778216 0 0 0 0 0 0 0 0 0 0 0 0 0 0 0 0 0 0 0 0 0 0 0 0 0 0 0 0 0 0 0 0 0 0 0 0 0 0 0 0 0 0
0.0709813 3.38265e-05 1.051e-05 2.33165e-05 0.689298 0.771127 0 0 0 0 0 0 0 0 0 0 0 0 0 0 0 0 0 0 0 0 0 0 0 0 0 0 0 0 0 0 0 0 0 0 0 0 0 0 0 0 0 0
0.0746248 3.3837e-05 1.06723e-05 2.31646e-05 0.684595 0.772493 0 0 0 0 0 0 0 0 0 0 0 0 0 0 0 0 0 0 0 0 0 0 0 0 0 0 0 0 0 0 0 0 0 0 0 0 0 0 0 0 0 0
0.0784553 3.38469e-05 1.08977e-05 2.29493e-05 0.678031 0.777402 0 0 0 0 0 0 0 0 0 0 0 0 0 0 0 0 0 0 0 0 0 0 0 0 0 0 0 0 0 0 0 0 0 0 0 0 0 0 0 0 0 0
0.0824824 3.38571e-05 1.11549e-05 2.27022e-05 0.67053 0.783285 0 0 0 0 0 0 0 0 0 0 0 0 0 0 0 0 0 0 0 0 0 0 0 0 0 0 0 0 0 0 0 0 0 0 0 0 0 0 0 0 0 0
0.0867162 3.38675e-05 1.12171e-05 2.26504e-05 0.668794 0.782178 0 0 0 0 0 0 0 0 0 0 0 0 0 0 0 0 0 0 0 0 0 0 0 0 0 0 0 0 0 0 0 0 0 0 0 0 0 0 0 0 0 0
0.0911674 3.38791e-05 1.11685e-05 2.27106e-05 0.670341 0.777052 0 0 0 0 0 0 0 0 0 0 0 0 0 0 0 0 0 0 0 0 0 0 0 0 0 0 0 0 0 0 0 0 0 0 0 0 0 0 0 0 0 0
0.095847 3.3891e-05 1.122e-05 2.2671e-05 0.668938 0.775314 0 0 0 0 0 0 0 0 0 0 0 0 0 0 0 0 0 0 0 0 0 0 0 0 0 0 0 0 0 0 0 0 0 0 0 0 0 0 0 0 0 0
0.100767 3.39004e-05 1.16182e-05 2.22822e-05 0.657284 0.786753 0 0 0 0 0 0 0 0 0 0 0 0 0 0 0 0 0 0 0 0 0 0 0 0 0 0 0 0 0 0 0 0 0 0 0 0 0 0 0 0 0 0
0.105939 3.3908e-05 1.20176e-05 2.18903e-05 0.645581 0.801372 0 0 0 0 0 0 0 0 0 0 0 0 0 0 0 0 0 0 0 0 0 0 0 0 0 0 0 0 0 0 0 0 0 0 0 0 0 0 0 0 0 0
0.111377 3.39118e-05 1.27429e-05 2.11688e-05 0.624233 0.829307 0 0 0 0 0 0 0 0 0 0 0 0 0 0 0 0 0 0 0 0 0 0 0 0 0 0 0 0 0 0 0 0 0 0 0 0 0 0 0 0 0 0
0.117094 3.3914e-05 1.34884e-05 2.04256e-05 0.602277 0.861567 0 0 0 0 0 0 0 0 0 0 0 0 0 0 0 0 0 0 0 0 0 0 0 0 0 0 0 0 0 0 0 0 0 0 0 0 0 0 0 0 0 0
0.123105 3.392e-05 1.397e-05 1.995e-05 0.588149 0.884149 0 0 0 0 0 0 0 0 0 0 0 0 0 0 0 0 0 0 0 0 0 0 0 0 0 0 0 0 0 0 0 0 0 0 0 0 0 0 0 0 0 0
0.129424 3.39276e-05 1.43793e-05 1.95483e-05 0.576177 0.904072 0 0 0 0 0 0 0 0 0 0 0 0 0 0 0 0 0 0 0 0 0 0 0 0 0 0 0 0 0 0 0 0 0 0 0 0 0 0 0 0 0 0
0.136067 3.39355e-05 1.4707e-05 1.92285e-05 0.56662 0.920231 0 0 0 0 0 0 0 0 0 0 0 0 0 0 0 0 0 0 0 0 0 0 0 0 0 0 0 0 0 0 0 0 0 0 0 0 0 0 0 0 0 0
0.143051 3.39421e-05 1.49616e-05 1.89805e-05 0.559203 0.932839 0 0 0 0 0 0 0 0 0 0 0 0 0 0 0 0 0 0 0 0 0 0 0 0 0 0 0 0 0 0 0 0 0 0 0 0 0 0 0 0 0 0
0.150394 3.3946e-05 1.51058e-05 1.88402e-05 0.555004 0.940967 0 0 0 0 0 0 0 0 0 0 0 0 0 0 0 0 0 0 0 0 0 0 0 0 0 0 0 0 0 0 0 0 0 0 0 0 0 0 0 0 0 0
0.158114 3.39497e-05 1.50538e-05 1.88959e-05 0.556585 0.941854 0 0 0 0 0 0 0 0 0 0 0 0 0 0 0 0 0 0 0 0 0 0 0 0 0 0 0 0 0 0 0 0 0 0 0 0 0 0 0 0 0 0
0.16623 3.39585e-05 1.46963e-05 1.92622e-05 0.567227 0.9311 0 0 0 0 0 0 0 0 0 0 0 0 0 0 0 0 0 0 0 0 0 0 0 0 0 0 0 0 0 0 0 0 0 0 0 0 0 0 0 0 0 0
0.174762 3.39755e-05 1.39932e-05 1.99823e-05 0.588139 0.904708 0 0 0 0 0 0 0 0 0 0 0 0 0 0 0 0 0 0 0 0 0 0 0 0 0 0 0 0 0 0 0 0 0 0 0 0 0 0 0 0 0 0
0.183733 3.39962e-05 1.31086e-05 2.08876e-05 0.614411 0.869063 0 0 0 0 0 0 0 0 0 0 0 0 0 0 0 0 0 0 0 0 0 0 0 0 0 0 0 0 0 0 0 0 0 0 0 0 0 0 0 0 0 0
0.193164 3.40188e-05 1.21904e-05 2.18284e-05 0.641657 0.832374 0 0 0 0 0 0 0 0 0 0 0 0 0 0 0 0 0 0 0 0 0 0 0 0 0 0 0 0 0 0 0 0 0 0 0 0 0 0 0 0 0 0
0.203079 3.4043e-05 1.13936e-05 2.26493e-05 0.665316 0.802054 0 0 0 0 0 0 0 0 0 0 0 0 0 0 0 0 0 0 0 0 0 0 0 0 0 0 0 0 0 0 0 0 0 0 0 0 0 0 0 0 0 0
0.213503 3.4069e-05 1.07106e-05 2.33584e-05 0.68562 0.777389 0 0 0 0 0 0 0 0 0 0 0 0 0 0 0 0 0 0 0 0 0 0 0 0 0 0 0 0 0 0 0 0 0 0 0 0 0 0 0 0 0 0
0.224463 3.40986e-05 1.02583e-05 2.38403e-05 0.699157 0.760338 0 0 0 0 0 0 0 0 0 0 0 0 0 0 0 0 0 0 0 0 0 0 0 0 0 0 0 0 0 0 0 0 0 0 0 0 0 0 0 0 0 0
0.235984 3.41312e-05 1.00062e-05 2.41251e-05 0.706832 0.748862 0 0 0 0 0 0 0 0 0 0 0 0 0 0 0 0 0 0 0 0 0 0 0 0 0 0 0 0 0 0 0 0 0 0 0 0 0 0 0 0 0 0
0.248097 3.4166e-05 1.00621e-05 2.41039e-05 0.705493 0.745135 0 0 0 0 0 0 0 0 0 0 0 0 0 0 0 0 0 0 0 0 0 0 0 0 0 0 0 0 0 0 0 0 0 0 0 0 0 0 0 0 0 0
0.260832 3.41963e-05 1.03155e-05 2.38808e-05 0.698345 0.747269 0 0 0 0 0 0 0 0 0 0 0 0 0 0 0 0 0 0 0 0 0 0 0 0 0 0 0 0 0 0 0 0 0 0 0 0 0 0 0 0 0 0
0.274221 3.42198e-05 1.06191e-05 2.36006e-05 0.689678 0.75145 0 0 0 0 0 0 0 0 0 0 0 0 0 0 0 0 0 0 0 0 0 0 0 0 0 0 0 0 0 0 0 0 0 0 0 0 0 0 0 0 0 0
0.288297 3.42323e-05 1.10134e-05 2.3219e-05 0.678276 0.76086 0 0 0 0 0 0 0 0 0 0 0 0 0 0 0 0 0 0 0 0 0 0 0 0 0 0 0 0 0 0 0 0 0 0 0 0 0 0 0 0 0 0
0.303095 3.42456e-05 1.12841e-05 2.29615e-05 0.670495 0.768038 0 0 0 0 0 0 0 0 0 0 0 0 0 0 0 0 0 0 0 0 0 0 0 0 0 0 0 0 0 0 0 0 0 0 0 0 0 0 0 0 0 0
0.318653 3.42594e-05 1.1505e-05 2.27544e-05 0.664179 0.774353 0 0 0 0 0 0 0 0 0 0 0 0 0 0 0 0 0 0 0 0 0 0 0 0 0 0 0 0 0 0 0 0 0 0 0 0 0 0 0 0 0 0
0.335009 3.42751e-05 1.16807e-05 2.25944e-05 0.659207 0.779782 0 0 0 0 0 0 0 0 0 0 0 0 0 0 0 0 0 0 0 0 0 0 0 0 0 0 0 0 0 0 0 0 0 0 0 0 0 0 0 0 0 0
0.352205 3.42931e-05 1.18028e-05 2.24902e-05 0.655825 0.783613 0 0 0 0 0 0 0 0 0 0 0 0 0 0 0 0 0 0 0 0 0 0 0 0 0 0 0 0 0 0 0 0 0 0 0 0 0 0 0 0 0 0
0.370284 3.43131e-05 1.18833e-05 2.24298e-05 0.653681 0.785979 0 0 0 0 0 0 0 0 0 0 0 0 0 0 0 0 0 0 0 0 0 0 0 0 0 0 0 0 0 0 0 0 0 0 0 0 0 0 0 0 0 0
0.389291 3.43346e-05 1.19276e-05 2.24071e-05 0.652608 0.786888 0 0 0 0 0 0 0 0 0 0 0 0 0 0 0 0 0 0 0 0 0 0 0 0 0 0 0 0 0 0 0 0 0 0 0 0 0 0 0 0 0 0
0.409273 3.43571e-05 1.19613e-05 2.23958e-05 0.651854 0.787432 0 0 0 0 0 0 0 0 0 0 0 0 0 0 0 0 0 0 0 0 0 0 0 0 0 0 0 0 0 0 0 0 0 0 0 0 0 0 0 0 0 0
0.430281 3.43802e-05 1.19903e-05 2.23899e-05 0.651245 0.787815 0 0 0 0 0 0 0 0 0 0 0 0 0 0 0 0 0 0 0 0 0 0 0 0 0 0 0 0 0 0 0 0 0 0 0 0 0 0 0 0 0 0
0.452368 3.44045e-05 1.20198e-05 2.23847e-05 0.650633 0.788383 0 0 0 0 0 0 0 0 0 0 0 0 0 0 0 0 0 0 0 0 0 0 0 0 0 0 0 0 0 0 0 0 0 0 0 0 0 0 0 0 0 0
0.475588 3.44297e-05 1.20467e-05 2.2383e-05 0.650108 0.788896 0 0 0 0 0 0 0 0 0 0 0 0 0 0 0 0 0 0 0 0 0 0 0 0 0 0 0 0 0 0 0 0 0 0 0 0 0 0 0 0 0 0
0.5 3.44565e-05 1.2066e-05 2.23905e-05 0.649819 0.789146 0 0 0 0 0 0 0 0 0 0 0 0 0 0 0 0 0 0 0 0 0 0 0 0 0 0 0 0 0 0 0 0 0 0 0 0 0 0 0 0 0 0
0.525665 3.44846e-05 1.20805e-05 2.24041e-05 0.649684 0.789234 0 0 0 0 0 0 0 0 0 0 0 0 0 0 0 0 0 0 0 0 0 0 0 0 0 0 0 0 0 0 0 0 0 0 0 0 0 0 0 0 0 0
0.552648 3.45138e-05 1.20924e-05 2.24214e-05 0.649636 0.789202 0 0 0 0 0 0 0 0 0 0 0 0 0 0 0 0 0 0 0 0 0 0 0 0 0 0 0 0 0 0 0 0 0 0 0 0 0 0 0 0 0 0
0.581015 3.45453e-05 1.20844e-05 2.24609e-05 0.650186 0.788372 0 0 0 0 0 0 0 0 0 0 0 0 0 0 0 0 0 0 0 0 0 0 0 0 0 0 0 0 0 0 0 0 0 0 0 0 0 0 0 0 0 0
0.610839 3.45777e-05 1.20758e-05 2.25019e-05 0.650764 0.787502 0 0 0 0 0 0 0 0 0 0 0 0 0 0 0 0 0 0 0 0 0 0 0 0 0 0 0 0 0 0 0 0 0 0 0 0 0 0 0 0 0 0
0.642193 3.46114e-05 1.20665e-05 2.25449e-05 0.651373 0.786592 0 0 0 0 0 0 0 0 0 0 0 0 0 0 0 0 0 0 0 0 0 0 0 0 0 0 0 0 0 0 0 0 0 0 0 0 0 0 0 0 0 0
0.675157 3.46467e-05 1.20497e-05 2.2597e-05 0.652212 0.785364 0 0 0 0 0 0 0 0 0 0 0 0 0 0 0 0 0 0 0 0 0 0 0 0 0 0 0 0 0 0 0 0 0 0 0 0 0 0 0 0 0 0
0.709813 3.46833e-05 1.2026e-05 2.26573e-05 0.653262 0.783841 0 0 0 0 0 0 0 0 0 0 0 0 0 0 0 0 0 0 0 0 0 0 0 0 0 0 0 0 0 0 0 0 0 0 0 0 0 0 0 0 0 0
0.746248 3.47212e-05 1.19992e-05 2.2722e-05 0.654413 0.782162 0 0 0 0 0 0 0 0 0 0 0 0 0 0 0 0 0 0 0 0 0 0 0 0 0 0 0 0 0 0 0 0 0 0 0 0 0 0 0 0 0 0
0.784553 3.47604e-05 1.19715e-05 2.27889e-05 0.6556 0.780443 0 0 0 0 0 0 0 0 0 0 0 0 0 0 0 0 0 0 0 0 0 0 0 0 0 0 0 0 0 0 0 0 0 0 0 0 0 0 0 0 0 0
0.824824 3.48007e-05 1.19431e-05 2.28576e-05 0.656814 0.778673 0 0 0 0 0 0 0 0 0 0 0 0 0 0 0 0 0 0 0 0 0 0 0 0 0 0 0 0 0 0 0 0 0 0 0 0 0 0 0 0 0 0
0.867162 3.48421e-05 1.1914e-05 2.29281e-05 0.658058 0.776859 0 0 0 0 0 0 0 0 0 0 0 0 0 0 0 0 0 0 0 0 0 0 0 0 0 0 0 0 0 0 0 0 0 0 0 0 0 0 0 0 0 0
0.911674 3.48845e-05 1.1885e-05 2.29995e-05 0.659304 0.775037 0 0 0 0 0 0 0 0 0 0 0 0 0 0 0 0 0 0 0 0 0 0 0 0 0 0 0 0 0 0 0 0 0 0 0 0 0 0 0 0 0 0
0.95847 3.49277e-05 1.18581e-05 2.30696e-05 0.660496 0.773264 0 0 0 0 0 0 0 0 0 0 0 0 0 0 0 0 0 0 0 0 0 0 0 0 0 0 0 0 0 0 0 0 0 0 0 0 0 0 0 0 0 0
1.00767 3.49721e-05 1.18311e-05 2.31409e-05 0.661698 0.771481 0 0 0 0 0 0 0 0 0 0 0 0 0 0 0 0 0 0 0 0 0 0 0 0 0 0 0 0 0 0 0 0 0 0 0 0 0 0 0 0 0 0
1.05939 3.50172e-05 1.18078e-05 2.32094e-05 0.662801 0.769805 0 0 0 0 0 0 0 0 0 0 0 0 0 0 0 0 0 0 0 0 0 0 0 0 0 0 0 0 0 0 0 0 0 0 0 0 0 0 0 0 0 0
1.11377 3.50634e-05 1.17834e-05 2.328e-05 0.66394 0.768091 0 0 0 0 0 0 0 0 0 0 0 0 0 0 0 0 0 0 0 0 0 0 0 0 0 0 0 0 0 0 0 0 0 0 0 0 0 0 0 0 0 0
1.17094 3.51109e-05 1.17622e-05 2.33487e-05 0.664998 0.766479 0 0 0 0 0 0 0 0 0 0 0 0 0 0 0 0 0 0 0 0 0 0 0 0 0 0 0 0 0 0 0 0 0 0 0 0 0 0 0 0 0 0
1.23105 3.51594e-05 1.17414e-05 2.3418e-05 0.666052 0.764873 0 0 0 0 0 0 0 0 0 0 0 0 0 0 0 0 0 0 0 0 0 0 0 0 0 0 0 0 0 0 0 0 0 0 0 0 0 0 0 0 0 0
1.29424 3.52095e-05 1.1717e-05 2.34925e-05 0.66722 0.763137 0 0 0 0 0 0 0 0 0 0 0 0 0 0 0 0 0 0 0 0 0 0 0 0 0 0 0 0 0 0 0 0 0 0 0 0 0 0 0 0 0 0
1.36067 3.52604e-05 1.16942e-05 2.35662e-05 0.668348 0.761445 0 0 0 0 0 0 0 0 0 0 0 0 0 0 0 0 0 0 0 0 0 0 0 0 0 0 0 0 0 0 0 0 0 0 0 0 0 0 0 0 0 0
1.43051 3.53122e-05 1.16738e-05 2.36384e-05 0.66941 0.75983 0 0 0 0 0 0 0 0 0 0 0 0 0 0 0 0 0 0 0 0 0 0 0 0 0 0 0 0 0 0 0 0 0 0 0 0 0 0 0 0 0 0
1.50394 3.53652e-05 1.16552e-05 2.371e-05 0.670433 0.758262 0 0 0 0 0 0 0 0 0 0 0 0 0 0 0 0 0 0 0 0 0 0 0 0 0 0 0 0 0 0 0 0 0 0 0 0 0 0 0 0 0 0
1.58114 3.54198e-05 1.16353e-05 2.37844e-05 0.671502 0.756648 0 0 0 0 0 0 0 0 0 0 0 0 0 0 0 0 0 0 0 0 0 0 0 0 0 0 0 0 0 0 0 0 0 0 0 0 0 0 0 0 0 0
1.6623 3.54757e-05 1.16123e-05 2.38634e-05 0.672669 0.75493 0 0 0 0 0 0 0 0 0 0 0 0 0 0 0 0 0 0 0 0 0 0 0 0 0 0 0 0 0 0 0 0 0 0 0 0 0 0 0 0 0 0
1.74763 3.5533e-05 1.15886e-05 2.39444e-05 0.673863 0.753189 0 0 0 0 0 0 0 0 0 0 0 0 0 0 0 0 0 0 0 0 0 0 0 0 0 0 0 0 0 0 0 0 0 0 0 0 0 0 0 0 0 0
1.83733 3.55915e-05 1.15663e-05 2.40251e-05 0.675025 0.751496 0 0 0 0 0 0 0 0 0 0 0 0 0 0 0 0 0 0 0 0 0 0 0 0 0 0 0 0 0 0 0 0 0 0 0 0 0 0 0 0 0 0
1.93164 3.56497e-05 1.1544e-05 2.41058e-05 0.676184 0.749792 0 0 0 0 0 0 0 0 0 0 0 0 0 0 0 0 0 0 0 0 0 0 0 0 0 0 0 0 0 0 0 0 0 0 0 0 0 0 0 0 0 0
2.03079 3.57116e-05 1.15211e-05 2.41905e-05 0.677386 0.748091 0 0 0 0 0 0 0 0 0 0 0 0 0 0 0 0 0 0 0 0 0 0 0 0 0 0 0 0 0 0 0 0 0 0 0 0 0 0 0 0 0 0
2.13503 3.57738e-05 1.1495e-05 2.42788e-05 0.678675 0.746291 0 0 0 0 0 0 0 0 0 0 0 0 0 0 0 0 0 0 0 0 0 0 0 0 0 0 0 0 0 0 0 0 0 0 0 0 0 0 0 0 0 0
2.24463 3.58302e-05 1.14683e-05 2.43619e-05 0.679926 0.744452 0 0 0 0 0 0 0 0 0 0 0 0 0 0 0 0 0 0 0 0 0 0 0 0 0 0 0 0 0 0 0 0 0 0 0 0 0 0 0 0 0 0
2.35984 3.5892e-05 1.14416e-05 2.44504e-05 0.681221 0.742649 0 0 0 0 0 0 0 0 0 0 0 0 0 0 0 0 0 0 0 0 0 0 0 0 0 0 0 0 0 0 0 0 0 0 0 0 0 0 0 0 0 0
2.48097 3.59712e-05 1.14132e-05 2.4558e-05 0.682713 0.740917 0 0 0 0 0 0 0 0 0 0 0 0 0 0 0 0 0 0 0 0 0 0 0 0 0 0 0 0 0 0 0 0 0 0 0 0 0 0 0 0 0 0
2.60832 3.60429e-05 1.13782e-05 2.46647e-05 0.684315 0.738972 0 0 0 0 0 0 0 0 0 0 0 0 0 0 0 0 0 0 0 0 0 0 0 0 0 0 0 0 0 0 0 0 0 0 0 0 0 0 0 0 0 0
2.74221 3.61143e-05 1.13383e-05 2.4776e-05 0.686044 0.736912 0 0 0 0 0 0 0 0 0 0 0 0 0 0 0 0 0 0 0 0 0 0 0 0 0 0 0 0 0 0 0 0 0 0 0 0 0 0 0 0 0 0
2.88297 3.61932e-05 1.12997e-05 2.48934e-05 0.687794 0.734963 0 0 0 0 0 0 0 0 0 0 0 0 0 0 0 0 0 0 0 0 0 0 0 0 0 0 0 0 0 0 0 0 0 0 0 0 0 0 0 0 0 0
3.03095 3.62635e-05 1.12561e-05 2.50074e-05 0.689603 0.732829 0 0 0 0 0 0 0 0 0 0 0 0 0 0 0 0 0 0 0 0 0 0 0 0 0 0 0 0 0 0 0 0 0 0 0 0 0 0 0 0 0 0
3.18653 3.63158e-05 1.12087e-05 2.51071e-05 0.691354 0.730519 0 0 0 0 0 0 0 0 0 0 0 0 0 0 0 0 0 0 0 0 0 0 0 0 0 0 0 0 0 0 0 0 0 0 0 0 0 0 0 0 0 0
3.35009 3.63414e-05 1.11582e-05 2.51831e-05 0.692961 0.727955 0 0 0 0 0 0 0 0 0 0 0 0 0 0 0 0 0 0 0 0 0 0 0 0 0 0 0 0 0 0 0 0 0 0 0 0 0 0 0 0 0 0
3.52205 3.63696e-05 1.11049e-05 2.52647e-05 0.694666 0.725483 0 0 0 0 0 0 0 0 0 0 0 0 0 0 0 0 0 0 0 0 0 0 0 0 0 0 0 0 0 0 0 0 0 0 0 0 0 0 0 0 0 0
3.70284 3.65102e-05 1.10514e-05 2.54588e-05 0.697306 0.723594 0 0 0 0 0 0 0 0 0 0 0 0 0 0 0 0 0 0 0 0 0 0 0 0 0 0 0 0 0 0 0 0 0 0 0 0 0 0 0 0 0 0
3.89291 3.66565e-05 1.09958e-05 2.56607e-05 0.700031 0.721674 0 0 0 0 0 0 0 0 0 0 0 0 0 0 0 0 0 0 0 0 0 0 0 0 0 0 0 0 0 0 0 0 0 0 0 0 0 0 0 0 0 0
4.09273 3.66173e-05 1.093e-05 2.56873e-05 0.701507 0.718507 0 0 0 0 0 0 0 0 0 0 0 0 0 0 0 0 0 0 0 0 0 0 0 0 0 0 0 0 0 0 0 0 0 0 0 0 0 0 0 0 0 0
4.30281 3.66527e-05 1.0868e-05 2.57848e-05 0.703489 0.715482 0 0 0 0 0 0 0 0 0 0 0 0 0 0 0 0 0 0 0 0 0 0 0 0 0 0 0 0 0 0 0 0 0 0 0 0 0 0 0 0 0 0
4.52368 3.69332e-05 1.08023e-05 2.61309e-05 0.707518 0.714569 0 0 0 0 0 0 0 0 0 0 0 0 0 0 0 0 0 0 0 0 0 0 0 0 0 0 0 0 0 0 0 0 0 0 0 0 0 0 0 0 0 0
4.75588 3.67693e-05 1.07303e-05 2.6039e-05 0.708172 0.710209 0 0 0 0 0 0 0 0 0 0 0 0 0 0 0 0 0 0 0 0 0 0 0 0 0 0 0 0 0 0 0 0 0 0 0 0 0 0 0 0 0 0
5 3.70636e-05 1.06588e-05 2.64048e-05 0.712419 0.709406 0 0 0 0 0 0 0 0 0 0 0 0 0 0 0 0 0 0 0 0 0 0 0 0 0 0 0 0 0 0 0 0 0 0 0 0 0 0 0 0 0 0
5.25665 3.6999e-05 1.05899e-05 2.64091e-05 0.713778 0.705582 0 0 0 0 0 0 0 0 0 0 0 0 0 0 0 0 0 0 0 0 0 0 0 0 0 0 0 0 0 0 0 0 0 0 0 0 0 0 0 0 0 0
5.52648 3.71315e-05 1.0513e-05 2.66185e-05 0.716871 0.702931 0 0 0 0 0 0 0 0 0 0 0 0 0 0 0 0 0 0 0 0 0 0 0 0 0 0 0 0 0 0 0 0 0 0 0 0 0 0 0 0 0 0
5.81015 3.71694e-05 1.04383e-05 2.67311e-05 0.719169 0.699956 0 0 0 0 0 0 0 0 0 0 0 0 0 0 0 0 0 0 0 0 0 0 0 0 0 0 0 0 0 0 0 0 0 0 0 0 0 0 0 0 0 0
6.10839 3.73472e-05 1.03614e-05 2.69858e-05 0.722565 0.697483 0 0 0 0 0 0 0 0 0 0 0 0 0 0 0 0 0 0 0 0 0 0 0 0 0 0 0 0 0 0 0 0 0 0 0 0 0 0 0 0 0 0
6.42193 3.72329e-05 1.02936e-05 2.69393e-05 0.723535 0.693862 0 0 0 0 0 0 0 0 0 0 0 0 0 0 0 0 0 0 0 0 0 0 0 0 0 0 0 0 0 0 0 0 0 0 0 0 0 0 0 0 0 0
6.75157 3.76662e-05 1.02341e-05 2.74321e-05 0.728296 0.69392 0 0 0 0 0 0 0 0 0 0 0 0 0 0 0 0 0 0 0 0 0 0 0 0 0 0 0 0 0 0 0 0 0 0 0 0 0 0 0 0 0 0
7.09813 3.72169e-05 1.01788e-05 2.70382e-05 0.726502 0.687736 0 0 0 0 0 0 0 0 0 0 0 0 0 0 0 0 0 0 0 0 0 0 0 0 0 0 0 0 0 0 0 0 0 0 0 0 0 0 0 0 0 0
7.46248 3.79295e-05 1.01085e-05 2.7821e-05 0.733493 0.689413 0 0 0 0 0 0 0 0 0 0 0 0 0 0 0 0 0 0 0 0 0 0 0 0 0 0 0 0 0 0 0 0 0 0 0 0 0 0 0 0 0 0
7.84553 3.75616e-05 1.00946e-05 2.74671e-05 0.731253 0.684744 0 0 0 0 0 0 0 0 0 0 0 0 0 0 0 0 0 0 0 0 0 0 0 0 0 0 0 0 0 0 0 0 0 0 0 0 0 0 0 0 0 0
8.24824 3.7619e-05 1.00713e-05 2.75477e-05 0.732282 0.682621 0 0 0 0 0 0 0 0 0 0 0 0 0 0 0 0 0 0 0 0 0 0 0 0 0 0 0 0 0 0 0 0 0 0 0 0 0 0 0 0 0 0
8.67162 3.82962e-05 1.00646e-05 2.82316e-05 0.73719 0.684398 0 0 0 0 0 0 0 0 0 0 0 0 0 0 0 0 0 0 0 0 0 0 0 0 0 0 0 0 0 0 0 0 0 0 0 0 0 0 0 0 0 0
9.11674 3.76468e-05 1.00844e-05 2.75624e-05 0.732131 0.678457 0 0 0 0 0 0 0 0 0 0 0 0 0 0 0 0 0 0 0 0 0 0 0 0 0 0 0 0 0 0 0 0 0 0 0 0 0 0 0 0 0 0
9.5847 3.79454e-05 1.00977e-05 2.78477e-05 0.733889 0.679254 0 0 0 0 0 0 0 0 0 0 0 0 0 0 0 0 0 0 0 0 0 0 0 0 0 0 0 0 0 0 0 0 0 0 0 0 0 0 0 0 0 0
10.0767 3.85673e-05 1.01747e-05 2.83926e-05 0.736184 0.682598 0 0 0 0 0 0 0 0 0 0 0 0 0 0 0 0 0 0 0 0 0 0 0 0 0 0 0 0 0 0 0 0 0 0 0 0 0 0 0 0 0 0
10.5939 3.80593e-05 1.02249e-05 2.78344e-05 0.731344 0.677797 0 0 0 0 0 0 0 0 0 0 0 0 0 0 0 0 0 0 0 0 0 0 0 0 0 0 0 0 0 0 0 0 0 0 0 0 0 0 0 0 0 0
11.1377 3.8144e-05 1.02927e-05 2.78513e-05 0.730163 0.676497 0 0 0 0 0 0 0 0 0 0 0 0 0 0 0 0 0 0 0 0 0 0 0 0 0 0 0 0 0 0 0 0 0 0 0 0 0 0 0 0 0 0
11.7094 3.83927e-05 1.03033e-05 2.80893e-05 0.731633 0.675169 0 0 0 0 0 0 0 0 0 0 0 0 0 0 0 0 0 0 0 0 0 0 0 0 0 0 0 0 0 0 0 0 0 0 0 0 0 0 0 0 0 0
12.3105 3.88275e-05 1.03741e-05 2.84534e-05 0.732815 0.677849 0 0 0 0 0 0 0 0 0 0 0 0 0 0 0 0 0 0 0 0 0 0 0 0 0 0 0 0 0 0 0 0 0 0 0 0 0 0 0 0 0 0
12.9424 3.83685e-05 1.04304e-05 2.79381e-05 0.728152 0.674707 0 0 0 0 0 0 0 0 0 0 0 0 0 0 0 0 0 0 0 0 0 0 0 0 0 0 0 0 0 0 0 0 0 0 0 0 0 0 0 0 0 0
13.6067 3.86006e-05 1.04938e-05 2.81068e-05 0.728145 0.674964 0 0 0 0 0 0 0 0 0 0 0 0 0 0 0 0 0 0 0 0 0 0 0 0 0 0 0 0 0 0 0 0 0 0 0 0 0 0 0 0 0 0
14.3051 3.91438e-05 1.0547e-05 2.85968e-05 0.730559 0.675776 0 0 0 0 0 0 0 0 0 0 0 0 0 0 0 0 0 0 0 0 0 0 0 0 0 0 0 0 0 0 0 0 0 0 0 0 0 0 0 0 1.4013e-45 0
15.0394 3.91433e-05 1.05753e-05 2.85679e-05 0.72983 0.673321 0 0 0 0 0 0 0 0 0 0 0 0 0 0 0 0 0 0 0 0 0 0 0 0 0 0 0 0 0 0 0 0 1.4013e-45 0 4.2039e-45 0 1.68156e-44 0 5.1848e-44 0 1.5134e-43 0
15.8114 3.8904e-05 1.06002e-05 2.83037e-05 0.727528 0.670176 0 0 0 0 0 0 0 0 0 0 0 0 0 0 0 0 0 0 0 0 0 0 0 0 0 0 2.8026e-45 0 1.4013e-44 0 6.44597e-44 0 2.43826e-43 0 8.60397e-43 0 2.84043e-42 0 8.5297e-42 0 2.34297e-41 0
16.623 3.90567e-05 1.06346e-05 2.84221e-05 0.727714 0.669987 0 0 0 0 0 0 0 0 0 0 0 0 0 0 0 0 0 0 0 0 1.4013e-45 0 1.54143e-44 0 1.00893e-43 0 5.395e-43 0 2.45507e-42 0 1.03374e-41 0 3.64716e-41 0 1.20688e-40 0 3.75849e-40 0 1.06985e-39 0 2.79698e-39 0
17.4762 3.9387e-05 1.06753e-05 2.87117e-05 0.728964 0.67046 0 0 0 0 0 0 0 0 0 0 0 0 0 0 0 0 2.8026e-45 0 4.06377e-44 0 3.69943e-43 0 2.67368e-42 0 1.5532e-41 0 7.64913e-41 0 3.23415e-40 0 1.26971e-39 0 4.21229e-39 0 1.31478e-38 0 3.8736e-38 0 1.04772e-37 0 2.61356e-37 0
18.3733 3.95049e-05 1.07081e-05 2.87967e-05 0.728941 0.668931 0 0 0 0 0 0 0 0 0 0 0 0 1.4013e-45 0 3.22299e-44 0 5.53513e-43 0 6.39132e-42 0 5.27603e-41 0 3.46394e-40 0 1.84647e-39 0 8.41257e-39 0 3.3152e-38 0 1.21746e-37 0 3.80926e-37 0 1.12471e-36 0 3.14333e-36 0 8.09878e-36 0 1.93208e-35 0
19.3164 3.94254e-05 1.0696e-05 2.87294e-05 0.728703 0.665298 0 0 0 0 0 0 0 0 0 0 4.2039e-45 0 2.05991e-43 0 5.19461e-42 0 7.6204e-41 0 7.80687e-40 0 5.81329e-39 0 3.48163e-38 0 1.7103e-37 0 7.23607e-37 0 2.66689e-36 0 9.1911e-36 0 2.71998e-35 0 7.61742e-35 0 2.02473e-34 0 4.98113e-34 0 1.13893e-33 0
20.3079 3.93894e-05 1.06062e-05 2.87832e-05 0.730735 0.660874 0 0 0 0 0 0 0 0 5.60519e-45 0 7.16064e-43 0 2.92521e-41 0 6.28593e-40 0 8.08708e-39 0 7.39533e-38 0 4.99264e-37 0 2.73992e-36 0 1.2453e-35 0 4.91045e-35 0 1.69811e-34 0 5.50923e-34 0 1.54627e-33 0 4.11803e-33 0 1.04356e-32 0 2.45693e-32 0 5.39543e-32 0
21.3503 3.94046e-05 1.04685e-05 2.89361e-05 0.734332 0.65731 0 0 0 0 0 0 1.4013e-45 0 9.59889e-43 0 9.37959e-41 0 3.19729e-39 0 5.91495e-38 0 6.71749e-37 0 5.51371e-36 0 3.39097e-35 0 1.7125e-34 0 7.22876e-34 0 2.66575e-33 0 8.67668e-33 0 2.65781e-32 0 7.09308e-32 0 1.80082e-31 0 4.36097e-31 0 9.84693e-31 0 2.08091e-30 0
22.4463 3.93055e-05 1.02963e-05 2.90092e-05 0.738044 0.652701 0 0 0 0 0 0 3.40516e-43 0 1.22022e-40 0 9.52771e-39 0 2.73374e-37 0 4.3859e-36 0 4.42378e-35 0 3.27638e-34 0 1.84398e-33 0 8.6045e-33 0 3.3855e-32 0 1.1714e-31 0 3.59929e-31 0 1.04388e-30 0 2.65551e-30 0 6.44209e-30 0 1.49412e-29 0 3.24215e-29 0 6.60573e-29 0
