# 0.00028184 1 156 : grain size, compostion index, size index
# Heating and cooling timescale: 2.56084e-05 6.44607e+13
# Ratio of heating to cooling to determine stochastic cutoff: 100
# Equilibrium emission is recorded even for those grains in the stochastic regime.
# Emission spectrum was computed for: 
# Type: IRSF
# Scales: 0.25 0.5 1 1.5 2 2.5 3 3.5 4 4.5 5 5.5 6 6.5 7 7.5 8 8.5 9 9.5 10
# StochasticallyHeated: 0 0 0 0 0 0 0 0 0 0 0 0 0 0 0 0 0 0 0 0 0
# Temperature: -1
# Wavelength  CExt  CAbs  CSca  Albedo G EqEm1 StEm1 EqEm2 StEm2 EqEm3 StEm3 EqEm4 StEm4 EqEm5 StEm5 EqEm6 StEm6 EqEm7 StEm7 EqEm8 StEm8 EqEm9 StEm9 EqEm10 StEm10 EqEm11 StEm11 EqEm12 StEm12 EqEm13 StEm13 EqEm14 StEm14 EqEm15 StEm15 EqEm16 StEm16 EqEm17 StEm17 EqEm18 StEm18 EqEm19 StEm19 EqEm20 StEm20 EqEm21 StEm21
0.05 1.28188e-07 5.70425e-08 7.1145e-08 0.555008 0.21471 0 0 0 0 0 0 0 0 0 0 0 0 0 0 0 0 0 0 0 0 0 0 0 0 0 0 0 0 0 0 0 0 0 0 0 0 0 0 0 0 0 0
0.0525665 1.41685e-07 6.30488e-08 7.86363e-08 0.555008 0.237318 0 0 0 0 0 0 0 0 0 0 0 0 0 0 0 0 0 0 0 0 0 0 0 0 0 0 0 0 0 0 0 0 0 0 0 0 0 0 0 0 0 0
0.0552647 1.56604e-07 6.96875e-08 8.69163e-08 0.555008 0.262307 0 0 0 0 0 0 0 0 0 0 0 0 0 0 0 0 0 0 0 0 0 0 0 0 0 0 0 0 0 0 0 0 0 0 0 0 0 0 0 0 0 0
0.0581015 1.73093e-07 7.70253e-08 9.60681e-08 0.555008 0.289926 0 0 0 0 0 0 0 0 0 0 0 0 0 0 0 0 0 0 0 0 0 0 0 0 0 0 0 0 0 0 0 0 0 0 0 0 0 0 0 0 0 0
0.0610839 1.91319e-07 8.51357e-08 1.06184e-07 0.555008 0.320454 0 0 0 0 0 0 0 0 0 0 0 0 0 0 0 0 0 0 0 0 0 0 0 0 0 0 0 0 0 0 0 0 0 0 0 0 0 0 0 0 0 0
0.0642193 2.11464e-07 9.41e-08 1.17364e-07 0.555008 0.354196 0 0 0 0 0 0 0 0 0 0 0 0 0 0 0 0 0 0 0 0 0 0 0 0 0 0 0 0 0 0 0 0 0 0 0 0 0 0 0 0 0 0
0.0675157 2.33731e-07 1.04008e-07 1.29722e-07 0.555008 0.391491 0 0 0 0 0 0 0 0 0 0 0 0 0 0 0 0 0 0 0 0 0 0 0 0 0 0 0 0 0 0 0 0 0 0 0 0 0 0 0 0 0 0
0.0709813 2.58341e-07 1.1496e-07 1.43381e-07 0.555008 0.432714 0 0 0 0 0 0 0 0 0 0 0 0 0 0 0 0 0 0 0 0 0 0 0 0 0 0 0 0 0 0 0 0 0 0 0 0 0 0 0 0 0 0
0.0746248 2.85543e-07 1.27065e-07 1.58479e-07 0.555008 0.478276 0 0 0 0 0 0 0 0 0 0 0 0 0 0 0 0 0 0 0 0 0 0 0 0 0 0 0 0 0 0 0 0 0 0 0 0 0 0 0 0 0 0
0.0784553 3.15609e-07 1.40444e-07 1.75166e-07 0.555008 0.528636 0 0 0 0 0 0 0 0 0 0 0 0 0 0 0 0 0 0 0 0 0 0 0 0 0 0 0 0 0 0 0 0 0 0 0 0 0 0 0 0 0 0
0.0824824 3.48842e-07 1.55232e-07 1.9361e-07 0.555008 0.584299 0 0 0 0 0 0 0 0 0 0 0 0 0 0 0 0 0 0 0 0 0 0 0 0 0 0 0 0 0 0 0 0 0 0 0 0 0 0 0 0 0 0
0.0867162 3.85573e-07 1.71577e-07 2.13996e-07 0.555008 0.645823 0 0 0 0 0 0 0 0 0 0 0 0 0 0 0 0 0 0 0 0 0 0 0 0 0 0 0 0 0 0 0 0 0 0 0 0 0 0 0 0 0 0
0.0911674 4.26172e-07 1.89643e-07 2.36529e-07 0.555008 0.713825 0 0 0 0 0 0 0 0 0 0 0 0 0 0 0 0 0 0 0 0 0 0 0 0 0 0 0 0 0 0 0 0 0 0 0 0 0 0 0 0 0 0
0.095847 4.71046e-07 2.09612e-07 2.61434e-07 0.555008 0.788988 0 0 0 0 0 0 0 0 0 0 0 0 0 0 0 0 0 0 0 0 0 0 0 0 0 0 0 0 0 0 0 0 0 0 0 0 0 0 0 0 0 0
0.100767 5.12811e-07 2.2823e-07 2.8458e-07 0.554942 0.858877 0 0 0 0 0 0 0 0 0 0 0 0 0 0 0 0 0 0 0 0 0 0 0 0 0 0 0 0 0 0 0 0 0 0 0 0 0 0 0 0 0 0
0.105939 5.13244e-07 2.28664e-07 2.8458e-07 0.554474 0.862681 0 0 0 0 0 0 0 0 0 0 0 0 0 0 0 0 0 0 0 0 0 0 0 0 0 0 0 0 0 0 0 0 0 0 0 0 0 0 0 0 0 0
0.111377 5.13694e-07 2.2923e-07 2.84464e-07 0.553761 0.867573 0 0 0 0 0 0 0 0 0 0 0 0 0 0 0 0 0 0 0 0 0 0 0 0 0 0 0 0 0 0 0 0 0 0 0 0 0 0 0 0 0 0
0.117094 5.14151e-07 2.2976e-07 2.84391e-07 0.553127 0.870677 0 0 0 0 0 0 0 0 0 0 0 0 0 0 0 0 0 0 0 0 0 0 0 0 0 0 0 0 0 0 0 0 0 0 0 0 0 0 0 0 0 0
0.123105 5.14597e-07 2.30558e-07 2.84039e-07 0.551964 0.872606 0 0 0 0 0 0 0 0 0 0 0 0 0 0 0 0 0 0 0 0 0 0 0 0 0 0 0 0 0 0 0 0 0 0 0 0 0 0 0 0 0 0
0.129424 5.15037e-07 2.31484e-07 2.83552e-07 0.550548 0.873514 0 0 0 0 0 0 0 0 0 0 0 0 0 0 0 0 0 0 0 0 0 0 0 0 0 0 0 0 0 0 0 0 0 0 0 0 0 0 0 0 0 0
0.136067 5.15493e-07 2.32063e-07 2.8343e-07 0.549823 0.873221 0 0 0 0 0 0 0 0 0 0 0 0 0 0 0 0 0 0 0 0 0 0 0 0 0 0 0 0 0 0 0 0 0 0 0 0 0 0 0 0 0 0
0.143051 5.15964e-07 2.33136e-07 2.82828e-07 0.548155 0.870925 0 0 0 0 0 0 0 0 0 0 0 0 0 0 0 0 0 0 0 0 0 0 0 0 0 0 0 0 0 0 0 0 0 0 0 0 0 0 0 0 0 0
0.150394 5.16463e-07 2.34885e-07 2.81578e-07 0.545205 0.872051 0 0 0 0 0 0 0 0 0 0 0 0 0 0 0 0 0 0 0 0 0 0 0 0 0 0 0 0 0 0 0 0 0 0 0 0 0 0 0 0 0 0
0.158114 5.17067e-07 2.3717e-07 2.79897e-07 0.541316 0.878263 0 0 0 0 0 0 0 0 0 0 0 0 0 0 0 0 0 0 0 0 0 0 0 0 0 0 0 0 0 0 0 0 0 0 0 0 0 0 0 0 0 0
0.16623 5.17753e-07 2.39551e-07 2.78202e-07 0.537326 0.885896 0 0 0 0 0 0 0 0 0 0 0 0 0 0 0 0 0 0 0 0 0 0 0 0 0 0 0 0 0 0 0 0 0 0 0 0 0 0 0 0 0 0
0.174762 5.1848e-07 2.41701e-07 2.76779e-07 0.533828 0.892826 0 0 0 0 0 0 0 0 0 0 0 0 0 0 0 0 0 0 0 0 0 0 0 0 0 0 0 0 0 0 0 0 0 0 0 0 0 0 0 0 0 0
0.183733 5.19192e-07 2.42269e-07 2.76923e-07 0.533373 0.89901 0 0 0 0 0 0 0 0 0 0 0 0 0 0 0 0 0 0 0 0 0 0 0 0 0 0 0 0 0 0 0 0 0 0 0 0 0 0 0 0 0 0
0.193164 5.21362e-07 2.36164e-07 2.85198e-07 0.547025 0.904246 0 0 0 0 0 0 0 0 0 0 0 0 0 0 0 0 0 0 0 0 0 0 0 0 0 0 0 0 0 0 0 0 0 0 0 0 0 0 0 0 0 0
0.203079 5.21747e-07 2.37036e-07 2.84711e-07 0.545687 0.90868 0 0 0 0 0 0 0 0 0 0 0 0 0 0 0 0 0 0 0 0 0 0 0 0 0 0 0 0 0 0 0 0 0 0 0 0 0 0 0 0 0 0
0.213503 5.21353e-07 2.4017e-07 2.81183e-07 0.539333 0.912549 0 0 0 0 0 0 0 0 0 0 0 0 0 0 0 0 0 0 0 0 0 0 0 0 0 0 0 0 0 0 0 0 0 0 0 0 0 0 0 0 0 0
0.224463 5.21079e-07 2.42446e-07 2.78633e-07 0.534724 0.915701 0 0 0 0 0 0 0 0 0 0 0 0 0 0 0 0 0 0 0 0 0 0 0 0 0 0 0 0 0 0 0 0 0 0 0 0 0 0 0 0 0 0
0.235984 5.2091e-07 2.44716e-07 2.76194e-07 0.530214 0.918055 0 0 0 0 0 0 0 0 0 0 0 0 0 0 0 0 0 0 0 0 0 0 0 0 0 0 0 0 0 0 0 0 0 0 0 0 0 0 0 0 0 0
0.248097 5.20928e-07 2.46669e-07 2.74259e-07 0.526481 0.919894 0 0 0 0 0 0 0 0 0 0 0 0 0 0 0 0 0 0 0 0 0 0 0 0 0 0 0 0 0 0 0 0 0 0 0 0 0 0 0 0 0 0
0.260832 5.21204e-07 2.48278e-07 2.72926e-07 0.523645 0.921271 0 0 0 0 0 0 0 0 0 0 0 0 0 0 0 0 0 0 0 0 0 0 0 0 0 0 0 0 0 0 0 0 0 0 0 0 0 0 0 0 0 0
0.274221 5.21659e-07 2.49583e-07 2.72076e-07 0.521559 0.92235 0 0 0 0 0 0 0 0 0 0 0 0 0 0 0 0 0 0 0 0 0 0 0 0 0 0 0 0 0 0 0 0 0 0 0 0 0 0 0 0 0 0
0.288297 5.2225e-07 2.50628e-07 2.71621e-07 0.520099 0.923199 0 0 0 0 0 0 0 0 0 0 0 0 0 0 0 0 0 0 0 0 0 0 0 0 0 0 0 0 0 0 0 0 0 0 0 0 0 0 0 0 0 0
0.303095 5.22958e-07 2.51526e-07 2.71432e-07 0.519033 0.923863 0 0 0 0 0 0 0 0 0 0 0 0 0 0 0 0 0 0 0 0 0 0 0 0 0 0 0 0 0 0 0 0 0 0 0 0 0 0 0 0 0 0
0.318653 5.23766e-07 2.52303e-07 2.71463e-07 0.518291 0.9243 0 0 0 0 0 0 0 0 0 0 0 0 0 0 0 0 0 0 0 0 0 0 0 0 0 0 0 0 0 0 0 0 0 0 0 0 0 0 0 0 0 0
0.335009 5.24647e-07 2.53e-07 2.71647e-07 0.517771 0.924335 0 0 0 0 0 0 0 0 0 0 0 0 0 0 0 0 0 0 0 0 0 0 0 0 0 0 0 0 0 0 0 0 0 0 0 0 0 0 0 0 0 0
0.352205 5.25612e-07 2.53665e-07 2.71947e-07 0.517391 0.924663 0 0 0 0 0 0 0 0 0 0 0 0 0 0 0 0 0 0 0 0 0 0 0 0 0 0 0 0 0 0 0 0 0 0 0 0 0 0 0 0 0 0
0.370284 5.26628e-07 2.54281e-07 2.72346e-07 0.517152 0.924774 0 0 0 0 0 0 0 0 0 0 0 0 0 0 0 0 0 0 0 0 0 0 0 0 0 0 0 0 0 0 0 0 0 0 0 0 0 0 0 0 0 0
0.389291 5.27723e-07 2.54915e-07 2.72808e-07 0.516954 0.924118 0 0 0 0 0 0 0 0 0 0 0 0 0 0 0 0 0 0 0 0 0 0 0 0 0 0 0 0 0 0 0 0 0 0 0 0 0 0 0 0 0 0
0.409273 5.28863e-07 2.55531e-07 2.73332e-07 0.51683 0.924509 0 0 0 0 0 0 0 0 0 0 0 0 0 0 0 0 0 0 0 0 0 0 0 0 0 0 0 0 0 0 0 0 0 0 0 0 0 0 0 0 0 0
0.430281 5.30068e-07 2.56164e-07 2.73904e-07 0.516734 0.923048 0 0 0 0 0 0 0 0 0 0 0 0 0 0 0 0 0 0 0 0 0 0 0 0 0 0 0 0 0 0 0 0 0 0 0 0 0 0 0 0 0 0
0.452368 5.31335e-07 2.56805e-07 2.7453e-07 0.51668 0.923451 0 0 0 0 0 0 0 0 0 0 0 0 0 0 0 0 0 0 0 0 0 0 0 0 0 0 0 0 0 0 0 0 0 0 0 0 0 0 0 0 0 0
0.475588 5.32657e-07 2.57468e-07 2.75188e-07 0.516634 0.92153 0 0 0 0 0 0 0 0 0 0 0 0 0 0 0 0 0 0 0 0 0 0 0 0 0 0 0 0 0 0 0 0 0 0 0 0 0 0 0 0 0 0
0.5 5.34057e-07 2.58158e-07 2.75899e-07 0.516609 0.921205 0 0 0 0 0 0 0 0 0 0 0 0 0 0 0 0 0 0 0 0 0 0 0 0 0 0 0 0 0 0 0 0 0 0 0 0 0 0 0 0 0 0
0.525665 5.35511e-07 2.58861e-07 2.7665e-07 0.51661 0.920058 0 0 0 0 0 0 0 0 0 0 0 0 0 0 0 0 0 0 0 0 0 0 0 0 0 0 0 0 0 0 0 0 0 0 0 0 0 0 0 0 0 0
0.552648 5.37048e-07 2.596e-07 2.77448e-07 0.516617 0.91749 0 0 0 0 0 0 0 0 0 0 0 0 0 0 0 0 0 0 0 0 0 0 0 0 0 0 0 0 0 0 0 0 0 0 0 0 0 0 0 0 0 0
0.581015 5.38659e-07 2.60375e-07 2.78283e-07 0.516623 0.917869 0 0 0 0 0 0 0 0 0 0 0 0 0 0 0 0 0 0 0 0 0 0 0 0 0 0 0 0 0 0 0 0 0 0 0 0 0 0 0 0 0 0
0.610839 5.40353e-07 2.61193e-07 2.7916e-07 0.516625 0.914634 0 0 0 0 0 0 0 0 0 0 0 0 0 0 0 0 0 0 0 0 0 0 0 0 0 0 0 0 0 0 0 0 0 0 0 0 0 0 0 0 0 0
0.642193 5.42123e-07 2.62027e-07 2.80096e-07 0.516665 0.911393 0 0 0 0 0 0 0 0 0 0 0 0 0 0 0 0 0 0 0 0 0 0 0 0 0 0 0 0 0 0 0 0 0 0 0 0 0 0 0 0 0 0
0.675157 5.43983e-07 2.62913e-07 2.81069e-07 0.516688 0.911865 0 0 0 0 0 0 0 0 0 0 0 0 0 0 0 0 0 0 0 0 0 0 0 0 0 0 0 0 0 0 0 0 0 0 0 0 0 0 0 0 0 0
0.709813 5.45946e-07 2.63851e-07 2.82095e-07 0.516709 0.908605 0 0 0 0 0 0 0 0 0 0 0 0 0 0 0 0 0 0 0 0 0 0 0 0 0 0 0 0 0 0 0 0 0 0 0 0 0 0 0 0 0 0
0.746248 5.48024e-07 2.64845e-07 2.83179e-07 0.516727 0.903433 0 0 0 0 0 0 0 0 0 0 0 0 0 0 0 0 0 0 0 0 0 0 0 0 0 0 0 0 0 0 0 0 0 0 0 0 0 0 0 0 0 0
0.784553 5.50198e-07 2.65887e-07 2.84311e-07 0.516744 0.902732 0 0 0 0 0 0 0 0 0 0 0 0 0 0 0 0 0 0 0 0 0 0 0 0 0 0 0 0 0 0 0 0 0 0 0 0 0 0 0 0 0 0
0.824824 5.52483e-07 2.66988e-07 2.85494e-07 0.516748 0.901581 0 0 0 0 0 0 0 0 0 0 0 0 0 0 0 0 0 0 0 0 0 0 0 0 0 0 0 0 0 0 0 0 0 0 0 0 0 0 0 0 0 0
0.867162 5.54894e-07 2.68141e-07 2.86753e-07 0.51677 0.894378 0 0 0 0 0 0 0 0 0 0 0 0 0 0 0 0 0 0 0 0 0 0 0 0 0 0 0 0 0 0 0 0 0 0 0 0 0 0 0 0 0 0
0.911674 5.57435e-07 2.69382e-07 2.88053e-07 0.516747 0.886002 0 0 0 0 0 0 0 0 0 0 0 0 0 0 0 0 0 0 0 0 0 0 0 0 0 0 0 0 0 0 0 0 0 0 0 0 0 0 0 0 0 0
0.95847 5.60123e-07 2.70712e-07 2.89411e-07 0.516692 0.884586 0 0 0 0 0 0 0 0 0 0 0 0 0 0 0 0 0 0 0 0 0 0 0 0 0 0 0 0 0 0 0 0 0 0 0 0 0 0 0 0 0 0
1.00767 5.62937e-07 2.72129e-07 2.90808e-07 0.516591 0.886859 0 0 0 0 0 0 0 0 0 0 0 0 0 0 0 0 0 0 0 0 0 0 0 0 0 0 0 0 0 0 0 0 0 0 0 0 0 0 0 0 0 0
1.05939 5.66463e-07 2.74297e-07 2.92166e-07 0.515772 0.884914 0 0 0 0 0 0 0 0 0 0 0 0 0 0 0 0 0 0 0 0 0 0 0 0 0 0 0 0 0 0 0 0 0 0 0 0 0 0 0 0 0 0
1.11377 5.70788e-07 2.76521e-07 2.94267e-07 0.515545 0.875533 0 0 0 0 0 0 0 0 0 0 0 0 0 0 0 0 0 0 0 0 0 0 0 0 0 0 0 0 0 0 0 0 0 0 0 0 0 0 0 0 0 0
1.17094 5.78143e-07 2.78467e-07 2.99676e-07 0.518342 0.863148 0 0 0 0 0 0 0 0 0 0 0 0 0 0 0 0 0 0 0 0 0 0 0 0 0 0 0 0 0 0 0 0 0 0 0 0 0 0 0 0 0 0
1.23105 5.90612e-07 2.80823e-07 3.09788e-07 0.524521 0.856339 0 0 0 0 0 0 0 0 0 0 0 0 0 0 0 0 0 0 0 0 0 0 0 0 0 0 0 0 0 0 0 0 0 0 0 0 0 0 0 0 0 0
1.29424 6.02736e-07 2.82996e-07 3.1974e-07 0.530481 0.856954 0 0 0 0 0 0 0 0 0 0 0 0 0 0 0 0 0 0 0 0 0 0 0 0 0 0 0 0 0 0 0 0 0 0 0 0 0 0 0 0 0 0
1.36067 6.09371e-07 2.85317e-07 3.24054e-07 0.531785 0.857317 0 0 0 0 0 0 0 0 0 0 0 0 0 0 0 0 0 0 0 0 0 0 0 0 0 0 0 0 0 0 0 0 0 0 0 0 0 0 0 0 0 0
1.43051 6.09015e-07 2.87771e-07 3.21244e-07 0.527481 0.853136 0 0 0 0 0 0 0 0 0 0 0 0 0 0 0 0 0 0 0 0 0 0 0 0 0 0 0 0 0 0 0 0 0 0 0 0 0 0 0 0 0 0
1.50394 6.04632e-07 2.9019e-07 3.14442e-07 0.520056 0.841967 0 0 0 0 0 0 0 0 0 0 0 0 0 0 0 0 0 0 0 0 0 0 0 0 0 0 0 0 0 0 0 0 0 0 0 0 0 0 0 0 0 0
1.58114 6.00767e-07 2.92488e-07 3.08279e-07 0.513142 0.819175 0 0 0 0 0 0 0 0 0 0 0 0 0 0 0 0 0 0 0 0 0 0 0 0 0 0 0 0 0 0 0 0 0 0 0 0 0 0 0 0 0 0
1.6623 6.01127e-07 2.95163e-07 3.05964e-07 0.508984 0.803593 0 0 0 0 0 0 0 0 0 0 0 0 0 0 0 0 0 0 0 0 0 0 0 0 0 0 0 0 0 0 0 0 0 0 0 0 0 0 0 0 0 0
1.74763 6.05968e-07 2.97634e-07 3.08334e-07 0.508829 0.797254 0 0 0 0 0 0 0 0 0 0 0 0 0 0 0 0 0 0 0 0 0 0 0 0 0 0 0 0 0 0 0 0 0 0 0 0 0 0 0 0 0 0
1.83733 6.1338e-07 3.0027e-07 3.1311e-07 0.510466 0.805165 0 0 0 0 0 0 0 0 0 0 0 0 0 0 0 0 0 0 0 0 0 0 0 0 0 0 0 0 0 0 0 0 0 0 0 0 0 0 0 0 0 0
1.93164 6.21386e-07 3.0292e-07 3.18466e-07 0.512509 0.8207 0 0 0 0 0 0 0 0 0 0 0 0 0 0 0 0 0 0 0 0 0 0 0 0 0 0 0 0 0 0 0 0 0 0 0 0 0 0 0 0 0 0
2.03079 6.26771e-07 3.06115e-07 3.20656e-07 0.5116 0.838965 0 0 0 0 0 0 0 0 0 0 0 0 0 0 0 0 0 0 0 0 0 0 0 0 0 0 0 0 0 0 0 0 0 0 0 0 0 0 0 0 0 0
2.13503 6.28742e-07 3.09034e-07 3.19708e-07 0.508488 0.839073 0 0 0 0 0 0 0 0 0 0 0 0 0 0 0 0 0 0 0 0 0 0 0 0 0 0 0 0 0 0 0 0 0 0 0 0 0 0 0 0 0 0
2.24463 6.28208e-07 3.11888e-07 3.1632e-07 0.503527 0.84455 0 0 0 0 0 0 0 0 0 0 0 0 0 0 0 0 0 0 0 0 0 0 0 0 0 0 0 0 0 0 0 0 0 0 0 0 0 0 0 0 0 0
2.35984 6.27725e-07 3.14591e-07 3.13133e-07 0.498839 0.817505 0 0 0 0 0 0 0 0 0 0 0 0 0 0 0 0 0 0 0 0 0 0 0 0 0 0 0 0 0 0 0 0 0 0 0 0 0 0 0 0 0 0
2.48097 6.27379e-07 3.17599e-07 3.0978e-07 0.493769 0.801 0 0 0 0 0 0 0 0 0 0 0 0 0 0 0 0 0 0 0 0 0 0 0 0 0 0 0 0 0 0 0 0 0 0 0 0 0 0 0 0 0 0
2.60832 6.31562e-07 3.20136e-07 3.11426e-07 0.493105 0.745925 0 0 0 0 0 0 0 0 0 0 0 0 0 0 0 0 0 0 0 0 0 0 0 0 0 0 0 0 0 0 0 0 0 0 0 0 0 0 0 0 0 0
2.74221 6.37865e-07 3.22656e-07 3.1521e-07 0.494163 0.69289 0 0 0 0 0 0 0 0 0 0 0 0 0 0 0 0 0 0 0 0 0 0 0 0 0 0 0 0 0 0 0 0 0 0 0 0 0 0 0 0 0 0
2.88297 6.48748e-07 3.2517e-07 3.23579e-07 0.498774 0.639123 0 0 0 0 0 0 0 0 0 0 0 0 0 0 0 0 0 0 0 0 0 0 0 0 0 0 0 0 0 0 0 0 0 0 0 0 0 0 0 0 0 0
3.03095 6.62451e-07 3.28967e-07 3.33483e-07 0.503409 0.561962 0 0 0 0 0 0 0 0 0 0 0 0 0 0 0 0 0 0 0 0 0 0 0 0 0 0 0 0 0 0 0 0 0 0 0 0 0 0 0 0 0 0
3.18653 6.75679e-07 3.30574e-07 3.45104e-07 0.510752 0.562263 0 0 0 0 0 0 0 0 0 0 0 0 0 0 0 0 0 0 0 0 0 0 0 0 0 0 0 0 0 0 0 0 0 0 0 0 0 0 0 0 0 0
3.35009 6.9343e-07 3.3309e-07 3.60341e-07 0.519649 0.556875 0 0 0 0 0 0 0 0 0 0 0 0 0 0 0 0 0 0 0 0 0 0 0 0 0 0 0 0 0 0 0 0 0 0 0 0 0 0 0 0 0 0
3.52205 7.0158e-07 3.37447e-07 3.64132e-07 0.519018 0.566537 0 0 0 0 0 0 0 0 0 0 0 0 0 0 0 0 0 0 0 0 0 0 0 0 0 0 0 0 0 0 0 0 0 0 0 0 0 0 0 0 0 0
3.70284 7.21016e-07 3.35551e-07 3.85465e-07 0.534613 0.619487 0 0 0 0 0 0 0 0 0 0 0 0 0 0 0 0 0 0 0 0 0 0 0 0 0 0 0 0 0 0 0 0 0 0 0 0 0 0 0 0 0 0
3.89291 7.38907e-07 3.35952e-07 4.02956e-07 0.54534 0.639581 0 0 0 0 0 0 0 0 0 0 0 0 0 0 0 0 0 0 0 0 0 0 0 0 0 0 0 0 0 0 0 0 0 0 0 0 0 0 0 0 0 0
4.09273 7.54912e-07 3.36694e-07 4.18218e-07 0.553996 0.671207 0 0 0 0 0 0 0 0 0 0 0 0 0 0 0 0 0 0 0 0 0 0 0 0 0 0 0 0 0 0 0 0 0 0 0 0 0 0 0 0 0 0
4.30281 7.66226e-07 3.3708e-07 4.29146e-07 0.560078 0.701471 0 0 0 0 0 0 0 0 0 0 0 0 0 0 0 0 0 0 0 0 0 0 0 0 0 0 0 0 0 0 0 0 0 0 0 0 0 0 0 0 0 0
4.52368 7.72578e-07 3.37179e-07 4.35399e-07 0.563566 0.711136 0 0 0 0 0 0 0 0 0 0 0 0 0 0 0 0 0 0 0 0 0 0 0 0 0 0 0 0 0 0 0 0 0 0 0 0 0 0 0 0 0 0
4.75588 7.7454e-07 3.37342e-07 4.37198e-07 0.564461 0.722418 0 0 0 0 0 0 0 0 0 0 0 0 0 0 0 0 0 0 0 0 0 0 0 0 0 0 0 0 0 0 0 0 0 0 0 0 0 0 0 0 0 0
5 7.73098e-07 3.38225e-07 4.34874e-07 0.562508 0.74333 0 0 0 0 0 0 0 0 0 0 0 0 0 0 0 0 0 0 0 0 0 0 0 0 0 0 0 0 0 0 0 0 0 0 0 0 0 0 0 0 0 0
5.25665 7.68523e-07 3.39631e-07 4.28892e-07 0.558074 0.75003 0 0 0 0 0 0 0 0 0 0 0 0 0 0 0 0 0 0 0 0 0 0 0 0 0 0 0 0 0 0 0 0 0 0 0 0 0 0 0 0 0 0
5.52648 7.59861e-07 3.40205e-07 4.19656e-07 0.55228 0.744618 0 0 0 0 0 0 0 0 0 0 0 0 0 0 0 0 0 0 0 0 0 0 0 0 0 0 0 0 0 0 0 0 0 0 0 0 0 0 0 0 0 0
5.81015 7.47132e-07 3.38973e-07 4.08158e-07 0.5463 0.742543 0 0 0 0 0 0 0 0 0 0 0 0 0 0 0 0 0 0 0 0 0 0 0 0 0 0 0 0 0 0 0 0 0 0 0 0 0 0 0 0 0 0
6.10839 7.31327e-07 3.3671e-07 3.94617e-07 0.53959 0.751013 0 0 0 0 0 0 0 0 0 0 0 0 0 0 0 0 0 0 0 0 0 0 0 0 0 0 0 0 0 0 0 0 0 0 0 0 0 0 0 0 0 0
6.42193 7.1356e-07 3.34813e-07 3.78747e-07 0.530785 0.756599 0 0 0 0 0 0 0 0 0 0 0 0 0 0 0 0 0 0 0 0 0 0 0 0 0 0 0 0 0 0 0 0 0 0 0 0 0 0 0 0 0 0
6.75157 6.91648e-07 3.33596e-07 3.58052e-07 0.51768 0.747016 0 0 0 0 0 0 0 0 0 0 0 0 0 0 0 0 0 0 0 0 0 0 0 0 0 0 0 0 0 0 0 0 0 0 0 0 0 0 0 0 0 0
7.09813 6.6857e-07 3.3178e-07 3.3679e-07 0.503747 0.724821 0 0 0 0 0 0 0 0 0 0 0 0 0 0 0 0 0 0 0 0 0 0 0 0 0 0 0 0 0 0 0 0 0 0 0 0 0 0 0 0 0 0
7.46248 6.34194e-07 3.26714e-07 3.0748e-07 0.484836 0.717825 0 0 0 0 0 0 0 0 0 0 0 0 0 0 0 0 0 0 0 0 0 0 0 0 0 0 0 0 0 0 0 0 0 0 0 0 0 0 1.4013e-45 0 4.2039e-45 0
7.84553 5.83753e-07 3.1601e-07 2.67743e-07 0.458658 0.725716 0 0 0 0 0 0 0 0 0 0 0 0 0 0 0 0 0 0 0 0 0 0 0 0 0 0 0 0 1.4013e-45 0 4.2039e-45 0 1.4013e-44 0 4.06377e-44 0 1.14906e-43 0 2.95674e-43 0 7.20267e-43 0
8.24824 5.18182e-07 3.11696e-07 2.06486e-07 0.398482 0.702401 0 0 0 0 0 0 0 0 0 0 0 0 0 0 0 0 0 0 0 0 0 0 2.8026e-45 0 1.4013e-44 0 5.74532e-44 0 2.17201e-43 0 7.44089e-43 0 2.2715e-42 0 6.53986e-42 0 1.74938e-41 0 4.29064e-41 0 1.0019e-40 0
8.67162 4.9416e-07 3.22872e-07 1.71288e-07 0.346624 0.667275 0 0 0 0 0 0 0 0 0 0 0 0 0 0 0 0 1.4013e-45 0 1.4013e-44 0 9.3887e-44 0 5.1848e-43 0 2.36399e-42 0 9.42233e-42 0 3.31183e-41 0 1.07145e-40 0 3.09694e-40 0 8.46569e-40 0 2.15839e-39 0 5.06684e-39 0 1.13515e-38 0
9.11674 5.21841e-07 3.50694e-07 1.71147e-07 0.327969 0.628368 0 0 0 0 0 0 0 0 0 0 0 0 1.4013e-45 0 2.94273e-44 0 3.18095e-43 0 2.49852e-42 0 1.5588e-41 0 7.87572e-41 0 3.33632e-40 0 1.2432e-39 0 4.10963e-39 0 1.25549e-38 0 3.44563e-38 0 8.96756e-38 0 2.18422e-37 0 4.91824e-37 0 1.05931e-36 0
9.5847 5.9423e-07 3.82598e-07 2.11632e-07 0.356145 0.60101 0 0 0 0 0 0 0 0 0 0 1.26117e-44 0 3.39114e-43 0 5.01244e-42 0 4.92809e-41 0 3.50351e-40 0 1.99924e-39 0 9.33307e-39 0 3.68461e-38 0 1.28758e-37 0 4.01497e-37 0 1.16148e-36 0 3.03431e-36 0 7.53676e-36 0 1.75764e-35 0 3.80393e-35 0 7.89182e-35 0
10.0767 6.51489e-07 4.00883e-07 2.50606e-07 0.384667 0.575835 0 0 0 0 0 0 0 0 4.06377e-44 0 2.18182e-42 0 4.99969e-41 0 6.47342e-40 0 5.69313e-39 0 3.67779e-38 0 1.92761e-37 0 8.34657e-37 0 3.08147e-36 0 1.013e-35 0 2.98816e-35 0 8.20747e-35 0 2.04595e-34 0 4.86104e-34 0 1.08773e-33 0 2.267e-33 0 4.53859e-33 0
10.5939 6.79251e-07 4.06327e-07 2.72924e-07 0.401802 0.544343 0 0 0 0 0 0 3.92364e-44 0 6.33947e-42 0 2.81064e-40 0 5.52803e-39 0 6.31633e-38 0 4.99553e-37 0 2.94617e-36 0 1.42418e-35 0 5.74087e-35 0 1.98853e-34 0 6.16806e-34 0 1.72586e-33 0 4.51219e-33 0 1.07574e-32 0 2.45013e-32 0 5.27111e-32 0 1.05989e-31 0 2.05122e-31 0
11.1377 6.96826e-07 4.07166e-07 2.89659e-07 0.415684 0.512315 0 0 0 0 4.2039e-45 0 5.96252e-42 0 7.57747e-40 0 2.79153e-38 0 4.74724e-37 0 4.81599e-36 0 3.44312e-35 0 1.86209e-34 0 8.33485e-34 0 3.13871e-33 0 1.02321e-32 0 3.00315e-32 0 7.9913e-32 0 1.99352e-31 0 4.55529e-31 0 9.96657e-31 0 2.06545e-30 0 4.01386e-30 0 7.52165e-30 0
11.7094 7.06109e-07 4.0348e-07 3.0263e-07 0.428588 0.47828 0 0 0 0 6.89439e-43 0 6.98383e-40 0 7.00525e-38 0 2.16405e-36 0 3.20467e-35 0 2.90335e-34 0 1.88563e-33 0 9.39109e-33 0 3.90691e-32 0 1.37902e-31 0 4.24352e-31 0 1.1817e-30 0 2.99776e-30 0 7.15182e-30 0 1.5696e-29 0 3.30535e-29 0 6.61051e-29 0 1.24364e-28 0 2.26011e-28 0
12.3105 7.01997e-07 3.94613e-07 3.07385e-07 0.437872 0.449239 0 0 0 0 8.74943e-41 0 6.31719e-38 0 5.05989e-36 0 1.32204e-34 0 1.71637e-33 0 1.39636e-32 0 8.27717e-32 0 3.81152e-31 0 1.47907e-30 0 4.90888e-30 0 1.42989e-29 0 3.78765e-29 0 9.18163e-29 0 2.09943e-28 0 4.43413e-28 0 9.00421e-28 0 1.74087e-27 0 3.1756e-27 0 5.60522e-27 0
12.9424 6.56116e-07 3.79475e-07 2.76641e-07 0.421635 0.433365 0 0 6.16571e-44 0 8.49851e-39 0 4.44959e-36 0 2.87736e-34 0 6.41076e-33 0 7.34373e-32 0 5.39328e-31 0 2.93091e-30 0 1.25267e-29 0 4.54963e-29 0 1.42408e-28 0 3.93717e-28 0 9.94479e-28 0 2.30871e-27 0 5.07009e-27 0 1.03245e-26 0 2.02528e-26 0 3.79163e-26 0 6.71645e-26 0 1.15308e-25 0
13.6067 6.1277e-07 3.67721e-07 2.45049e-07 0.399904 0.433054 0 0 8.51009e-42 0 6.55929e-37 0 2.52978e-34 0 1.3346e-32 0 2.55539e-31 0 2.59872e-30 0 1.73148e-29 0 8.66312e-29 0 3.44913e-28 0 1.17625e-27 0 3.48226e-27 0 9.16113e-27 0 2.21163e-26 0 4.92752e-26 0 1.04134e-25 0 2.04818e-25 0 3.88774e-25 0 7.05897e-25 0 1.21599e-24 0 2.03325e-24 0
14.3051 5.67797e-07 3.55696e-07 2.12101e-07 0.373551 0.412587 5.60519e-45 0 9.0607e-40 0 4.0315e-35 0 1.16258e-32 0 5.05364e-31 0 8.37744e-30 0 7.60735e-29 0 4.62037e-28 0 2.13695e-27 0 7.95303e-27 0 2.55452e-26 0 7.17229e-26 0 1.79985e-25 0 4.16209e-25 0 8.91743e-25 0 1.81693e-24 0 3.45756e-24 0 6.36078e-24 0 1.12178e-23 0 1.88176e-23 0 3.06849e-23 0
15.0394 5.30974e-07 3.50041e-07 1.80934e-07 0.340758 0.356136 7.81925e-43 0 7.70652e-38 0 2.03336e-33 0 4.44698e-31 0 1.60792e-29 0 2.32397e-28 0 1.89484e-27 0 1.05382e-26 0 4.52282e-26 0 1.57864e-25 0 4.78978e-25 0 1.27872e-24 0 3.06791e-24 0 6.80994e-24 0 1.40577e-23 0 2.76645e-23 0 5.10164e-23 0 9.11014e-23 0 1.56276e-22 0 2.55612e-22 0 4.06979e-22 0
