# 0.000812916 0 96 : grain size, compostion index, size index
# Heating and cooling timescale: 4.4135e-06 1.32054e+17
# Ratio of heating to cooling to determine stochastic cutoff: 100
# Equilibrium emission is recorded even for those grains in the stochastic regime.
# Emission spectrum was computed for: 
# Type: ISRF
# Scales: 0.25 0.5 1 1.5 2 2.5 3 3.5 4 4.5 5 5.5 6 6.5 7 7.5 8 8.5 9 9.5 10
# StochasticallyHeated: 0 0 0 0 0 0 0 0 0 0 0 0 0 0 0 0 0 0 0 0 0
# Temperature: -1
# Wavelength  CExt  CAbs  CSca  Albedo G EqEm1 StEm1 EqEm2 StEm2 EqEm3 StEm3 EqEm4 StEm4 EqEm5 StEm5 EqEm6 StEm6 EqEm7 StEm7 EqEm8 StEm8 EqEm9 StEm9 EqEm10 StEm10 EqEm11 StEm11 EqEm12 StEm12 EqEm13 StEm13 EqEm14 StEm14 EqEm15 StEm15 EqEm16 StEm16 EqEm17 StEm17 EqEm18 StEm18 EqEm19 StEm19 EqEm20 StEm20 EqEm21 StEm21
0.05 4.17686e-06 1.9683e-06 2.20856e-06 0.528761 0.989918 0 0 0 0 0 0 0 0 0 0 0 0 0 0 0 0 0 0 0 0 0 0 0 0 0 0 0 0 0 0 0 0 0 0 0 0 0 0 0 0 0 0
0.0525665 4.18043e-06 1.931e-06 2.24943e-06 0.538085 0.983279 0 0 0 0 0 0 0 0 0 0 0 0 0 0 0 0 0 0 0 0 0 0 0 0 0 0 0 0 0 0 0 0 0 0 0 0 0 0 0 0 0 0
0.0552647 4.18288e-06 1.91934e-06 2.26354e-06 0.541143 0.979683 0 0 0 0 0 0 0 0 0 0 0 0 0 0 0 0 0 0 0 0 0 0 0 0 0 0 0 0 0 0 0 0 0 0 0 0 0 0 0 0 0 0
0.0581015 4.18495e-06 1.91402e-06 2.27094e-06 0.542643 0.977192 0 0 0 0 0 0 0 0 0 0 0 0 0 0 0 0 0 0 0 0 0 0 0 0 0 0 0 0 0 0 0 0 0 0 0 0 0 0 0 0 0 0
0.0610839 4.18683e-06 1.91124e-06 2.27559e-06 0.543511 0.975336 0 0 0 0 0 0 0 0 0 0 0 0 0 0 0 0 0 0 0 0 0 0 0 0 0 0 0 0 0 0 0 0 0 0 0 0 0 0 0 0 0 0
0.0642193 4.18861e-06 1.9088e-06 2.27982e-06 0.544289 0.973709 0 0 0 0 0 0 0 0 0 0 0 0 0 0 0 0 0 0 0 0 0 0 0 0 0 0 0 0 0 0 0 0 0 0 0 0 0 0 0 0 0 0
0.0675157 4.19036e-06 1.90538e-06 2.28498e-06 0.545294 0.971999 0 0 0 0 0 0 0 0 0 0 0 0 0 0 0 0 0 0 0 0 0 0 0 0 0 0 0 0 0 0 0 0 0 0 0 0 0 0 0 0 0 0
0.0709813 4.19215e-06 1.90076e-06 2.29139e-06 0.546591 0.970035 0 0 0 0 0 0 0 0 0 0 0 0 0 0 0 0 0 0 0 0 0 0 0 0 0 0 0 0 0 0 0 0 0 0 0 0 0 0 0 0 0 0
0.0746248 4.19404e-06 1.89536e-06 2.29867e-06 0.548081 0.967813 0 0 0 0 0 0 0 0 0 0 0 0 0 0 0 0 0 0 0 0 0 0 0 0 0 0 0 0 0 0 0 0 0 0 0 0 0 0 0 0 0 0
0.0784553 4.19599e-06 1.88996e-06 2.30603e-06 0.549579 0.965492 0 0 0 0 0 0 0 0 0 0 0 0 0 0 0 0 0 0 0 0 0 0 0 0 0 0 0 0 0 0 0 0 0 0 0 0 0 0 0 0 0 0
0.0824824 4.19801e-06 1.88474e-06 2.31327e-06 0.55104 0.963134 0 0 0 0 0 0 0 0 0 0 0 0 0 0 0 0 0 0 0 0 0 0 0 0 0 0 0 0 0 0 0 0 0 0 0 0 0 0 0 0 0 0
0.0867162 4.20011e-06 1.87961e-06 2.3205e-06 0.552487 0.960727 0 0 0 0 0 0 0 0 0 0 0 0 0 0 0 0 0 0 0 0 0 0 0 0 0 0 0 0 0 0 0 0 0 0 0 0 0 0 0 0 0 0
0.0911674 4.20229e-06 1.87453e-06 2.32776e-06 0.553927 0.958259 0 0 0 0 0 0 0 0 0 0 0 0 0 0 0 0 0 0 0 0 0 0 0 0 0 0 0 0 0 0 0 0 0 0 0 0 0 0 0 0 0 0
0.095847 4.20456e-06 1.86959e-06 2.33498e-06 0.555343 0.95574 0 0 0 0 0 0 0 0 0 0 0 0 0 0 0 0 0 0 0 0 0 0 0 0 0 0 0 0 0 0 0 0 0 0 0 0 0 0 0 0 0 0
0.100767 4.20695e-06 1.86501e-06 2.34193e-06 0.556682 0.953226 0 0 0 0 0 0 0 0 0 0 0 0 0 0 0 0 0 0 0 0 0 0 0 0 0 0 0 0 0 0 0 0 0 0 0 0 0 0 0 0 0 0
0.105939 4.20943e-06 1.86171e-06 2.34773e-06 0.55773 0.950923 0 0 0 0 0 0 0 0 0 0 0 0 0 0 0 0 0 0 0 0 0 0 0 0 0 0 0 0 0 0 0 0 0 0 0 0 0 0 0 0 0 0
0.111377 4.21195e-06 1.86041e-06 2.35154e-06 0.558301 0.949204 0 0 0 0 0 0 0 0 0 0 0 0 0 0 0 0 0 0 0 0 0 0 0 0 0 0 0 0 0 0 0 0 0 0 0 0 0 0 0 0 0 0
0.117094 4.21442e-06 1.86048e-06 2.35394e-06 0.558545 0.948038 0 0 0 0 0 0 0 0 0 0 0 0 0 0 0 0 0 0 0 0 0 0 0 0 0 0 0 0 0 0 0 0 0 0 0 0 0 0 0 0 0 0
0.123105 4.21698e-06 1.85967e-06 2.35731e-06 0.559004 0.946661 0 0 0 0 0 0 0 0 0 0 0 0 0 0 0 0 0 0 0 0 0 0 0 0 0 0 0 0 0 0 0 0 0 0 0 0 0 0 0 0 0 0
0.129424 4.21967e-06 1.8602e-06 2.35947e-06 0.55916 0.945585 0 0 0 0 0 0 0 0 0 0 0 0 0 0 0 0 0 0 0 0 0 0 0 0 0 0 0 0 0 0 0 0 0 0 0 0 0 0 0 0 0 0
0.136067 4.22224e-06 1.86409e-06 2.35815e-06 0.558507 0.945709 0 0 0 0 0 0 0 0 0 0 0 0 0 0 0 0 0 0 0 0 0 0 0 0 0 0 0 0 0 0 0 0 0 0 0 0 0 0 0 0 0 0
0.143051 4.2248e-06 1.86605e-06 2.35875e-06 0.558311 0.945432 0 0 0 0 0 0 0 0 0 0 0 0 0 0 0 0 0 0 0 0 0 0 0 0 0 0 0 0 0 0 0 0 0 0 0 0 0 0 0 0 0 0
0.150394 4.22756e-06 1.87198e-06 2.35557e-06 0.557195 0.946114 0 0 0 0 0 0 0 0 0 0 0 0 0 0 0 0 0 0 0 0 0 0 0 0 0 0 0 0 0 0 0 0 0 0 0 0 0 0 0 0 0 0
0.158114 4.22934e-06 1.88789e-06 2.34145e-06 0.553621 0.950741 0 0 0 0 0 0 0 0 0 0 0 0 0 0 0 0 0 0 0 0 0 0 0 0 0 0 0 0 0 0 0 0 0 0 0 0 0 0 0 0 0 0
0.16623 4.23051e-06 1.88985e-06 2.34066e-06 0.553281 0.952212 0 0 0 0 0 0 0 0 0 0 0 0 0 0 0 0 0 0 0 0 0 0 0 0 0 0 0 0 0 0 0 0 0 0 0 0 0 0 0 0 0 0
0.174762 4.23246e-06 1.87632e-06 2.35615e-06 0.556684 0.948831 0 0 0 0 0 0 0 0 0 0 0 0 0 0 0 0 0 0 0 0 0 0 0 0 0 0 0 0 0 0 0 0 0 0 0 0 0 0 0 0 0 0
0.183733 4.23519e-06 1.85515e-06 2.38004e-06 0.561968 0.942753 0 0 0 0 0 0 0 0 0 0 0 0 0 0 0 0 0 0 0 0 0 0 0 0 0 0 0 0 0 0 0 0 0 0 0 0 0 0 0 0 0 0
0.193164 4.23882e-06 1.82417e-06 2.41465e-06 0.569652 0.933136 0 0 0 0 0 0 0 0 0 0 0 0 0 0 0 0 0 0 0 0 0 0 0 0 0 0 0 0 0 0 0 0 0 0 0 0 0 0 0 0 0 0
0.203079 4.24359e-06 1.79219e-06 2.4514e-06 0.577671 0.921713 0 0 0 0 0 0 0 0 0 0 0 0 0 0 0 0 0 0 0 0 0 0 0 0 0 0 0 0 0 0 0 0 0 0 0 0 0 0 0 0 0 0
0.213503 4.24847e-06 1.76798e-06 2.4805e-06 0.583856 0.912186 0 0 0 0 0 0 0 0 0 0 0 0 0 0 0 0 0 0 0 0 0 0 0 0 0 0 0 0 0 0 0 0 0 0 0 0 0 0 0 0 0 0
0.224463 4.25346e-06 1.74741e-06 2.50605e-06 0.58918 0.903626 0 0 0 0 0 0 0 0 0 0 0 0 0 0 0 0 0 0 0 0 0 0 0 0 0 0 0 0 0 0 0 0 0 0 0 0 0 0 0 0 0 0
0.235984 4.25858e-06 1.72664e-06 2.53194e-06 0.594551 0.895024 0 0 0 0 0 0 0 0 0 0 0 0 0 0 0 0 0 0 0 0 0 0 0 0 0 0 0 0 0 0 0 0 0 0 0 0 0 0 0 0 0 0
0.248097 4.2643e-06 1.70215e-06 2.56214e-06 0.600836 0.884843 0 0 0 0 0 0 0 0 0 0 0 0 0 0 0 0 0 0 0 0 0 0 0 0 0 0 0 0 0 0 0 0 0 0 0 0 0 0 0 0 0 0
0.260832 4.27034e-06 1.68376e-06 2.58658e-06 0.605709 0.876201 0 0 0 0 0 0 0 0 0 0 0 0 0 0 0 0 0 0 0 0 0 0 0 0 0 0 0 0 0 0 0 0 0 0 0 0 0 0 0 0 0 0
0.274221 4.27653e-06 1.66992e-06 2.60661e-06 0.609515 0.868942 0 0 0 0 0 0 0 0 0 0 0 0 0 0 0 0 0 0 0 0 0 0 0 0 0 0 0 0 0 0 0 0 0 0 0 0 0 0 0 0 0 0
0.288297 4.28275e-06 1.65954e-06 2.62321e-06 0.612507 0.862949 0 0 0 0 0 0 0 0 0 0 0 0 0 0 0 0 0 0 0 0 0 0 0 0 0 0 0 0 0 0 0 0 0 0 0 0 0 0 0 0 0 0
0.303095 4.28914e-06 1.65143e-06 2.63771e-06 0.614973 0.857639 0 0 0 0 0 0 0 0 0 0 0 0 0 0 0 0 0 0 0 0 0 0 0 0 0 0 0 0 0 0 0 0 0 0 0 0 0 0 0 0 0 0
0.318653 4.29561e-06 1.64521e-06 2.6504e-06 0.617001 0.853054 0 0 0 0 0 0 0 0 0 0 0 0 0 0 0 0 0 0 0 0 0 0 0 0 0 0 0 0 0 0 0 0 0 0 0 0 0 0 0 0 0 0
0.335009 4.30224e-06 1.64012e-06 2.66212e-06 0.618776 0.848876 0 0 0 0 0 0 0 0 0 0 0 0 0 0 0 0 0 0 0 0 0 0 0 0 0 0 0 0 0 0 0 0 0 0 0 0 0 0 0 0 0 0
0.352205 4.30901e-06 1.63609e-06 2.67292e-06 0.620309 0.845076 0 0 0 0 0 0 0 0 0 0 0 0 0 0 0 0 0 0 0 0 0 0 0 0 0 0 0 0 0 0 0 0 0 0 0 0 0 0 0 0 0 0
0.370284 4.31598e-06 1.63222e-06 2.68377e-06 0.62182 0.841355 0 0 0 0 0 0 0 0 0 0 0 0 0 0 0 0 0 0 0 0 0 0 0 0 0 0 0 0 0 0 0 0 0 0 0 0 0 0 0 0 0 0
0.389291 4.32313e-06 1.62875e-06 2.69438e-06 0.623248 0.837779 0 0 0 0 0 0 0 0 0 0 0 0 0 0 0 0 0 0 0 0 0 0 0 0 0 0 0 0 0 0 0 0 0 0 0 0 0 0 0 0 0 0
0.409273 4.33054e-06 1.62511e-06 2.70542e-06 0.624732 0.834153 0 0 0 0 0 0 0 0 0 0 0 0 0 0 0 0 0 0 0 0 0 0 0 0 0 0 0 0 0 0 0 0 0 0 0 0 0 0 0 0 0 0
0.430281 4.33818e-06 1.62151e-06 2.71667e-06 0.626223 0.830508 0 0 0 0 0 0 0 0 0 0 0 0 0 0 0 0 0 0 0 0 0 0 0 0 0 0 0 0 0 0 0 0 0 0 0 0 0 0 0 0 0 0
0.452368 4.34603e-06 1.61852e-06 2.72752e-06 0.627588 0.827002 0 0 0 0 0 0 0 0 0 0 0 0 0 0 0 0 0 0 0 0 0 0 0 0 0 0 0 0 0 0 0 0 0 0 0 0 0 0 0 0 0 0
0.475588 4.35407e-06 1.61578e-06 2.73829e-06 0.628903 0.823545 0 0 0 0 0 0 0 0 0 0 0 0 0 0 0 0 0 0 0 0 0 0 0 0 0 0 0 0 0 0 0 0 0 0 0 0 0 0 0 0 0 0
0.5 4.36219e-06 1.61435e-06 2.74784e-06 0.629922 0.820467 0 0 0 0 0 0 0 0 0 0 0 0 0 0 0 0 0 0 0 0 0 0 0 0 0 0 0 0 0 0 0 0 0 0 0 0 0 0 0 0 0 0
0.525665 4.37033e-06 1.61409e-06 2.75624e-06 0.63067 0.817777 0 0 0 0 0 0 0 0 0 0 0 0 0 0 0 0 0 0 0 0 0 0 0 0 0 0 0 0 0 0 0 0 0 0 0 0 0 0 0 0 0 0
0.552648 4.37846e-06 1.61485e-06 2.76361e-06 0.631183 0.815448 0 0 0 0 0 0 0 0 0 0 0 0 0 0 0 0 0 0 0 0 0 0 0 0 0 0 0 0 0 0 0 0 0 0 0 0 0 0 0 0 0 0
0.581015 4.38662e-06 1.61625e-06 2.77037e-06 0.63155 0.813359 0 0 0 0 0 0 0 0 0 0 0 0 0 0 0 0 0 0 0 0 0 0 0 0 0 0 0 0 0 0 0 0 0 0 0 0 0 0 0 0 0 0
0.610839 4.39486e-06 1.61784e-06 2.77702e-06 0.631879 0.811352 0 0 0 0 0 0 0 0 0 0 0 0 0 0 0 0 0 0 0 0 0 0 0 0 0 0 0 0 0 0 0 0 0 0 0 0 0 0 0 0 0 0
0.642193 4.40317e-06 1.61966e-06 2.78351e-06 0.632161 0.809441 0 0 0 0 0 0 0 0 0 0 0 0 0 0 0 0 0 0 0 0 0 0 0 0 0 0 0 0 0 0 0 0 0 0 0 0 0 0 0 0 0 0
0.675157 4.41161e-06 1.62148e-06 2.79013e-06 0.632451 0.807547 0 0 0 0 0 0 0 0 0 0 0 0 0 0 0 0 0 0 0 0 0 0 0 0 0 0 0 0 0 0 0 0 0 0 0 0 0 0 0 0 0 0
0.709813 4.42011e-06 1.62332e-06 2.7968e-06 0.632743 0.80565 0 0 0 0 0 0 0 0 0 0 0 0 0 0 0 0 0 0 0 0 0 0 0 0 0 0 0 0 0 0 0 0 0 0 0 0 0 0 0 0 0 0
0.746248 4.42867e-06 1.62538e-06 2.80329e-06 0.632986 0.803824 0 0 0 0 0 0 0 0 0 0 0 0 0 0 0 0 0 0 0 0 0 0 0 0 0 0 0 0 0 0 0 0 0 0 0 0 0 0 0 0 0 0
0.784553 4.4372e-06 1.62784e-06 2.80936e-06 0.633138 0.802107 0 0 0 0 0 0 0 0 0 0 0 0 0 0 0 0 0 0 0 0 0 0 0 0 0 0 0 0 0 0 0 0 0 0 0 0 0 0 0 0 0 0
0.824824 4.44554e-06 1.63169e-06 2.81385e-06 0.63296 0.800854 0 0 0 0 0 0 0 0 0 0 0 0 0 0 0 0 0 0 0 0 0 0 0 0 0 0 0 0 0 0 0 0 0 0 0 0 0 0 0 0 0 0
0.867162 4.45389e-06 1.63694e-06 2.81695e-06 0.632471 0.800105 0 0 0 0 0 0 0 0 0 0 0 0 0 0 0 0 0 0 0 0 0 0 0 0 0 0 0 0 0 0 0 0 0 0 0 0 0 0 0 0 0 0
0.911674 4.4625e-06 1.64239e-06 2.82011e-06 0.631958 0.799447 0 0 0 0 0 0 0 0 0 0 0 0 0 0 0 0 0 0 0 0 0 0 0 0 0 0 0 0 0 0 0 0 0 0 0 0 0 0 0 0 0 0
0.95847 4.47159e-06 1.6467e-06 2.8249e-06 0.631743 0.7984 0 0 0 0 0 0 0 0 0 0 0 0 0 0 0 0 0 0 0 0 0 0 0 0 0 0 0 0 0 0 0 0 0 0 0 0 0 0 0 0 0 0
1.00767 4.48092e-06 1.65032e-06 2.8306e-06 0.631701 0.797077 0 0 0 0 0 0 0 0 0 0 0 0 0 0 0 0 0 0 0 0 0 0 0 0 0 0 0 0 0 0 0 0 0 0 0 0 0 0 0 0 0 0
1.05939 4.49039e-06 1.65419e-06 2.8362e-06 0.631615 0.795801 0 0 0 0 0 0 0 0 0 0 0 0 0 0 0 0 0 0 0 0 0 0 0 0 0 0 0 0 0 0 0 0 0 0 0 0 0 0 0 0 0 0
1.11377 4.50003e-06 1.65822e-06 2.84181e-06 0.63151 0.794536 0 0 0 0 0 0 0 0 0 0 0 0 0 0 0 0 0 0 0 0 0 0 0 0 0 0 0 0 0 0 0 0 0 0 0 0 0 0 0 0 0 0
1.17094 4.50991e-06 1.66198e-06 2.84792e-06 0.631481 0.793141 0 0 0 0 0 0 0 0 0 0 0 0 0 0 0 0 0 0 0 0 0 0 0 0 0 0 0 0 0 0 0 0 0 0 0 0 0 0 0 0 0 0
1.23105 4.51998e-06 1.66583e-06 2.85415e-06 0.631452 0.791727 0 0 0 0 0 0 0 0 0 0 0 0 0 0 0 0 0 0 0 0 0 0 0 0 0 0 0 0 0 0 0 0 0 0 0 0 0 0 0 0 0 0
1.29424 4.53018e-06 1.67001e-06 2.86016e-06 0.631358 0.790374 0 0 0 0 0 0 0 0 0 0 0 0 0 0 0 0 0 0 0 0 0 0 0 0 0 0 0 0 0 0 0 0 0 0 0 0 0 0 0 0 0 0
1.36067 4.54046e-06 1.67535e-06 2.86511e-06 0.631017 0.789341 0 0 0 0 0 0 0 0 0 0 0 0 0 0 0 0 0 0 0 0 0 0 0 0 0 0 0 0 0 0 0 0 0 0 0 0 0 0 0 0 0 0
1.43051 4.55133e-06 1.68099e-06 2.87034e-06 0.630659 0.788338 0 0 0 0 0 0 0 0 0 0 0 0 0 0 0 0 0 0 0 0 0 0 0 0 0 0 0 0 0 0 0 0 0 0 0 0 0 0 0 0 0 0
1.50394 4.56265e-06 1.68548e-06 2.87717e-06 0.630592 0.786896 0 0 0 0 0 0 0 0 0 0 0 0 0 0 0 0 0 0 0 0 0 0 0 0 0 0 0 0 0 0 0 0 0 0 0 0 0 0 0 0 0 0
1.58114 4.57415e-06 1.68976e-06 2.88438e-06 0.630584 0.78532 0 0 0 0 0 0 0 0 0 0 0 0 0 0 0 0 0 0 0 0 0 0 0 0 0 0 0 0 0 0 0 0 0 0 0 0 0 0 0 0 0 0
1.6623 4.58575e-06 1.69445e-06 2.8913e-06 0.630497 0.783803 0 0 0 0 0 0 0 0 0 0 0 0 0 0 0 0 0 0 0 0 0 0 0 0 0 0 0 0 0 0 0 0 0 0 0 0 0 0 0 0 0 0
1.74763 4.59759e-06 1.69983e-06 2.89776e-06 0.630279 0.782428 0 0 0 0 0 0 0 0 0 0 0 0 0 0 0 0 0 0 0 0 0 0 0 0 0 0 0 0 0 0 0 0 0 0 0 0 0 0 0 0 0 0
1.83733 4.61008e-06 1.70544e-06 2.90464e-06 0.630063 0.781026 0 0 0 0 0 0 0 0 0 0 0 0 0 0 0 0 0 0 0 0 0 0 0 0 0 0 0 0 0 0 0 0 0 0 0 0 0 0 0 0 0 0
1.93164 4.62279e-06 1.70998e-06 2.91281e-06 0.630098 0.779223 0 0 0 0 0 0 0 0 0 0 0 0 0 0 0 0 0 0 0 0 0 0 0 0 0 0 0 0 0 0 0 0 0 0 0 0 0 0 0 0 0 0
2.03079 4.63552e-06 1.71532e-06 2.92019e-06 0.629961 0.777591 0 0 0 0 0 0 0 0 0 0 0 0 0 0 0 0 0 0 0 0 0 0 0 0 0 0 0 0 0 0 0 0 0 0 0 0 0 0 0 0 0 0
2.13503 4.64868e-06 1.7214e-06 2.92728e-06 0.629702 0.776077 0 0 0 0 0 0 0 0 0 0 0 0 0 0 0 0 0 0 0 0 0 0 0 0 0 0 0 0 0 0 0 0 0 0 0 0 0 0 0 0 0 0
2.24463 4.66226e-06 1.72769e-06 2.93457e-06 0.62943 0.774527 0 0 0 0 0 0 0 0 0 0 0 0 0 0 0 0 0 0 0 0 0 0 0 0 0 0 0 0 0 0 0 0 0 0 0 0 0 0 0 0 0 0
2.35984 4.67634e-06 1.73422e-06 2.94212e-06 0.62915 0.77293 0 0 0 0 0 0 0 0 0 0 0 0 0 0 0 0 0 0 0 0 0 0 0 0 0 0 0 0 0 0 0 0 0 0 0 0 0 0 0 0 0 0
2.48097 4.69061e-06 1.7403e-06 2.95031e-06 0.628983 0.771114 0 0 0 0 0 0 0 0 0 0 0 0 0 0 0 0 0 0 0 0 0 0 0 0 0 0 0 0 0 0 0 0 0 0 0 0 0 0 0 0 0 0
2.60832 4.70527e-06 1.74866e-06 2.95661e-06 0.628362 0.769825 0 0 0 0 0 0 0 0 0 0 0 0 0 0 0 0 0 0 0 0 0 0 0 0 0 0 0 0 0 0 0 0 0 0 0 0 0 0 0 0 0 0
2.74221 4.72125e-06 1.7555e-06 2.96575e-06 0.62817 0.767938 0 0 0 0 0 0 0 0 0 0 0 0 0 0 0 0 0 0 0 0 0 0 0 0 0 0 0 0 0 0 0 0 0 0 0 0 0 0 0 0 0 0
2.88297 4.73677e-06 1.76164e-06 2.97513e-06 0.628093 0.765797 0 0 0 0 0 0 0 0 0 0 0 0 0 0 0 0 0 0 0 0 0 0 0 0 0 0 0 0 0 0 0 0 0 0 0 0 0 0 0 0 0 0
3.03095 4.75316e-06 1.76958e-06 2.98358e-06 0.627704 0.763995 0 0 0 0 0 0 0 0 0 0 0 0 0 0 0 0 0 0 0 0 0 0 0 0 0 0 0 0 0 0 0 0 0 0 0 0 0 0 0 0 0 0
3.18653 4.77018e-06 1.77559e-06 2.99459e-06 0.627773 0.761544 0 0 0 0 0 0 0 0 0 0 0 0 0 0 0 0 0 0 0 0 0 0 0 0 0 0 0 0 0 0 0 0 0 0 0 0 0 0 0 0 0 0
3.35009 4.78614e-06 1.78112e-06 3.00502e-06 0.627858 0.75895 0 0 0 0 0 0 0 0 0 0 0 0 0 0 0 0 0 0 0 0 0 0 0 0 0 0 0 0 0 0 0 0 0 0 0 0 0 0 0 0 0 0
3.52205 4.804e-06 1.79008e-06 3.01392e-06 0.627378 0.757012 0 0 0 0 0 0 0 0 0 0 0 0 0 0 0 0 0 0 0 0 0 0 0 0 0 0 0 0 0 0 0 0 0 0 0 0 0 0 0 0 0 0
3.70284 4.82184e-06 1.79717e-06 3.02467e-06 0.627286 0.754491 0 0 0 0 0 0 0 0 0 0 0 0 0 0 0 0 0 0 0 0 0 0 0 0 0 0 0 0 0 0 0 0 0 0 0 0 0 0 0 0 0 0
3.89291 4.83959e-06 1.8034e-06 3.03619e-06 0.627365 0.751664 0 0 0 0 0 0 0 0 0 0 0 0 0 0 0 0 0 0 0 0 0 0 0 0 0 0 0 0 0 0 0 0 0 0 0 0 0 0 0 0 0 0
4.09273 4.85819e-06 1.81093e-06 3.04726e-06 0.627242 0.748993 0 0 0 0 0 0 0 0 0 0 0 0 0 0 0 0 0 0 0 0 0 0 0 0 0 0 0 0 0 0 0 0 0 0 0 0 0 0 0 0 0 0
4.30281 4.87727e-06 1.8208e-06 3.05647e-06 0.626676 0.746727 0 0 0 0 0 0 0 0 0 0 0 0 0 0 0 0 0 0 0 0 0 0 0 0 0 0 0 0 0 0 0 0 0 0 0 0 0 0 0 0 0 0
4.52368 4.89628e-06 1.83047e-06 3.06582e-06 0.626151 0.744288 0 0 0 0 0 0 0 0 0 0 0 0 0 0 0 0 0 0 0 0 0 0 0 0 0 0 0 0 0 0 0 0 0 0 0 0 0 0 0 0 0 0
4.75588 4.91598e-06 1.83973e-06 3.07625e-06 0.625765 0.741564 0 0 0 0 0 0 0 0 0 0 0 0 0 0 0 0 0 0 0 0 0 0 0 0 0 0 0 0 0 0 0 0 0 0 0 0 0 0 0 0 0 0
5 4.93546e-06 1.84943e-06 3.08604e-06 0.625278 0.738802 0 0 0 0 0 0 0 0 0 0 0 0 0 0 0 0 0 0 0 0 0 0 0 0 0 0 0 0 0 0 0 0 0 0 0 0 0 0 0 0 0 0
5.25665 4.95649e-06 1.8633e-06 3.09319e-06 0.624068 0.736735 0 0 0 0 0 0 0 0 0 0 0 0 0 0 0 0 0 0 0 0 0 0 0 0 0 0 0 0 0 0 0 0 0 0 0 0 0 0 0 0 0 0
5.52648 4.97921e-06 1.87913e-06 3.10007e-06 0.622604 0.734798 0 0 0 0 0 0 0 0 0 0 0 0 0 0 0 0 0 0 0 0 0 0 0 0 0 0 0 0 0 0 0 0 0 0 0 0 0 0 0 0 0 0
5.81015 5.00556e-06 1.90081e-06 3.10475e-06 0.62026 0.733733 0 0 0 0 0 0 0 0 0 0 0 0 0 0 0 0 0 0 0 0 0 0 0 0 0 0 0 0 0 0 0 0 0 0 0 0 0 0 0 0 0 0
6.10839 5.03566e-06 1.91679e-06 3.11887e-06 0.619357 0.731002 0 0 0 0 0 0 0 0 0 0 0 0 0 0 0 0 0 0 0 0 0 0 0 0 0 0 0 0 0 0 0 0 0 0 0 0 0 0 0 0 0 0
6.42193 5.06029e-06 1.91235e-06 3.14794e-06 0.622087 0.724103 0 0 0 0 0 0 0 0 0 0 0 0 0 0 0 0 0 0 0 0 0 0 0 0 0 0 0 0 0 0 0 0 0 0 0 0 0 0 0 0 0 0
6.75157 5.08472e-06 1.92064e-06 3.16409e-06 0.622273 0.719771 0 0 0 0 0 0 0 0 0 0 0 0 0 0 0 0 0 0 0 0 0 0 0 0 0 0 0 0 0 0 0 0 0 0 0 0 0 0 0 0 0 0
7.09813 5.11331e-06 1.9313e-06 3.18201e-06 0.6223 0.715446 0 0 0 0 0 0 0 0 0 0 0 0 0 0 0 0 0 0 0 0 0 0 0 0 0 0 0 0 0 0 0 0 0 0 0 0 0 0 0 0 0 0
7.46248 5.13886e-06 1.9286e-06 3.21026e-06 0.624702 0.708607 0 0 0 0 0 0 0 0 0 0 0 0 0 0 0 0 0 0 0 0 0 0 0 0 0 0 0 0 0 0 0 0 0 0 0 0 0 0 0 0 0 0
7.84553 5.16275e-06 1.92916e-06 3.23359e-06 0.626331 0.702286 0 0 0 0 0 0 0 0 0 0 0 0 0 0 0 0 0 0 0 0 0 0 0 0 0 0 0 0 0 0 0 0 0 0 0 0 0 0 0 0 0 0
8.24824 5.18391e-06 1.92463e-06 3.25928e-06 0.628731 0.694887 0 0 0 0 0 0 0 0 0 0 0 0 0 0 0 0 0 0 0 0 0 0 0 0 0 0 0 0 0 0 0 0 0 0 0 0 0 0 0 0 0 0
8.67162 5.20485e-06 1.92371e-06 3.28114e-06 0.630401 0.688164 0 0 0 0 0 0 0 0 0 0 0 0 0 0 0 0 0 0 0 0 0 0 0 0 0 0 0 0 0 0 0 0 0 0 0 0 0 0 0 0 0 0
9.11674 5.22622e-06 1.92813e-06 3.2981e-06 0.631067 0.682067 0 0 0 0 0 0 0 0 0 0 0 0 0 0 0 0 0 0 0 0 0 0 0 0 0 0 0 0 0 0 0 0 0 0 0 0 0 0 0 0 0 0
9.5847 5.2448e-06 1.93465e-06 3.31015e-06 0.631129 0.675891 0 0 0 0 0 0 0 0 0 0 0 0 0 0 0 0 0 0 0 0 0 0 0 0 0 0 0 0 0 0 0 0 0 0 0 0 0 0 0 0 0 0
10.0767 5.26692e-06 1.94741e-06 3.31951e-06 0.630256 0.670477 0 0 0 0 0 0 0 0 0 0 0 0 0 0 0 0 0 0 0 0 0 0 0 0 0 0 0 0 0 0 0 0 0 0 0 0 0 0 0 0 0 0
10.5939 5.29756e-06 1.97098e-06 3.32659e-06 0.627946 0.666407 0 0 0 0 0 0 0 0 0 0 0 0 0 0 0 0 0 0 0 0 0 0 0 0 0 0 0 0 0 0 0 0 0 0 0 0 0 0 0 0 0 0
11.1377 5.32992e-06 1.98799e-06 3.34193e-06 0.627013 0.660567 0 0 0 0 0 0 0 0 0 0 0 0 0 0 0 0 0 0 0 0 0 0 0 0 0 0 0 0 0 0 0 0 0 0 0 0 0 0 0 0 0 0
11.7094 5.35148e-06 1.9907e-06 3.36078e-06 0.628009 0.65202 0 0 0 0 0 0 0 0 0 0 0 0 0 0 0 0 0 0 0 0 0 0 0 0 0 0 0 0 0 0 0 0 0 0 0 0 0 0 0 0 0 0
12.3105 5.37668e-06 1.99825e-06 3.37842e-06 0.628348 0.643967 0 0 0 0 0 0 0 0 0 0 0 0 0 0 0 0 0 0 0 0 0 0 0 0 0 0 0 0 0 0 0 0 0 0 0 0 0 0 0 0 0 0
12.9424 5.41723e-06 2.01996e-06 3.39727e-06 0.627123 0.637762 0 0 0 0 0 0 0 0 0 0 0 0 0 0 0 0 0 0 0 0 0 0 0 0 0 0 0 0 0 0 0 0 0 0 0 0 1.4013e-45 0 2.8026e-45 0 5.60519e-45 0
13.6067 5.43845e-06 2.01736e-06 3.42109e-06 0.629056 0.62786 0 0 0 0 0 0 0 0 0 0 0 0 0 0 0 0 0 0 0 0 0 0 0 0 0 0 1.4013e-45 0 2.8026e-45 0 8.40779e-45 0 2.52234e-44 0 6.86636e-44 0 1.76564e-43 0 4.30199e-43 0 1.00333e-42 0
14.3051 5.46254e-06 2.03413e-06 3.42841e-06 0.627621 0.619303 0 0 0 0 0 0 0 0 0 0 0 0 0 0 0 0 0 0 0 0 1.4013e-45 0 8.40779e-45 0 3.78351e-44 0 1.41531e-43 0 4.82047e-43 0 1.45175e-42 0 4.01472e-42 0 1.057e-41 0 2.57699e-41 0 6.01059e-41 0 1.34364e-40 0
15.0394 5.48416e-06 2.04806e-06 3.43611e-06 0.626551 0.609156 0 0 0 0 0 0 0 0 0 0 0 0 0 0 1.4013e-45 0 8.40779e-45 0 5.88545e-44 0 3.237e-43 0 1.48117e-42 0 5.89947e-42 0 2.06551e-41 0 6.60572e-41 0 1.88298e-40 0 4.95656e-40 0 1.24464e-39 0 2.9053e-39 0 6.50189e-39 0 1.39748e-38 0
15.8114 5.5133e-06 2.0591e-06 3.4542e-06 0.626521 0.598294 0 0 0 0 0 0 0 0 0 0 0 0 1.4013e-44 0 1.66755e-43 0 1.39709e-42 0 8.82958e-42 0 4.46215e-41 0 1.8944e-40 0 7.05282e-40 0 2.32282e-39 0 7.0186e-39 0 1.90092e-38 0 4.77285e-38 0 1.14583e-37 0 2.5662e-37 0 5.52152e-37 0 1.14324e-36 0
16.623 5.55523e-06 2.07126e-06 3.48397e-06 0.627151 0.58793 0 0 0 0 0 0 0 0 2.8026e-45 0 1.17709e-43 0 2.1608e-42 0 2.35054e-41 0 1.77207e-40 0 1.02323e-39 0 4.77778e-39 0 1.89014e-38 0 6.59949e-38 0 2.05064e-37 0 5.87053e-37 0 1.51448e-36 0 3.63544e-36 0 8.36235e-36 0 1.80054e-35 0 3.73185e-35 0 7.45714e-35 0
17.4762 5.59623e-06 2.09193e-06 3.5043e-06 0.62619 0.578688 0 0 0 0 0 0 5.60519e-45 0 5.24086e-43 0 1.66797e-41 0 2.6616e-40 0 2.57644e-39 0 1.7599e-38 0 9.32826e-38 0 4.03997e-37 0 1.49447e-36 0 4.90896e-36 0 1.44321e-35 0 3.92478e-35 0 9.66734e-35 0 2.22347e-34 0 4.91066e-34 0 1.01848e-33 0 2.03714e-33 0 3.9354e-33 0
18.3733 5.61954e-06 2.10525e-06 3.51429e-06 0.625369 0.567313 0 0 0 0 1.4013e-45 0 8.15556e-43 0 6.81017e-41 0 1.83096e-39 0 2.55203e-38 0 2.2112e-37 0 1.37516e-36 0 6.71898e-36 0 2.70895e-35 0 9.40093e-35 0 2.91378e-34 0 8.12697e-34 0 2.10476e-33 0 4.96112e-33 0 1.09558e-32 0 2.32783e-32 0 4.65903e-32 0 9.00873e-32 0 1.68527e-31 0
19.3164 5.63116e-06 2.12176e-06 3.5094e-06 0.623211 0.55369 0 0 0 0 2.01787e-43 0 1.0261e-40 0 6.90649e-39 0 1.58118e-37 0 1.93787e-36 0 1.51106e-35 0 8.59517e-35 0 3.88657e-34 0 1.46387e-33 0 4.78067e-33 0 1.40213e-32 0 3.71972e-32 0 9.19614e-32 0 2.07875e-31 0 4.41639e-31 0 9.0447e-31 0 1.74995e-30 0 3.27652e-30 0 5.94482e-30 0
20.3079 5.64627e-06 2.13298e-06 3.51329e-06 0.622232 0.536679 0 0 0 0 2.68152e-41 0 1.00543e-38 0 5.51016e-37 0 1.08268e-35 0 1.1741e-34 0 8.28162e-34 0 4.3274e-33 0 1.81779e-32 0 6.41741e-32 0 1.97812e-31 0 5.50473e-31 0 1.39242e-30 0 3.29362e-30 0 7.15446e-30 0 1.46509e-29 0 2.89728e-29 0 5.42785e-29 0 9.85633e-29 0 1.73704e-28 0
