# 4.217e-06 0 83 : grain size, compostion index, size index
# Heating and cooling timescale: 0.652488 19867.1
# Ratio of heating to cooling to determine stochastic cutoff: 100
# Equilibrium emission is recorded even for those grains in the stochastic regime.
# Emission spectrum was computed for: 
# Type: IRSF
# Scales: 0.25 0.5 1 1.5 2 2.5 3 3.5 4 4.5 5 5.5 6 6.5 7 7.5 8 8.5 9 9.5 10
# StochasticallyHeated: 0 0 0 0 0 0 0 0 0 0 0 0 0 0 0 0 0 0 0 0 0
# Temperature: -1
# Wavelength  CExt  CAbs  CSca  Albedo G EqEm1 StEm1 EqEm2 StEm2 EqEm3 StEm3 EqEm4 StEm4 EqEm5 StEm5 EqEm6 StEm6 EqEm7 StEm7 EqEm8 StEm8 EqEm9 StEm9 EqEm10 StEm10 EqEm11 StEm11 EqEm12 StEm12 EqEm13 StEm13 EqEm14 StEm14 EqEm15 StEm15 EqEm16 StEm16 EqEm17 StEm17 EqEm18 StEm18 EqEm19 StEm19 EqEm20 StEm20 EqEm21 StEm21
0.05 4.05136e-11 2.04742e-11 2.00394e-11 0.494634 0.00576547 0 0 0 0 0 0 0 0 0 0 0 0 0 0 0 0 0 0 0 0 0 0 0 0 0 0 0 0 0 0 0 0 0 0 0 0 0 0 0 0 0 0
0.0525665 4.47795e-11 2.26301e-11 2.21495e-11 0.494634 0.00637255 0 0 0 0 0 0 0 0 0 0 0 0 0 0 0 0 0 0 0 0 0 0 0 0 0 0 0 0 0 0 0 0 0 0 0 0 0 0 0 0 0 0
0.0552647 4.94946e-11 2.50129e-11 2.44817e-11 0.494634 0.00704355 0 0 0 0 0 0 0 0 0 0 0 0 0 0 0 0 0 0 0 0 0 0 0 0 0 0 0 0 0 0 0 0 0 0 0 0 0 0 0 0 0 0
0.0581015 5.47061e-11 2.76466e-11 2.70595e-11 0.494634 0.0077852 0 0 0 0 0 0 0 0 0 0 0 0 0 0 0 0 0 0 0 0 0 0 0 0 0 0 0 0 0 0 0 0 0 0 0 0 0 0 0 0 0 0
0.0610839 6.04664e-11 3.05577e-11 2.99088e-11 0.494634 0.00860494 0 0 0 0 0 0 0 0 0 0 0 0 0 0 0 0 0 0 0 0 0 0 0 0 0 0 0 0 0 0 0 0 0 0 0 0 0 0 0 0 0 0
0.0642193 6.68332e-11 3.37752e-11 3.3058e-11 0.494634 0.009511 0 0 0 0 0 0 0 0 0 0 0 0 0 0 0 0 0 0 0 0 0 0 0 0 0 0 0 0 0 0 0 0 0 0 0 0 0 0 0 0 0 0
0.0675157 7.38705e-11 3.73316e-11 3.65389e-11 0.494634 0.0105125 0 0 0 0 0 0 0 0 0 0 0 0 0 0 0 0 0 0 0 0 0 0 0 0 0 0 0 0 0 0 0 0 0 0 0 0 0 0 0 0 0 0
0.0709813 8.16487e-11 4.12625e-11 4.03862e-11 0.494634 0.0116194 0 0 0 0 0 0 0 0 0 0 0 0 0 0 0 0 0 0 0 0 0 0 0 0 0 0 0 0 0 0 0 0 0 0 0 0 0 0 0 0 0 0
0.0746248 9.02459e-11 4.56072e-11 4.46387e-11 0.494634 0.0128428 0 0 0 0 0 0 0 0 0 0 0 0 0 0 0 0 0 0 0 0 0 0 0 0 0 0 0 0 0 0 0 0 0 0 0 0 0 0 0 0 0 0
0.0784553 9.97483e-11 5.04094e-11 4.93389e-11 0.494634 0.0141951 0 0 0 0 0 0 0 0 0 0 0 0 0 0 0 0 0 0 0 0 0 0 0 0 0 0 0 0 0 0 0 0 0 0 0 0 0 0 0 0 0 0
0.0824824 1.10251e-10 5.57173e-11 5.45341e-11 0.494634 0.0156898 0 0 0 0 0 0 0 0 0 0 0 0 0 0 0 0 0 0 0 0 0 0 0 0 0 0 0 0 0 0 0 0 0 0 0 0 0 0 0 0 0 0
0.0867162 1.2186e-10 6.15841e-11 6.02763e-11 0.494634 0.0173419 0 0 0 0 0 0 0 0 0 0 0 0 0 0 0 0 0 0 0 0 0 0 0 0 0 0 0 0 0 0 0 0 0 0 0 0 0 0 0 0 0 0
0.0911674 1.34692e-10 6.80686e-11 6.66231e-11 0.494634 0.0191679 0 0 0 0 0 0 0 0 0 0 0 0 0 0 0 0 0 0 0 0 0 0 0 0 0 0 0 0 0 0 0 0 0 0 0 0 0 0 0 0 0 0
0.095847 1.48874e-10 7.52358e-11 7.36382e-11 0.494634 0.0211862 0 0 0 0 0 0 0 0 0 0 0 0 0 0 0 0 0 0 0 0 0 0 0 0 0 0 0 0 0 0 0 0 0 0 0 0 0 0 0 0 0 0
0.100767 1.61933e-10 8.23584e-11 7.95745e-11 0.491404 0.0235692 0 0 0 0 0 0 0 0 0 0 0 0 0 0 0 0 0 0 0 0 0 0 0 0 0 0 0 0 0 0 0 0 0 0 0 0 0 0 0 0 0 0
0.105939 1.61898e-10 8.52006e-11 7.6697e-11 0.473738 0.0256046 0 0 0 0 0 0 0 0 0 0 0 0 0 0 0 0 0 0 0 0 0 0 0 0 0 0 0 0 0 0 0 0 0 0 0 0 0 0 0 0 0 0
0.111377 1.63622e-10 8.64208e-11 7.72012e-11 0.471827 0.0289403 0 0 0 0 0 0 0 0 0 0 0 0 0 0 0 0 0 0 0 0 0 0 0 0 0 0 0 0 0 0 0 0 0 0 0 0 0 0 0 0 0 0
0.117094 1.72035e-10 8.94277e-11 8.26069e-11 0.480176 0.0274507 0 0 0 0 0 0 0 0 0 0 0 0 0 0 0 0 0 0 0 0 0 0 0 0 0 0 0 0 0 0 0 0 0 0 0 0 0 0 0 0 0 0
0.123105 1.88672e-10 8.90838e-11 9.9588e-11 0.527837 0.0236555 0 0 0 0 0 0 0 0 0 0 0 0 0 0 0 0 0 0 0 0 0 0 0 0 0 0 0 0 0 0 0 0 0 0 0 0 0 0 0 0 0 0
0.129424 1.81921e-10 8.06781e-11 1.01243e-10 0.556521 0.0199126 0 0 0 0 0 0 0 0 0 0 0 0 0 0 0 0 0 0 0 0 0 0 0 0 0 0 0 0 0 0 0 0 0 0 0 0 0 0 0 0 0 0
0.136067 1.56653e-10 6.99269e-11 8.6726e-11 0.553619 0.0168557 0 0 0 0 0 0 0 0 0 0 0 0 0 0 0 0 0 0 0 0 0 0 0 0 0 0 0 0 0 0 0 0 0 0 0 0 0 0 0 0 0 0
0.143051 1.30952e-10 6.47485e-11 6.62034e-11 0.505555 0.0143876 0 0 0 0 0 0 0 0 0 0 0 0 0 0 0 0 0 0 0 0 0 0 0 0 0 0 0 0 0 0 0 0 0 0 0 0 0 0 0 0 0 0
0.150394 1.07648e-10 6.18794e-11 4.57681e-11 0.425167 0.0122986 0 0 0 0 0 0 0 0 0 0 0 0 0 0 0 0 0 0 0 0 0 0 0 0 0 0 0 0 0 0 0 0 0 0 0 0 0 0 0 0 0 0
0.158114 9.12299e-11 6.05429e-11 3.0687e-11 0.33637 0.01055 0 0 0 0 0 0 0 0 0 0 0 0 0 0 0 0 0 0 0 0 0 0 0 0 0 0 0 0 0 0 0 0 0 0 0 0 0 0 0 0 0 0
0.16623 8.39083e-11 6.1594e-11 2.23144e-11 0.265938 0.00908216 0 0 0 0 0 0 0 0 0 0 0 0 0 0 0 0 0 0 0 0 0 0 0 0 0 0 0 0 0 0 0 0 0 0 0 0 0 0 0 0 0 0
0.174762 8.38885e-11 6.45185e-11 1.93699e-11 0.230901 0.00782097 0 0 0 0 0 0 0 0 0 0 0 0 0 0 0 0 0 0 0 0 0 0 0 0 0 0 0 0 0 0 0 0 0 0 0 0 0 0 0 0 0 0
0.183733 8.95807e-11 6.90381e-11 2.05427e-11 0.22932 0.00667218 0 0 0 0 0 0 0 0 0 0 0 0 0 0 0 0 0 0 0 0 0 0 0 0 0 0 0 0 0 0 0 0 0 0 0 0 0 0 0 0 0 0
0.193164 1.02776e-10 7.62315e-11 2.65447e-11 0.258277 0.00556038 0 0 0 0 0 0 0 0 0 0 0 0 0 0 0 0 0 0 0 0 0 0 0 0 0 0 0 0 0 0 0 0 0 0 0 0 0 0 0 0 0 0
0.203079 1.23363e-10 8.60688e-11 3.72943e-11 0.302313 0.00446034 0 0 0 0 0 0 0 0 0 0 0 0 0 0 0 0 0 0 0 0 0 0 0 0 0 0 0 0 0 0 0 0 0 0 0 0 0 0 0 0 0 0
0.213503 1.47573e-10 9.62974e-11 5.12759e-11 0.347461 0.00342932 0 0 0 0 0 0 0 0 0 0 0 0 0 0 0 0 0 0 0 0 0 0 0 0 0 0 0 0 0 0 0 0 0 0 0 0 0 0 0 0 0 0
0.224463 1.6796e-10 1.02243e-10 6.57163e-11 0.391262 0.00254317 0 0 0 0 0 0 0 0 0 0 0 0 0 0 0 0 0 0 0 0 0 0 0 0 0 0 0 0 0 0 0 0 0 0 0 0 0 0 0 0 0 0
0.235984 1.80258e-10 1.02616e-10 7.76422e-11 0.430728 0.00182186 0 0 0 0 0 0 0 0 0 0 0 0 0 0 0 0 0 0 0 0 0 0 0 0 0 0 0 0 0 0 0 0 0 0 0 0 0 0 0 0 0 0
0.248097 1.86071e-10 1.0102e-10 8.50505e-11 0.457087 0.00138916 0 0 0 0 0 0 0 0 0 0 0 0 0 0 0 0 0 0 0 0 0 0 0 0 0 0 0 0 0 0 0 0 0 0 0 0 0 0 0 0 0 0
0.260832 1.85668e-10 9.94108e-11 8.62575e-11 0.464578 0.00141961 0 0 0 0 0 0 0 0 0 0 0 0 0 0 0 0 0 0 0 0 0 0 0 0 0 0 0 0 0 0 0 0 0 0 0 0 0 0 0 0 0 0
0.274221 1.79371e-10 9.81712e-11 8.11999e-11 0.452692 0.00187131 0 0 0 0 0 0 0 0 0 0 0 0 0 0 0 0 0 0 0 0 0 0 0 0 0 0 0 0 0 0 0 0 0 0 0 0 0 0 0 0 0 0
0.288297 1.6907e-10 9.69259e-11 7.21437e-11 0.42671 0.00251556 0 0 0 0 0 0 0 0 0 0 0 0 0 0 0 0 0 0 0 0 0 0 0 0 0 0 0 0 0 0 0 0 0 0 0 0 0 0 0 0 0 0
0.303095 1.53799e-10 9.29042e-11 6.08953e-11 0.395939 0.0028362 0 0 0 0 0 0 0 0 0 0 0 0 0 0 0 0 0 0 0 0 0 0 0 0 0 0 0 0 0 0 0 0 0 0 0 0 0 0 0 0 0 0
0.318653 1.33011e-10 8.42335e-11 4.87778e-11 0.366719 0.00297223 0 0 0 0 0 0 0 0 0 0 0 0 0 0 0 0 0 0 0 0 0 0 0 0 0 0 0 0 0 0 0 0 0 0 0 0 0 0 0 0 0 0
0.335009 1.12028e-10 7.3992e-11 3.8036e-11 0.339522 0.00293231 0 0 0 0 0 0 0 0 0 0 0 0 0 0 0 0 0 0 0 0 0 0 0 0 0 0 0 0 0 0 0 0 0 0 0 0 0 0 0 0 0 0
0.352205 9.54151e-11 6.56339e-11 2.97812e-11 0.312123 0.00278811 0 0 0 0 0 0 0 0 0 0 0 0 0 0 0 0 0 0 0 0 0 0 0 0 0 0 0 0 0 0 0 0 0 0 0 0 0 0 0 0 0 0
0.370284 8.32812e-11 5.95492e-11 2.3732e-11 0.284963 0.00261033 0 0 0 0 0 0 0 0 0 0 0 0 0 0 0 0 0 0 0 0 0 0 0 0 0 0 0 0 0 0 0 0 0 0 0 0 0 0 0 0 0 0
0.389291 7.41364e-11 5.48845e-11 1.92519e-11 0.259682 0.00243645 0 0 0 0 0 0 0 0 0 0 0 0 0 0 0 0 0 0 0 0 0 0 0 0 0 0 0 0 0 0 0 0 0 0 0 0 0 0 0 0 0 0
0.409273 6.66323e-11 5.08324e-11 1.57999e-11 0.23712 0.00226652 0 0 0 0 0 0 0 0 0 0 0 0 0 0 0 0 0 0 0 0 0 0 0 0 0 0 0 0 0 0 0 0 0 0 0 0 0 0 0 0 0 0
0.430281 6.00152e-11 4.69868e-11 1.30285e-11 0.217086 0.00210471 0 0 0 0 0 0 0 0 0 0 0 0 0 0 0 0 0 0 0 0 0 0 0 0 0 0 0 0 0 0 0 0 0 0 0 0 0 0 0 0 0 0
0.452368 5.39759e-11 4.32368e-11 1.07391e-11 0.198962 0.00193723 0 0 0 0 0 0 0 0 0 0 0 0 0 0 0 0 0 0 0 0 0 0 0 0 0 0 0 0 0 0 0 0 0 0 0 0 0 0 0 0 0 0
0.475588 4.84661e-11 3.96379e-11 8.82821e-12 0.182152 0.00177642 0 0 0 0 0 0 0 0 0 0 0 0 0 0 0 0 0 0 0 0 0 0 0 0 0 0 0 0 0 0 0 0 0 0 0 0 0 0 0 0 0 0
0.5 4.35201e-11 3.62846e-11 7.23543e-12 0.166255 0.00162159 0 0 0 0 0 0 0 0 0 0 0 0 0 0 0 0 0 0 0 0 0 0 0 0 0 0 0 0 0 0 0 0 0 0 0 0 0 0 0 0 0 0
0.525665 3.91692e-11 3.32511e-11 5.91816e-12 0.151092 0.0014751 0 0 0 0 0 0 0 0 0 0 0 0 0 0 0 0 0 0 0 0 0 0 0 0 0 0 0 0 0 0 0 0 0 0 0 0 0 0 0 0 0 0
0.552648 3.54028e-11 3.05656e-11 4.83727e-12 0.136635 0.00134175 0 0 0 0 0 0 0 0 0 0 0 0 0 0 0 0 0 0 0 0 0 0 0 0 0 0 0 0 0 0 0 0 0 0 0 0 0 0 0 0 0 0
0.581015 3.2175e-11 2.82191e-11 3.95593e-12 0.12295 0.00121775 0 0 0 0 0 0 0 0 0 0 0 0 0 0 0 0 0 0 0 0 0 0 0 0 0 0 0 0 0 0 0 0 0 0 0 0 0 0 0 0 0 0
0.610839 2.94143e-11 2.61743e-11 3.24e-12 0.11015 0.00110516 0 0 0 0 0 0 0 0 0 0 0 0 0 0 0 0 0 0 0 0 0 0 0 0 0 0 0 0 0 0 0 0 0 0 0 0 0 0 0 0 0 0
0.642193 2.7046e-11 2.43866e-11 2.65948e-12 0.0983314 0.00100302 0 0 0 0 0 0 0 0 0 0 0 0 0 0 0 0 0 0 0 0 0 0 0 0 0 0 0 0 0 0 0 0 0 0 0 0 0 0 0 0 0 0
0.675157 2.49931e-11 2.28047e-11 2.18844e-12 0.0875617 0.000910957 0 0 0 0 0 0 0 0 0 0 0 0 0 0 0 0 0 0 0 0 0 0 0 0 0 0 0 0 0 0 0 0 0 0 0 0 0 0 0 0 0 0
0.709813 2.31888e-11 2.13834e-11 1.80536e-12 0.0778551 0.00082817 0 0 0 0 0 0 0 0 0 0 0 0 0 0 0 0 0 0 0 0 0 0 0 0 0 0 0 0 0 0 0 0 0 0 0 0 0 0 0 0 0 0
0.746248 2.15755e-11 2.00826e-11 1.4929e-12 0.0691944 0.000754183 0 0 0 0 0 0 0 0 0 0 0 0 0 0 0 0 0 0 0 0 0 0 0 0 0 0 0 0 0 0 0 0 0 0 0 0 0 0 0 0 0 0
0.784553 2.01108e-11 1.88738e-11 1.237e-12 0.0615096 0.000686995 0 0 0 0 0 0 0 0 0 0 0 0 0 0 0 0 0 0 0 0 0 0 0 0 0 0 0 0 0 0 0 0 0 0 0 0 0 0 0 0 0 0
0.824824 1.87588e-11 1.77321e-11 1.02672e-12 0.054733 0.000626788 0 0 0 0 0 0 0 0 0 0 0 0 0 0 0 0 0 0 0 0 0 0 0 0 0 0 0 0 0 0 0 0 0 0 0 0 0 0 0 0 0 0
0.867162 1.7495e-11 1.66419e-11 8.53088e-13 0.0487619 0.000572518 0 0 0 0 0 0 0 0 0 0 0 0 0 0 0 0 0 0 0 0 0 0 0 0 0 0 0 0 0 0 0 0 0 0 0 0 0 0 0 0 0 0
0.911674 1.63043e-11 1.55949e-11 7.09364e-13 0.0435078 0.000523427 0 0 0 0 0 0 0 0 0 0 0 0 0 0 0 0 0 0 0 0 0 0 0 0 0 0 0 0 0 0 0 0 0 0 0 0 0 0 0 0 0 0
0.95847 1.51734e-11 1.45834e-11 5.90043e-13 0.0388866 0.00047944 0 0 0 0 0 0 0 0 0 0 0 0 0 0 0 0 0 0 0 0 0 0 0 0 0 0 0 0 0 0 0 0 0 0 0 0 0 0 0 0 0 0
1.00767 1.41003e-11 1.36095e-11 4.90807e-13 0.0348084 0.0004395 0 0 0 0 0 0 0 0 0 0 0 0 0 0 0 0 0 0 0 0 0 0 0 0 0 0 0 0 0 0 0 0 0 0 0 0 0 0 0 0 0 0
1.05939 1.30828e-11 1.26747e-11 4.08121e-13 0.0311952 0.000403275 0 0 0 0 0 0 0 0 0 0 0 0 0 0 0 0 0 0 0 0 0 0 0 0 0 0 0 0 0 0 0 0 0 0 0 0 0 0 0 0 0 0
1.11377 1.20981e-11 1.1759e-11 3.39061e-13 0.028026 0.000370298 0 0 0 0 0 0 0 0 0 0 0 0 0 0 0 0 0 0 0 0 0 0 0 0 0 0 0 0 0 0 0 0 0 0 0 0 0 0 0 0 0 0
1.17094 1.11733e-11 1.08917e-11 2.81609e-13 0.0252039 0.000339515 0 0 0 0 0 0 0 0 0 0 0 0 0 0 0 0 0 0 0 0 0 0 0 0 0 0 0 0 0 0 0 0 0 0 0 0 0 0 0 0 0 0
1.23105 1.02989e-11 1.00653e-11 2.33628e-13 0.0226847 0.000311294 0 0 0 0 0 0 0 0 0 0 0 0 0 0 0 0 0 0 0 0 0 0 0 0 0 0 0 0 0 0 0 0 0 0 0 0 0 0 0 0 0 0
1.29424 9.47495e-12 9.28127e-12 1.9368e-13 0.0204412 0.000285362 0 0 0 0 0 0 0 0 0 0 0 0 0 0 0 0 0 0 0 0 0 0 0 0 0 0 0 0 0 0 0 0 0 0 0 0 0 0 0 0 0 0
1.36067 8.69995e-12 8.53955e-12 1.60406e-13 0.0184375 0.000261742 0 0 0 0 0 0 0 0 0 0 0 0 0 0 0 0 0 0 0 0 0 0 0 0 0 0 0 0 0 0 0 0 0 0 0 0 0 0 0 0 0 0
1.43051 7.97535e-12 7.84266e-12 1.3269e-13 0.0166375 0.000240209 0 0 0 0 0 0 0 0 0 0 0 0 0 0 0 0 0 0 0 0 0 0 0 0 0 0 0 0 0 0 0 0 0 0 0 0 0 0 0 0 0 0
1.50394 7.30094e-12 7.19125e-12 1.09683e-13 0.0150232 0.000220279 0 0 0 0 0 0 0 0 0 0 0 0 0 0 0 0 0 0 0 0 0 0 0 0 0 0 0 0 0 0 0 0 0 0 0 0 0 0 0 0 0 0
1.58114 6.67511e-12 6.58452e-12 9.05907e-14 0.0135714 0.000201732 0 0 0 0 0 0 0 0 0 0 0 0 0 0 0 0 0 0 0 0 0 0 0 0 0 0 0 0 0 0 0 0 0 0 0 0 0 0 0 0 0 0
1.6623 6.09552e-12 6.02077e-12 7.47539e-14 0.0122637 0.000184534 0 0 0 0 0 0 0 0 0 0 0 0 0 0 0 0 0 0 0 0 0 0 0 0 0 0 0 0 0 0 0 0 0 0 0 0 0 0 0 0 0 0
1.74763 5.56085e-12 5.4992e-12 6.16431e-14 0.0110852 0.000169005 0 0 0 0 0 0 0 0 0 0 0 0 0 0 0 0 0 0 0 0 0 0 0 0 0 0 0 0 0 0 0 0 0 0 0 0 0 0 0 0 0 0
1.83733 5.06838e-12 5.01758e-12 5.07952e-14 0.010022 0.000154804 0 0 0 0 0 0 0 0 0 0 0 0 0 0 0 0 0 0 0 0 0 0 0 0 0 0 0 0 0 0 0 0 0 0 0 0 0 0 0 0 0 0
1.93164 4.61586e-12 4.57403e-12 4.18251e-14 0.00906119 0.000141793 0 0 0 0 0 0 0 0 0 0 0 0 0 0 0 0 0 0 0 0 0 0 0 0 0 0 0 0 0 0 0 0 0 0 0 0 0 0 0 0 0 0
2.03079 4.20104e-12 4.16663e-12 3.44176e-14 0.00819264 0.000129725 0 0 0 0 0 0 0 0 0 0 0 0 0 0 0 0 0 0 0 0 0 0 0 0 0 0 0 0 0 0 0 0 0 0 0 0 0 0 0 0 0 0
2.13503 3.82163e-12 3.79332e-12 2.83099e-14 0.00740782 0.000118657 0 0 0 0 0 0 0 0 0 0 0 0 0 0 0 0 0 0 0 0 0 0 0 0 0 0 0 0 0 0 0 0 0 0 0 0 0 0 0 0 0 0
2.24463 3.47482e-12 3.45155e-12 2.32731e-14 0.00669764 0.000108569 0 0 0 0 0 0 0 0 0 0 0 0 0 0 0 0 0 0 0 0 0 0 0 0 0 0 0 0 0 0 0 0 0 0 0 0 0 0 0 0 0 0
2.35984 3.15853e-12 3.1394e-12 1.91246e-14 0.00605493 9.92926e-05 0 0 0 0 0 0 0 0 0 0 0 0 0 0 0 0 0 0 0 0 0 0 0 0 0 0 0 0 0 0 0 0 0 0 0 0 0 0 0 0 0 0
2.48097 2.87022e-12 2.85451e-12 1.57089e-14 0.00547306 9.07218e-05 0 0 0 0 0 0 0 0 0 0 0 0 0 0 0 0 0 0 0 0 0 0 0 0 0 0 0 0 0 0 0 0 0 0 0 0 0 0 0 0 0 0
2.60832 2.6079e-12 2.595e-12 1.28986e-14 0.00494598 8.27967e-05 0 0 0 0 0 0 0 0 0 0 0 0 0 0 0 0 0 0 0 0 0 0 0 0 0 0 0 0 0 0 0 0 0 0 0 0 0 0 0 0 0 0
2.74221 2.36951e-12 2.35892e-12 1.05894e-14 0.00446903 7.55862e-05 0 0 0 0 0 0 0 0 0 0 0 0 0 0 0 0 0 0 0 0 0 0 0 0 0 0 0 0 0 0 0 0 0 0 0 0 0 0 0 0 0 0
2.88297 2.15263e-12 2.14395e-12 8.68858e-15 0.00403625 6.90729e-05 0 0 0 0 0 0 0 0 0 0 0 0 0 0 0 0 0 0 0 0 0 0 0 0 0 0 0 0 0 0 0 0 0 0 0 0 0 0 0 0 0 0
3.03095 1.95599e-12 1.94886e-12 7.12896e-15 0.00364468 6.31538e-05 0 0 0 0 0 0 0 0 0 0 0 0 0 0 0 0 0 0 0 0 0 0 0 0 0 0 0 0 0 0 0 0 0 0 0 0 0 0 0 0 0 0
3.18653 1.77747e-12 1.77162e-12 5.84699e-15 0.00328951 5.76567e-05 0 0 0 0 0 0 0 0 0 0 0 0 0 0 0 0 0 0 0 0 0 0 0 0 0 0 0 0 0 0 0 0 0 0 0 0 0 0 0 0 0 0
3.35009 1.61569e-12 1.61089e-12 4.79464e-15 0.00296755 5.2603e-05 0 0 0 0 0 0 0 0 0 0 0 0 0 0 0 0 0 0 0 0 0 0 0 0 0 0 0 0 0 0 0 0 0 0 0 0 0 0 0 0 0 0
3.52205 1.46904e-12 1.46511e-12 3.93119e-15 0.00267602 4.80102e-05 0 0 0 0 0 0 0 0 0 0 0 0 0 0 0 0 0 0 0 0 0 0 0 0 0 0 0 0 0 0 0 0 0 0 0 0 0 0 0 0 0 0
3.70284 1.33622e-12 1.333e-12 3.22257e-15 0.0024117 4.38066e-05 0 0 0 0 0 0 0 0 0 0 0 0 0 0 0 0 0 0 0 0 0 0 0 0 0 0 0 0 0 0 0 0 0 0 0 0 0 0 0 0 0 0
3.89291 1.21597e-12 1.21333e-12 2.64128e-15 0.00217215 3.9926e-05 0 0 0 0 0 0 0 0 0 0 0 0 0 0 0 0 0 0 0 0 0 0 0 0 0 0 0 0 0 0 0 0 0 0 0 0 0 0 0 0 0 0
4.09273 1.10716e-12 1.10499e-12 2.16458e-15 0.00195508 3.62643e-05 0 0 0 0 0 0 0 0 0 0 0 0 0 0 0 0 0 0 0 0 0 0 0 0 0 0 0 0 0 0 0 0 0 0 0 0 0 0 0 0 0 0
4.30281 1.00873e-12 1.00696e-12 1.77379e-15 0.00175844 3.29535e-05 0 0 0 0 0 0 0 0 0 0 0 0 0 0 0 0 0 0 0 0 0 0 0 0 0 0 0 0 0 0 0 0 0 0 1.4013e-45 0 2.8026e-45 0 7.00649e-45 0 1.82169e-44 0
4.52368 9.19675e-13 9.18221e-13 1.45355e-15 0.0015805 2.99416e-05 0 0 0 0 0 0 0 0 0 0 0 0 0 0 0 0 0 0 0 0 0 0 0 0 0 0 0 0 2.8026e-45 0 9.80909e-45 0 3.08286e-44 0 9.66896e-44 0 2.70451e-43 0 7.21669e-43 0 1.76844e-42 0
4.75588 8.39191e-13 8.38e-13 1.19113e-15 0.00141938 2.71796e-05 0 0 0 0 0 0 0 0 0 0 0 0 0 0 0 0 0 0 0 0 0 0 2.8026e-45 0 1.68156e-44 0 7.00649e-44 0 2.67648e-43 0 9.19252e-43 0 2.85865e-42 0 8.37136e-42 0 2.24278e-41 0 5.7016e-41 0 1.33661e-40 0
5 7.66367e-13 7.65391e-13 9.75793e-16 0.00127327 2.45398e-05 0 0 0 0 0 0 0 0 0 0 0 0 0 0 0 0 1.4013e-45 0 8.40779e-45 0 5.88545e-44 0 3.20897e-43 0 1.54003e-42 0 6.12227e-42 0 2.18659e-41 0 7.06437e-41 0 2.07768e-40 0 5.77331e-40 0 1.47396e-39 0 3.58031e-39 0 8.05129e-39 0
5.25665 7.00655e-13 6.99855e-13 7.99491e-16 0.00114106 2.21678e-05 0 0 0 0 0 0 0 0 0 0 0 0 0 0 8.40779e-45 0 1.03696e-43 0 8.15556e-43 0 5.0671e-42 0 2.55106e-41 0 1.13554e-40 0 4.22089e-40 0 1.41665e-39 0 4.32224e-39 0 1.20598e-38 0 3.18799e-38 0 7.77506e-38 0 1.80851e-37 0 3.90914e-37 0
5.52648 6.41134e-13 6.40479e-13 6.5497e-16 0.00102158 2.00489e-05 0 0 0 0 0 0 0 0 0 0 2.8026e-45 0 5.74532e-44 0 8.49187e-43 0 8.6362e-42 0 6.11078e-41 0 3.47057e-40 0 1.61479e-39 0 6.68253e-39 0 2.32972e-38 0 7.37033e-38 0 2.12951e-37 0 5.65137e-37 0 1.42468e-36 0 3.3266e-36 0 7.42537e-36 0 1.54573e-35 0
5.81015 5.87396e-13 5.86859e-13 5.3658e-16 0.000913489 1.8115e-05 0 0 0 0 0 0 0 0 4.2039e-45 0 2.11596e-43 0 4.84008e-42 0 6.24993e-41 0 5.67609e-40 0 3.65023e-39 0 1.90457e-38 0 8.22076e-38 0 3.1741e-37 0 1.04112e-36 0 3.11362e-36 0 8.54201e-36 0 2.16142e-35 0 5.20831e-35 0 1.16681e-34 0 2.50432e-34 0 5.02991e-34 0
6.10839 5.39119e-13 5.38679e-13 4.39719e-16 0.000815626 1.63023e-05 0 0 0 0 0 0 2.8026e-45 0 3.83956e-43 0 1.64064e-41 0 3.22477e-40 0 3.67476e-39 0 2.99652e-38 0 1.75964e-37 0 8.46976e-37 0 3.40391e-36 0 1.23038e-35 0 3.80834e-35 0 1.07962e-34 0 2.81946e-34 0 6.81804e-34 0 1.57387e-33 0 3.38975e-33 0 7.00913e-33 0 1.36065e-32 0
6.42193 4.92633e-13 4.92274e-13 3.59303e-16 0.000729352 1.48144e-05 0 0 0 0 0 0 2.29813e-43 0 2.83861e-41 0 1.00851e-39 0 1.71402e-38 0 1.73442e-37 0 1.27657e-36 0 6.87567e-36 0 3.06508e-35 0 1.15094e-34 0 3.90724e-34 0 1.14448e-33 0 3.08352e-33 0 7.684e-33 0 1.77975e-32 0 3.94392e-32 0 8.182e-32 0 1.63287e-31 0 3.06881e-31 0
6.75157 4.5536e-13 4.55065e-13 2.94679e-16 0.000647135 1.32279e-05 0 0 0 0 1.82169e-44 0 1.73032e-41 0 1.69015e-39 0 5.0442e-38 0 7.46548e-37 0 6.74715e-36 0 4.50491e-35 0 2.23488e-34 0 9.26162e-34 0 3.2602e-33 0 1.04266e-32 0 2.89796e-32 0 7.43903e-32 0 1.77295e-31 0 3.94147e-31 0 8.40149e-31 0 1.68195e-30 0 3.2453e-30 0 5.91416e-30 0
7.09813 4.19521e-13 4.1928e-13 2.41389e-16 0.000575391 1.18448e-05 0 0 0 0 1.53302e-42 0 1.03525e-39 0 8.08498e-38 0 2.04426e-36 0 2.65256e-35 0 2.15302e-34 0 1.31026e-33 0 6.01123e-33 0 2.32408e-32 0 7.69349e-32 0 2.32472e-31 0 6.14674e-31 0 1.50688e-30 0 3.44226e-30 0 7.35978e-30 0 1.51187e-29 0 2.92586e-29 0 5.46712e-29 0 9.67546e-29 0
7.46248 3.87734e-13 3.87536e-13 1.9771e-16 0.000509912 1.05694e-05 0 0 1.4013e-45 0 1.01904e-40 0 5.00641e-38 0 3.16049e-36 0 6.82526e-35 0 7.81448e-34 0 5.72643e-33 0 3.19079e-32 0 1.35895e-31 0 4.91833e-31 0 1.5357e-30 0 4.3965e-30 0 1.10857e-29 0 2.60126e-29 0 5.70733e-29 0 1.17582e-28 0 2.33199e-28 0 4.36984e-28 0 7.9198e-28 0 1.36309e-27 0
7.84553 3.58647e-13 3.58485e-13 1.61934e-16 0.000451513 9.34187e-06 0 0 9.3887e-44 0 5.43512e-39 0 1.97306e-36 0 1.01736e-34 0 1.89099e-33 0 1.9221e-32 0 1.27799e-31 0 6.54816e-31 0 2.59836e-30 0 8.8316e-30 0 2.60847e-29 0 7.09388e-29 0 1.70974e-28 0 3.84827e-28 0 8.12555e-28 0 1.61597e-27 0 3.09956e-27 0 5.63278e-27 0 9.9166e-27 0 1.66211e-26 0
8.24824 3.31201e-13 3.31068e-13 1.32626e-16 0.00040044 8.19911e-06 0 0 6.93362e-42 0 2.34549e-37 0 6.38527e-35 0 2.71588e-33 0 4.37681e-32 0 3.97259e-31 0 2.408e-30 0 1.1392e-29 0 4.22626e-29 0 1.35318e-28 0 3.79085e-28 0 9.81794e-28 0 2.2668e-27 0 4.90395e-27 0 9.98357e-27 0 1.91995e-26 0 3.56734e-26 0 6.29653e-26 0 1.07832e-25 0 1.76235e-25 0
8.67162 3.07202e-13 3.07093e-13 1.08624e-16 0.000353591 7.20916e-06 5.60519e-45 0 4.09482e-40 0 8.3242e-36 0 1.72347e-33 0 6.10398e-32 0 8.58851e-31 0 6.99947e-30 0 3.88542e-29 0 1.70385e-28 0 5.92907e-28 0 1.79353e-27 0 4.77803e-27 0 1.18128e-26 0 2.61821e-26 0 5.45475e-26 0 1.07261e-25 0 1.99792e-25 0 3.60161e-25 0 6.18309e-25 0 1.03144e-24 0 1.64579e-24 0
9.11674 2.85107e-13 2.85018e-13 8.89603e-17 0.000312024 6.32492e-06 4.9606e-43 0 1.9514e-38 0 2.44408e-34 0 3.90029e-32 0 1.16056e-30 0 1.43518e-29 0 1.05577e-28 0 5.39012e-28 0 2.1991e-27 0 7.20048e-27 0 2.06354e-26 0 5.24054e-26 0 1.23962e-25 0 2.64279e-25 0 5.31214e-25 0 1.01064e-24 0 1.82619e-24 0 3.19867e-24 0 5.34834e-24 0 8.70177e-24 0 1.35715e-23 0
9.5847 2.65431e-13 2.65359e-13 7.28571e-17 0.000274486 5.52644e-06 3.24036e-41 0 7.60323e-37 0 6.00754e-33 0 7.48377e-31 0 1.88688e-29 0 2.06375e-28 0 1.37723e-27 0 6.49331e-27 0 2.47343e-26 0 7.64301e-26 0 2.08061e-25 0 5.04884e-25 0 1.14511e-24 0 2.35272e-24 0 4.5706e-24 0 8.42682e-24 0 1.47934e-23 0 2.52119e-23 0 4.11107e-23 0 6.53165e-23 0 9.96827e-23 0
10.0767 2.47738e-13 2.47678e-13 5.96726e-17 0.00024087 4.78203e-06 1.7031e-39 0 2.44488e-35 0 1.24639e-31 0 1.22679e-29 0 2.64218e-28 0 2.57129e-27 0 1.56405e-26 0 6.83645e-26 0 2.43952e-25 0 7.13425e-25 0 1.84944e-24 0 4.29778e-24 0 9.36561e-24 0 1.85776e-23 0 3.49391e-23 0 6.25215e-23 0 1.06782e-22 0 1.7731e-22 0 2.82303e-22 0 4.38497e-22 0 6.55541e-22 0
