# 2.57845e-05 0 63 : grain size, compostion index, size index
# Heating and cooling timescale: 0.00303845 255547
# Ratio of heating to cooling to determine stochastic cutoff: 100
# Equilibrium emission is recorded even for those grains in the stochastic regime.
# Emission spectrum was computed for: 
# Type: ISRF
# Scales: 0.25 0.5 1 1.5 2 2.5 3 3.5 4 4.5 5 5.5 6 6.5 7 7.5 8 8.5 9 9.5 10
# StochasticallyHeated: 0 0 0 0 0 0 0 0 0 0 0 0 0 0 0 0 0 0 0 0 0
# Temperature: -1
# Wavelength  CExt  CAbs  CSca  Albedo G EqEm1 StEm1 EqEm2 StEm2 EqEm3 StEm3 EqEm4 StEm4 EqEm5 StEm5 EqEm6 StEm6 EqEm7 StEm7 EqEm8 StEm8 EqEm9 StEm9 EqEm10 StEm10 EqEm11 StEm11 EqEm12 StEm12 EqEm13 StEm13 EqEm14 StEm14 EqEm15 StEm15 EqEm16 StEm16 EqEm17 StEm17 EqEm18 StEm18 EqEm19 StEm19 EqEm20 StEm20 EqEm21 StEm21
0.05 4.04221e-09 1.96226e-09 2.07995e-09 0.514558 0.985876 0 0 0 0 0 0 0 0 0 0 0 0 0 0 0 0 0 0 0 0 0 0 0 0 0 0 0 0 0 0 0 0 0 0 0 0 0 0 0 0 0 0
0.0525665 4.12267e-09 1.96007e-09 2.1626e-09 0.524562 0.978488 0 0 0 0 0 0 0 0 0 0 0 0 0 0 0 0 0 0 0 0 0 0 0 0 0 0 0 0 0 0 0 0 0 0 0 0 0 0 0 0 0 0
0.0552647 4.16039e-09 1.9783e-09 2.18209e-09 0.524491 0.974345 0 0 0 0 0 0 0 0 0 0 0 0 0 0 0 0 0 0 0 0 0 0 0 0 0 0 0 0 0 0 0 0 0 0 0 0 0 0 0 0 0 0
0.0581015 4.18916e-09 1.99748e-09 2.19168e-09 0.523178 0.971377 0 0 0 0 0 0 0 0 0 0 0 0 0 0 0 0 0 0 0 0 0 0 0 0 0 0 0 0 0 0 0 0 0 0 0 0 0 0 0 0 0 0
0.0610839 4.21179e-09 2.01528e-09 2.19651e-09 0.521514 0.969058 0 0 0 0 0 0 0 0 0 0 0 0 0 0 0 0 0 0 0 0 0 0 0 0 0 0 0 0 0 0 0 0 0 0 0 0 0 0 0 0 0 0
0.0642193 4.23073e-09 2.03039e-09 2.20034e-09 0.520085 0.966964 0 0 0 0 0 0 0 0 0 0 0 0 0 0 0 0 0 0 0 0 0 0 0 0 0 0 0 0 0 0 0 0 0 0 0 0 0 0 0 0 0 0
0.0675157 4.24813e-09 2.0424e-09 2.20573e-09 0.519223 0.964773 0 0 0 0 0 0 0 0 0 0 0 0 0 0 0 0 0 0 0 0 0 0 0 0 0 0 0 0 0 0 0 0 0 0 0 0 0 0 0 0 0 0
0.0709813 4.26621e-09 2.05263e-09 2.21358e-09 0.518864 0.962305 0 0 0 0 0 0 0 0 0 0 0 0 0 0 0 0 0 0 0 0 0 0 0 0 0 0 0 0 0 0 0 0 0 0 0 0 0 0 0 0 0 0
0.0746248 4.28621e-09 2.06269e-09 2.22353e-09 0.518762 0.959554 0 0 0 0 0 0 0 0 0 0 0 0 0 0 0 0 0 0 0 0 0 0 0 0 0 0 0 0 0 0 0 0 0 0 0 0 0 0 0 0 0 0
0.0784553 4.30742e-09 2.07356e-09 2.23386e-09 0.518607 0.956679 0 0 0 0 0 0 0 0 0 0 0 0 0 0 0 0 0 0 0 0 0 0 0 0 0 0 0 0 0 0 0 0 0 0 0 0 0 0 0 0 0 0
0.0824824 4.32951e-09 2.08538e-09 2.24412e-09 0.518333 0.953737 0 0 0 0 0 0 0 0 0 0 0 0 0 0 0 0 0 0 0 0 0 0 0 0 0 0 0 0 0 0 0 0 0 0 0 0 0 0 0 0 0 0
0.0867162 4.35238e-09 2.09795e-09 2.25443e-09 0.517976 0.950716 0 0 0 0 0 0 0 0 0 0 0 0 0 0 0 0 0 0 0 0 0 0 0 0 0 0 0 0 0 0 0 0 0 0 0 0 0 0 0 0 0 0
0.0911674 4.37636e-09 2.11141e-09 2.26495e-09 0.517542 0.947603 0 0 0 0 0 0 0 0 0 0 0 0 0 0 0 0 0 0 0 0 0 0 0 0 0 0 0 0 0 0 0 0 0 0 0 0 0 0 0 0 0 0
0.095847 4.40175e-09 2.12605e-09 2.2757e-09 0.516999 0.944404 0 0 0 0 0 0 0 0 0 0 0 0 0 0 0 0 0 0 0 0 0 0 0 0 0 0 0 0 0 0 0 0 0 0 0 0 0 0 0 0 0 0
0.100767 4.42872e-09 2.14231e-09 2.28641e-09 0.516269 0.941174 0 0 0 0 0 0 0 0 0 0 0 0 0 0 0 0 0 0 0 0 0 0 0 0 0 0 0 0 0 0 0 0 0 0 0 0 0 0 0 0 0 0
0.105939 4.45787e-09 2.16191e-09 2.29596e-09 0.515035 0.938114 0 0 0 0 0 0 0 0 0 0 0 0 0 0 0 0 0 0 0 0 0 0 0 0 0 0 0 0 0 0 0 0 0 0 0 0 0 0 0 0 0 0
0.111377 4.48574e-09 2.18403e-09 2.30171e-09 0.513117 0.935576 0 0 0 0 0 0 0 0 0 0 0 0 0 0 0 0 0 0 0 0 0 0 0 0 0 0 0 0 0 0 0 0 0 0 0 0 0 0 0 0 0 0
0.117094 4.50977e-09 2.2063e-09 2.30347e-09 0.510773 0.933511 0 0 0 0 0 0 0 0 0 0 0 0 0 0 0 0 0 0 0 0 0 0 0 0 0 0 0 0 0 0 0 0 0 0 0 0 0 0 0 0 0 0
0.123105 4.53433e-09 2.22768e-09 2.30665e-09 0.508708 0.931178 0 0 0 0 0 0 0 0 0 0 0 0 0 0 0 0 0 0 0 0 0 0 0 0 0 0 0 0 0 0 0 0 0 0 0 0 0 0 0 0 0 0
0.129424 4.5612e-09 2.25235e-09 2.30884e-09 0.506192 0.929082 0 0 0 0 0 0 0 0 0 0 0 0 0 0 0 0 0 0 0 0 0 0 0 0 0 0 0 0 0 0 0 0 0 0 0 0 0 0 0 0 0 0
0.136067 4.58149e-09 2.27875e-09 2.30273e-09 0.502617 0.928061 0 0 0 0 0 0 0 0 0 0 0 0 0 0 0 0 0 0 0 0 0 0 0 0 0 0 0 0 0 0 0 0 0 0 0 0 0 0 0 0 0 0
0.143051 4.59926e-09 2.30132e-09 2.29794e-09 0.499632 0.926549 0 0 0 0 0 0 0 0 0 0 0 0 0 0 0 0 0 0 0 0 0 0 0 0 0 0 0 0 0 0 0 0 0 0 0 0 0 0 0 0 0 0
0.150394 4.62212e-09 2.33197e-09 2.29014e-09 0.495475 0.925916 0 0 0 0 0 0 0 0 0 0 0 0 0 0 0 0 0 0 0 0 0 0 0 0 0 0 0 0 0 0 0 0 0 0 0 0 0 0 0 0 0 0
0.158114 4.60589e-09 2.35841e-09 2.24748e-09 0.487958 0.928905 0 0 0 0 0 0 0 0 0 0 0 0 0 0 0 0 0 0 0 0 0 0 0 0 0 0 0 0 0 0 0 0 0 0 0 0 0 0 0 0 0 0
0.16623 4.55502e-09 2.35162e-09 2.2034e-09 0.48373 0.928516 0 0 0 0 0 0 0 0 0 0 0 0 0 0 0 0 0 0 0 0 0 0 0 0 0 0 0 0 0 0 0 0 0 0 0 0 0 0 0 0 0 0
0.174762 4.53152e-09 2.3357e-09 2.19583e-09 0.484567 0.92328 0 0 0 0 0 0 0 0 0 0 0 0 0 0 0 0 0 0 0 0 0 0 0 0 0 0 0 0 0 0 0 0 0 0 0 0 0 0 0 0 0 0
0.183733 4.53713e-09 2.32124e-09 2.21589e-09 0.48839 0.915388 0 0 0 0 0 0 0 0 0 0 0 0 0 0 0 0 0 0 0 0 0 0 0 0 0 0 0 0 0 0 0 0 0 0 0 0 0 0 0 0 0 0
0.193164 4.57463e-09 2.30706e-09 2.26758e-09 0.495685 0.904118 0 0 0 0 0 0 0 0 0 0 0 0 0 0 0 0 0 0 0 0 0 0 0 0 0 0 0 0 0 0 0 0 0 0 0 0 0 0 0 0 0 0
0.203079 4.65013e-09 2.31139e-09 2.33875e-09 0.502942 0.891314 0 0 0 0 0 0 0 0 0 0 0 0 0 0 0 0 0 0 0 0 0 0 0 0 0 0 0 0 0 0 0 0 0 0 0 0 0 0 0 0 0 0
0.213503 4.7228e-09 2.32753e-09 2.39527e-09 0.507172 0.880319 0 0 0 0 0 0 0 0 0 0 0 0 0 0 0 0 0 0 0 0 0 0 0 0 0 0 0 0 0 0 0 0 0 0 0 0 0 0 0 0 0 0
0.224463 4.79308e-09 2.34879e-09 2.44428e-09 0.509961 0.87018 0 0 0 0 0 0 0 0 0 0 0 0 0 0 0 0 0 0 0 0 0 0 0 0 0 0 0 0 0 0 0 0 0 0 0 0 0 0 0 0 0 0
0.235984 4.86242e-09 2.36997e-09 2.49245e-09 0.512595 0.859928 0 0 0 0 0 0 0 0 0 0 0 0 0 0 0 0 0 0 0 0 0 0 0 0 0 0 0 0 0 0 0 0 0 0 0 0 0 0 0 0 0 0
0.248097 4.94592e-09 2.39352e-09 2.5524e-09 0.516062 0.848249 0 0 0 0 0 0 0 0 0 0 0 0 0 0 0 0 0 0 0 0 0 0 0 0 0 0 0 0 0 0 0 0 0 0 0 0 0 0 0 0 0 0
0.260832 5.03259e-09 2.42744e-09 2.60515e-09 0.517656 0.837912 0 0 0 0 0 0 0 0 0 0 0 0 0 0 0 0 0 0 0 0 0 0 0 0 0 0 0 0 0 0 0 0 0 0 0 0 0 0 0 0 0 0
0.274221 5.11617e-09 2.46576e-09 2.65041e-09 0.518045 0.828663 0 0 0 0 0 0 0 0 0 0 0 0 0 0 0 0 0 0 0 0 0 0 0 0 0 0 0 0 0 0 0 0 0 0 0 0 0 0 0 0 0 0
0.288297 5.19248e-09 2.50479e-09 2.68769e-09 0.517611 0.820325 0 0 0 0 0 0 0 0 0 0 0 0 0 0 0 0 0 0 0 0 0 0 0 0 0 0 0 0 0 0 0 0 0 0 0 0 0 0 0 0 0 0
0.303095 5.2669e-09 2.54538e-09 2.72152e-09 0.516722 0.812316 0 0 0 0 0 0 0 0 0 0 0 0 0 0 0 0 0 0 0 0 0 0 0 0 0 0 0 0 0 0 0 0 0 0 0 0 0 0 0 0 0 0
0.318653 5.33558e-09 2.58489e-09 2.75069e-09 0.515537 0.804571 0 0 0 0 0 0 0 0 0 0 0 0 0 0 0 0 0 0 0 0 0 0 0 0 0 0 0 0 0 0 0 0 0 0 0 0 0 0 0 0 0 0
0.335009 5.40094e-09 2.62331e-09 2.77763e-09 0.514287 0.79691 0 0 0 0 0 0 0 0 0 0 0 0 0 0 0 0 0 0 0 0 0 0 0 0 0 0 0 0 0 0 0 0 0 0 0 0 0 0 0 0 0 0
0.352205 5.46416e-09 2.662e-09 2.80216e-09 0.512826 0.789288 0 0 0 0 0 0 0 0 0 0 0 0 0 0 0 0 0 0 0 0 0 0 0 0 0 0 0 0 0 0 0 0 0 0 0 0 0 0 0 0 0 0
0.370284 5.52529e-09 2.69961e-09 2.82568e-09 0.511408 0.78117 0 0 0 0 0 0 0 0 0 0 0 0 0 0 0 0 0 0 0 0 0 0 0 0 0 0 0 0 0 0 0 0 0 0 0 0 0 0 0 0 0 0
0.389291 5.58281e-09 2.73427e-09 2.84855e-09 0.510235 0.772547 0 0 0 0 0 0 0 0 0 0 0 0 0 0 0 0 0 0 0 0 0 0 0 0 0 0 0 0 0 0 0 0 0 0 0 0 0 0 0 0 0 0
0.409273 5.63976e-09 2.76709e-09 2.87268e-09 0.509361 0.763657 0 0 0 0 0 0 0 0 0 0 0 0 0 0 0 0 0 0 0 0 0 0 0 0 0 0 0 0 0 0 0 0 0 0 0 0 0 0 0 0 0 0
0.430281 5.69873e-09 2.80172e-09 2.89701e-09 0.508361 0.75465 0 0 0 0 0 0 0 0 0 0 0 0 0 0 0 0 0 0 0 0 0 0 0 0 0 0 0 0 0 0 0 0 0 0 0 0 0 0 0 0 0 0
0.452368 5.75628e-09 2.83735e-09 2.91893e-09 0.507086 0.745003 0 0 0 0 0 0 0 0 0 0 0 0 0 0 0 0 0 0 0 0 0 0 0 0 0 0 0 0 0 0 0 0 0 0 0 0 0 0 0 0 0 0
0.475588 5.80761e-09 2.86814e-09 2.93947e-09 0.506141 0.733979 0 0 0 0 0 0 0 0 0 0 0 0 0 0 0 0 0 0 0 0 0 0 0 0 0 0 0 0 0 0 0 0 0 0 0 0 0 0 0 0 0 0
0.5 5.85289e-09 2.89371e-09 2.95918e-09 0.505593 0.722222 0 0 0 0 0 0 0 0 0 0 0 0 0 0 0 0 0 0 0 0 0 0 0 0 0 0 0 0 0 0 0 0 0 0 0 0 0 0 0 0 0 0
0.525665 5.90022e-09 2.92091e-09 2.97932e-09 0.50495 0.710937 0 0 0 0 0 0 0 0 0 0 0 0 0 0 0 0 0 0 0 0 0 0 0 0 0 0 0 0 0 0 0 0 0 0 0 0 0 0 0 0 0 0
0.552648 5.95392e-09 2.95661e-09 2.99731e-09 0.503418 0.700604 0 0 0 0 0 0 0 0 0 0 0 0 0 0 0 0 0 0 0 0 0 0 0 0 0 0 0 0 0 0 0 0 0 0 0 0 0 0 0 0 0 0
0.581015 6.00775e-09 2.99828e-09 3.00946e-09 0.500931 0.690063 0 0 0 0 0 0 0 0 0 0 0 0 0 0 0 0 0 0 0 0 0 0 0 0 0 0 0 0 0 0 0 0 0 0 0 0 0 0 0 0 0 0
0.610839 6.05106e-09 3.03568e-09 3.01538e-09 0.498322 0.677343 0 0 0 0 0 0 0 0 0 0 0 0 0 0 0 0 0 0 0 0 0 0 0 0 0 0 0 0 0 0 0 0 0 0 0 0 0 0 0 0 0 0
0.642193 6.08044e-09 3.06152e-09 3.01892e-09 0.496496 0.661451 0 0 0 0 0 0 0 0 0 0 0 0 0 0 0 0 0 0 0 0 0 0 0 0 0 0 0 0 0 0 0 0 0 0 0 0 0 0 0 0 0 0
0.675157 6.10605e-09 3.07847e-09 3.02759e-09 0.495834 0.643208 0 0 0 0 0 0 0 0 0 0 0 0 0 0 0 0 0 0 0 0 0 0 0 0 0 0 0 0 0 0 0 0 0 0 0 0 0 0 0 0 0 0
0.709813 6.14391e-09 3.09803e-09 3.04588e-09 0.495756 0.624862 0 0 0 0 0 0 0 0 0 0 0 0 0 0 0 0 0 0 0 0 0 0 0 0 0 0 0 0 0 0 0 0 0 0 0 0 0 0 0 0 0 0
0.746248 6.20307e-09 3.13162e-09 3.07144e-09 0.495149 0.608487 0 0 0 0 0 0 0 0 0 0 0 0 0 0 0 0 0 0 0 0 0 0 0 0 0 0 0 0 0 0 0 0 0 0 0 0 0 0 0 0 0 0
0.784553 6.27901e-09 3.18214e-09 3.09687e-09 0.49321 0.594503 0 0 0 0 0 0 0 0 0 0 0 0 0 0 0 0 0 0 0 0 0 0 0 0 0 0 0 0 0 0 0 0 0 0 0 0 0 0 0 0 0 0
0.824824 6.35574e-09 3.24416e-09 3.11158e-09 0.48957 0.581866 0 0 0 0 0 0 0 0 0 0 0 0 0 0 0 0 0 0 0 0 0 0 0 0 0 0 0 0 0 0 0 0 0 0 0 0 0 0 0 0 0 0
0.867162 6.41371e-09 3.30416e-09 3.10955e-09 0.484828 0.567977 0 0 0 0 0 0 0 0 0 0 0 0 0 0 0 0 0 0 0 0 0 0 0 0 0 0 0 0 0 0 0 0 0 0 0 0 0 0 0 0 0 0
0.911674 6.43899e-09 3.34577e-09 3.09322e-09 0.480389 0.549252 0 0 0 0 0 0 0 0 0 0 0 0 0 0 0 0 0 0 0 0 0 0 0 0 0 0 0 0 0 0 0 0 0 0 0 0 0 0 0 0 0 0
0.95847 6.43255e-09 3.35964e-09 3.07291e-09 0.477712 0.522717 0 0 0 0 0 0 0 0 0 0 0 0 0 0 0 0 0 0 0 0 0 0 0 0 0 0 0 0 0 0 0 0 0 0 0 0 0 0 0 0 0 0
1.00767 6.41388e-09 3.3514e-09 3.06248e-09 0.477478 0.48799 0 0 0 0 0 0 0 0 0 0 0 0 0 0 0 0 0 0 0 0 0 0 0 0 0 0 0 0 0 0 0 0 0 0 0 0 0 0 0 0 0 0
1.05939 6.41071e-09 3.33617e-09 3.07454e-09 0.479594 0.447344 0 0 0 0 0 0 0 0 0 0 0 0 0 0 0 0 0 0 0 0 0 0 0 0 0 0 0 0 0 0 0 0 0 0 0 0 0 0 0 0 0 0
1.11377 6.4466e-09 3.32985e-09 3.11675e-09 0.483472 0.404406 0 0 0 0 0 0 0 0 0 0 0 0 0 0 0 0 0 0 0 0 0 0 0 0 0 0 0 0 0 0 0 0 0 0 0 0 0 0 0 0 0 0
1.17094 6.53174e-09 3.34415e-09 3.18759e-09 0.488016 0.362759 0 0 0 0 0 0 0 0 0 0 0 0 0 0 0 0 0 0 0 0 0 0 0 0 0 0 0 0 0 0 0 0 0 0 0 0 0 0 0 0 0 0
1.23105 6.66157e-09 3.38511e-09 3.27646e-09 0.491845 0.325093 0 0 0 0 0 0 0 0 0 0 0 0 0 0 0 0 0 0 0 0 0 0 0 0 0 0 0 0 0 0 0 0 0 0 0 0 0 0 0 0 0 0
1.29424 6.81912e-09 3.45184e-09 3.36728e-09 0.493799 0.292659 0 0 0 0 0 0 0 0 0 0 0 0 0 0 0 0 0 0 0 0 0 0 0 0 0 0 0 0 0 0 0 0 0 0 0 0 0 0 0 0 0 0
1.36067 6.97538e-09 3.53766e-09 3.43772e-09 0.492836 0.266051 0 0 0 0 0 0 0 0 0 0 0 0 0 0 0 0 0 0 0 0 0 0 0 0 0 0 0 0 0 0 0 0 0 0 0 0 0 0 0 0 0 0
1.43051 7.08298e-09 3.62664e-09 3.45634e-09 0.487978 0.244537 0 0 0 0 0 0 0 0 0 0 0 0 0 0 0 0 0 0 0 0 0 0 0 0 0 0 0 0 0 0 0 0 0 0 0 0 0 0 0 0 0 0
1.50394 7.10754e-09 3.69908e-09 3.40846e-09 0.479555 0.226671 0 0 0 0 0 0 0 0 0 0 0 0 0 0 0 0 0 0 0 0 0 0 0 0 0 0 0 0 0 0 0 0 0 0 0 0 0 0 0 0 0 0
1.58114 7.02342e-09 3.73723e-09 3.28619e-09 0.467891 0.212402 0 0 0 0 0 0 0 0 0 0 0 0 0 0 0 0 0 0 0 0 0 0 0 0 0 0 0 0 0 0 0 0 0 0 0 0 0 0 0 0 0 0
1.6623 6.81156e-09 3.72376e-09 3.0878e-09 0.453317 0.201611 0 0 0 0 0 0 0 0 0 0 0 0 0 0 0 0 0 0 0 0 0 0 0 0 0 0 0 0 0 0 0 0 0 0 0 0 0 0 0 0 0 0
1.74763 6.46601e-09 3.64505e-09 2.82097e-09 0.436276 0.193746 0 0 0 0 0 0 0 0 0 0 0 0 0 0 0 0 0 0 0 0 0 0 0 0 0 0 0 0 0 0 0 0 0 0 0 0 0 0 0 0 0 0
1.83733 6.0025e-09 3.49698e-09 2.50552e-09 0.417412 0.187083 0 0 0 0 0 0 0 0 0 0 0 0 0 0 0 0 0 0 0 0 0 0 0 0 0 0 0 0 0 0 0 0 0 0 0 0 0 0 0 0 0 0
1.93164 5.47309e-09 3.29348e-09 2.17961e-09 0.398241 0.180667 0 0 0 0 0 0 0 0 0 0 0 0 0 0 0 0 0 0 0 0 0 0 0 0 0 0 0 0 0 0 0 0 0 0 0 0 0 0 0 0 0 0
2.03079 4.90246e-09 3.04435e-09 1.85811e-09 0.379017 0.175191 0 0 0 0 0 0 0 0 0 0 0 0 0 0 0 0 0 0 0 0 0 0 0 0 0 0 0 0 0 0 0 0 0 0 0 0 0 0 0 0 0 0
2.13503 4.32458e-09 2.76827e-09 1.55631e-09 0.359875 0.169176 0 0 0 0 0 0 0 0 0 0 0 0 0 0 0 0 0 0 0 0 0 0 0 0 0 0 0 0 0 0 0 0 0 0 0 0 0 0 0 0 0 0
2.24463 3.77381e-09 2.48629e-09 1.28752e-09 0.341173 0.162272 0 0 0 0 0 0 0 0 0 0 0 0 0 0 0 0 0 0 0 0 0 0 0 0 0 0 0 0 0 0 0 0 0 0 0 0 0 0 0 0 0 0
2.35984 3.27074e-09 2.21488e-09 1.05586e-09 0.322821 0.154288 0 0 0 0 0 0 0 0 0 0 0 0 0 0 0 0 0 0 0 0 0 0 0 0 0 0 0 0 0 0 0 0 0 0 0 0 0 0 0 0 0 0
2.48097 2.82534e-09 1.96343e-09 8.61906e-10 0.305063 0.145914 0 0 0 0 0 0 0 0 0 0 0 0 0 0 0 0 0 0 0 0 0 0 0 0 0 0 0 0 0 0 0 0 0 0 0 0 0 0 0 0 0 0
2.60832 2.42794e-09 1.72969e-09 6.98252e-10 0.28759 0.13729 0 0 0 0 0 0 0 0 0 0 0 0 0 0 0 0 0 0 0 0 0 0 0 0 0 0 0 0 0 0 0 0 0 0 0 0 0 0 0 0 0 0
2.74221 2.10249e-09 1.53614e-09 5.66351e-10 0.269371 0.127248 0 0 0 0 0 0 0 0 0 0 0 0 0 0 0 0 0 0 0 0 0 0 0 0 0 0 0 0 0 0 0 0 0 0 0 0 0 0 0 0 0 0
2.88297 1.8204e-09 1.36094e-09 4.59457e-10 0.252393 0.118476 0 0 0 0 0 0 0 0 0 0 0 0 0 0 0 0 0 0 0 0 0 0 0 0 0 0 0 0 0 0 0 0 0 0 0 0 0 0 0 0 0 0
3.03095 1.58049e-09 1.20876e-09 3.71732e-10 0.2352 0.109534 0 0 0 0 0 0 0 0 0 0 0 0 0 0 0 0 0 0 0 0 0 0 0 0 0 0 0 0 0 0 0 0 0 0 0 0 0 0 0 0 0 0
3.18653 1.38366e-09 1.08179e-09 3.01867e-10 0.218166 0.100905 0 0 0 0 0 0 0 0 0 0 0 0 0 0 0 0 0 0 0 0 0 0 0 0 0 0 0 0 0 0 0 0 0 0 0 0 0 0 0 0 0 0
3.35009 1.20661e-09 9.61449e-10 2.4516e-10 0.203181 0.0938775 0 0 0 0 0 0 0 0 0 0 0 0 0 0 0 0 0 0 0 0 0 0 0 0 0 0 0 0 0 0 0 0 0 0 0 0 0 0 0 0 0 0
3.52205 1.06115e-09 8.62575e-10 1.9857e-10 0.187128 0.0861619 0 0 0 0 0 0 0 0 0 0 0 0 0 0 0 0 0 0 0 0 0 0 0 0 0 0 0 0 0 0 0 0 0 0 0 0 0 0 0 0 0 0
3.70284 9.37333e-10 7.75955e-10 1.61377e-10 0.172166 0.0793071 0 0 0 0 0 0 0 0 0 0 0 0 0 0 0 0 0 0 0 0 0 0 0 0 0 0 0 0 0 0 0 0 0 0 0 0 0 0 0 0 0 0
3.89291 8.29592e-10 6.98223e-10 1.31369e-10 0.158354 0.0732125 0 0 0 0 0 0 0 0 0 0 0 0 0 0 0 0 0 0 0 0 0 0 0 0 0 0 0 0 0 0 0 0 0 0 0 0 0 0 0 0 0 0
4.09273 7.3836e-10 6.31437e-10 1.06923e-10 0.144811 0.0673048 0 0 0 0 0 0 0 0 0 0 0 0 0 0 0 0 0 0 0 0 0 0 0 0 0 0 0 0 0 0 0 0 0 0 0 0 0 0 0 0 0 0
4.30281 6.58114e-10 5.71224e-10 8.68895e-11 0.132028 0.0617872 0 0 0 0 0 0 0 0 0 0 0 0 0 0 0 0 0 0 0 0 0 0 0 0 0 0 0 0 0 0 0 0 0 0 0 0 0 0 0 0 0 0
4.52368 5.87028e-10 5.16343e-10 7.06848e-11 0.120411 0.0568708 0 0 0 0 0 0 0 0 0 0 0 0 0 0 0 0 0 0 0 0 0 0 0 0 0 0 0 0 0 0 0 0 0 0 0 0 0 0 1.4013e-45 0 2.8026e-45 0
4.75588 5.27073e-10 4.69461e-10 5.76119e-11 0.109305 0.0522382 0 0 0 0 0 0 0 0 0 0 0 0 0 0 0 0 0 0 0 0 0 0 0 0 0 0 0 0 0 0 1.4013e-45 0 4.2039e-45 0 1.54143e-44 0 4.48416e-44 0 1.26117e-43 0 3.3491e-43 0
5 4.72106e-10 4.25151e-10 4.69555e-11 0.0994595 0.04816 0 0 0 0 0 0 0 0 0 0 0 0 0 0 0 0 0 0 0 0 0 0 0 0 2.8026e-45 0 1.26117e-44 0 5.04467e-44 0 1.8357e-43 0 6.22177e-43 0 1.88755e-42 0 5.37678e-42 0 1.44194e-41 0 3.6501e-41 0
5.25665 4.25958e-10 3.87781e-10 3.81775e-11 0.0896273 0.0440315 0 0 0 0 0 0 0 0 0 0 0 0 0 0 0 0 0 0 1.4013e-45 0 1.12104e-44 0 6.86636e-44 0 3.5593e-43 0 1.54984e-42 0 5.95832e-42 0 2.03889e-41 0 6.50875e-41 0 1.87184e-40 0 5.06669e-40 0 1.29476e-39 0 3.13236e-39 0
5.52648 3.87623e-10 3.56574e-10 3.10492e-11 0.0801016 0.0400492 0 0 0 0 0 0 0 0 0 0 0 0 0 0 1.4013e-45 0 2.24208e-44 0 2.01787e-43 0 1.42792e-42 0 7.89632e-42 0 3.7957e-41 0 1.53837e-40 0 5.53799e-40 0 1.78471e-39 0 5.38342e-39 0 1.47037e-38 0 3.79112e-38 0 9.25419e-38 0 2.14432e-37 0
5.81015 3.60119e-10 3.3492e-10 2.51987e-11 0.0699732 0.0358137 0 0 0 0 0 0 0 0 0 0 0 0 1.26117e-44 0 2.35418e-43 0 2.67648e-42 0 2.22526e-41 0 1.42983e-40 0 7.27593e-40 0 3.23916e-39 0 1.2261e-38 0 4.14624e-38 0 1.262e-37 0 3.60693e-37 0 9.37993e-37 0 2.30918e-36 0 5.39643e-36 0 1.20016e-35 0
6.10839 3.43998e-10 3.23345e-10 2.06531e-11 0.0600384 0.0317644 0 0 0 0 0 0 0 0 1.4013e-45 0 5.88545e-44 0 1.64653e-42 0 2.613e-41 0 2.63214e-40 0 1.97299e-39 0 1.15769e-38 0 5.44126e-38 0 2.25205e-37 0 7.98817e-37 0 2.54531e-36 0 7.33742e-36 0 1.9923e-35 0 4.94484e-35 0 1.16495e-34 0 2.6119e-34 0 5.58652e-34 0
6.42193 3.22779e-10 3.0559e-10 1.71889e-11 0.0532529 0.0290609 0 0 0 0 0 0 0 0 1.17709e-43 0 6.68279e-42 0 1.6009e-40 0 2.21913e-39 0 1.99701e-38 0 1.3567e-37 0 7.30183e-37 0 3.18216e-36 0 1.22881e-35 0 4.09737e-35 0 1.23375e-34 0 3.37737e-34 0 8.73394e-34 0 2.07363e-33 0 4.68508e-33 0 1.00983e-32 0 2.08118e-32 0
6.75157 2.9776e-10 2.83638e-10 1.4122e-11 0.0474275 0.0266286 0 0 0 0 0 0 7.00649e-44 0 1.26579e-41 0 5.8689e-40 0 1.20399e-38 0 1.46789e-37 0 1.1866e-36 0 7.34142e-36 0 3.63949e-35 0 1.47611e-34 0 5.33619e-34 0 1.67771e-33 0 4.78702e-33 0 1.24757e-32 0 3.07999e-32 0 7.0103e-32 0 1.52209e-31 0 3.15998e-31 0 6.28656e-31 0
7.09813 2.81344e-10 2.69722e-10 1.16223e-11 0.04131 0.0239597 0 0 0 0 4.2039e-45 0 7.73517e-42 0 1.08657e-39 0 4.17742e-38 0 7.3946e-37 0 7.97916e-36 0 5.82444e-35 0 3.29677e-34 0 1.51148e-33 0 5.72522e-33 0 1.94382e-32 0 5.77899e-32 0 1.56664e-31 0 3.89634e-31 0 9.20406e-31 0 2.01246e-30 0 4.20717e-30 0 8.42842e-30 0 1.6214e-29 0
7.46248 2.63141e-10 2.53496e-10 9.64521e-12 0.0366541 0.0219157 0 0 0 0 5.84341e-43 0 6.62465e-40 0 7.30931e-38 0 2.35152e-36 0 3.61762e-35 0 3.47559e-34 0 2.30237e-33 0 1.19744e-32 0 5.09659e-32 0 1.80896e-31 0 5.78595e-31 0 1.63105e-30 0 4.21151e-30 0 1.00186e-29 0 2.26935e-29 0 4.77598e-29 0 9.63139e-29 0 1.86514e-28 0 3.47522e-28 0
7.84553 2.41976e-10 2.34007e-10 7.96879e-12 0.0329321 0.020291 0 0 0 0 5.48847e-41 0 4.4163e-38 0 3.87292e-36 0 1.05174e-34 0 1.41588e-33 0 1.21803e-32 0 7.3572e-32 0 3.53043e-31 0 1.40005e-30 0 4.67124e-30 0 1.41164e-29 0 3.78305e-29 0 9.32604e-29 0 2.12662e-28 0 4.62859e-28 0 9.39358e-28 0 1.83056e-27 0 3.43237e-27 0 6.20396e-27 0
8.24824 2.21964e-10 2.15367e-10 6.59663e-12 0.0297194 0.0188718 0 0 2.52234e-44 0 4.05368e-39 0 2.35284e-36 0 1.65847e-34 0 3.83329e-33 0 4.54527e-32 0 3.52012e-31 0 1.94751e-30 0 8.65645e-30 0 3.20954e-29 0 1.00968e-28 0 2.89084e-28 0 7.38312e-28 0 1.74166e-27 0 3.81486e-27 0 7.99366e-27 0 1.56719e-26 0 2.95615e-26 0 5.37535e-26 0 9.4391e-26 0
8.67162 2.01766e-10 1.96328e-10 5.43836e-12 0.0269538 0.0176615 0 0 2.61763e-42 0 2.36488e-37 0 1.00604e-34 0 5.76099e-33 0 1.14228e-31 0 1.20039e-30 0 8.41235e-30 0 4.2812e-29 0 1.76928e-28 0 6.15337e-28 0 1.83042e-27 0 4.97838e-27 0 1.21457e-26 0 2.74756e-26 0 5.7921e-26 0 1.17063e-25 0 2.22084e-25 0 4.06133e-25 0 7.17248e-25 0 1.22533e-24 0
9.11674 1.8212e-10 1.77651e-10 4.46922e-12 0.02454 0.016607 1.4013e-45 0 2.1337e-40 0 1.10423e-35 0 3.49554e-33 0 1.64275e-31 0 2.81519e-30 0 2.63744e-29 0 1.6807e-28 0 7.90021e-28 0 3.04636e-27 0 9.96941e-27 0 2.81185e-26 0 7.28305e-26 0 1.70112e-25 0 3.69788e-25 0 7.51671e-25 0 1.46788e-24 0 2.69906e-24 0 4.79251e-24 0 8.23198e-24 0 1.37004e-23 0
9.5847 1.64041e-10 1.60377e-10 3.66428e-12 0.0223375 0.0156142 1.17709e-43 0 1.37596e-38 0 4.19156e-34 0 1.00173e-31 0 3.90093e-30 0 5.81915e-29 0 4.88758e-28 0 2.84533e-27 0 1.24012e-26 0 4.47701e-26 0 1.38273e-25 0 3.70743e-25 0 9.16673e-25 0 2.05423e-24 0 4.29933e-24 0 8.4418e-24 0 1.59553e-23 0 2.84782e-23 0 4.91688e-23 0 8.22546e-23 0 1.33533e-22 0
10.0767 1.48808e-10 1.45813e-10 2.99585e-12 0.0201323 0.0145423 1.07816e-41 0 7.16683e-37 0 1.31881e-32 0 2.41231e-30 0 7.85602e-29 0 1.02705e-27 0 7.77497e-27 0 4.15322e-26 0 1.68462e-25 0 5.71223e-25 0 1.66972e-24 0 4.26645e-24 0 1.00928e-23 0 2.17439e-23 0 4.38964e-23 0 8.33981e-23 0 1.52802e-22 0 2.65125e-22 0 4.45705e-22 0 7.27122e-22 0 1.15282e-21 0
10.5939 1.3723e-10 1.34785e-10 2.44454e-12 0.0178134 0.0133253 7.95991e-40 0 3.07682e-35 0 3.50533e-31 0 4.97198e-29 0 1.36596e-27 0 1.57514e-26 0 1.08021e-25 0 5.31697e-25 0 2.01414e-24 0 6.43431e-24 0 1.78482e-23 0 4.35639e-23 0 9.88133e-23 0 2.05053e-22 0 4.00002e-22 0 7.36513e-22 0 1.31013e-21 0 2.21285e-21 0 3.62688e-21 0 5.77717e-21 0 8.95565e-21 0
11.1377 1.29815e-10 1.27807e-10 2.00833e-12 0.0154707 0.0120457 4.80857e-38 0 1.1098e-33 0 8.0133e-30 0 8.92383e-28 0 2.08549e-26 0 2.13424e-25 0 1.33231e-24 0 6.06692e-24 0 2.15354e-23 0 6.50037e-23 0 1.71553e-22 0 4.00874e-22 0 8.73636e-22 0 1.74945e-21 0 3.30315e-21 0 5.90341e-21 0 1.021e-20 0 1.68092e-20 0 2.68938e-20 0 4.18758e-20 0 6.35404e-20 0
