# 2.2373e-05 0 66 : grain size, compostion index, size index
# Heating and cooling timescale: 0.0101412 25734.7
# Ratio of heating to cooling to determine stochastic cutoff: 100
# Equilibrium emission is recorded even for those grains in the stochastic regime.
# Emission spectrum was computed for: 
# Type: ISRF
# Scales: 0.25 0.5 1 1.5 2 2.5 3 3.5 4 4.5 5 5.5 6 6.5 7 7.5 8 8.5 9 9.5 10
# StochasticallyHeated: 0 0 0 0 0 0 0 0 0 0 0 0 0 0 0 0 0 0 0 0 0
# Temperature: -1
# Wavelength  CExt  CAbs  CSca  Albedo G EqEm1 StEm1 EqEm2 StEm2 EqEm3 StEm3 EqEm4 StEm4 EqEm5 StEm5 EqEm6 StEm6 EqEm7 StEm7 EqEm8 StEm8 EqEm9 StEm9 EqEm10 StEm10 EqEm11 StEm11 EqEm12 StEm12 EqEm13 StEm13 EqEm14 StEm14 EqEm15 StEm15 EqEm16 StEm16 EqEm17 StEm17 EqEm18 StEm18 EqEm19 StEm19 EqEm20 StEm20 EqEm21 StEm21
0.05 3.16843e-09 1.40396e-09 1.76447e-09 0.556891 0.961921 0 0 0 0 0 0 0 0 0 0 0 0 0 0 0 0 0 0 0 0 0 0 0 0 0 0 0 0 0 0 0 0 0 0 0 0 0 0 0 0 0 0
0.0525665 3.18359e-09 1.40811e-09 1.77549e-09 0.557699 0.958457 0 0 0 0 0 0 0 0 0 0 0 0 0 0 0 0 0 0 0 0 0 0 0 0 0 0 0 0 0 0 0 0 0 0 0 0 0 0 0 0 0 0
0.0552647 3.1999e-09 1.41256e-09 1.78733e-09 0.55856 0.954506 0 0 0 0 0 0 0 0 0 0 0 0 0 0 0 0 0 0 0 0 0 0 0 0 0 0 0 0 0 0 0 0 0 0 0 0 0 0 0 0 0 0
0.0581015 3.21765e-09 1.41762e-09 1.80003e-09 0.559424 0.950042 0 0 0 0 0 0 0 0 0 0 0 0 0 0 0 0 0 0 0 0 0 0 0 0 0 0 0 0 0 0 0 0 0 0 0 0 0 0 0 0 0 0
0.0610839 3.23699e-09 1.42314e-09 1.81385e-09 0.56035 0.945014 0 0 0 0 0 0 0 0 0 0 0 0 0 0 0 0 0 0 0 0 0 0 0 0 0 0 0 0 0 0 0 0 0 0 0 0 0 0 0 0 0 0
0.0642193 3.25799e-09 1.42948e-09 1.82851e-09 0.561238 0.939441 0 0 0 0 0 0 0 0 0 0 0 0 0 0 0 0 0 0 0 0 0 0 0 0 0 0 0 0 0 0 0 0 0 0 0 0 0 0 0 0 0 0
0.0675157 3.28126e-09 1.43709e-09 1.84417e-09 0.562031 0.933389 0 0 0 0 0 0 0 0 0 0 0 0 0 0 0 0 0 0 0 0 0 0 0 0 0 0 0 0 0 0 0 0 0 0 0 0 0 0 0 0 0 0
0.0709813 3.30678e-09 1.44638e-09 1.8604e-09 0.562603 0.926955 0 0 0 0 0 0 0 0 0 0 0 0 0 0 0 0 0 0 0 0 0 0 0 0 0 0 0 0 0 0 0 0 0 0 0 0 0 0 0 0 0 0
0.0746248 3.33554e-09 1.45901e-09 1.87653e-09 0.562586 0.92046 0 0 0 0 0 0 0 0 0 0 0 0 0 0 0 0 0 0 0 0 0 0 0 0 0 0 0 0 0 0 0 0 0 0 0 0 0 0 0 0 0 0
0.0784553 3.36702e-09 1.47896e-09 1.88806e-09 0.560752 0.915113 0 0 0 0 0 0 0 0 0 0 0 0 0 0 0 0 0 0 0 0 0 0 0 0 0 0 0 0 0 0 0 0 0 0 0 0 0 0 0 0 0 0
0.0824824 3.39773e-09 1.50579e-09 1.89193e-09 0.556824 0.911952 0 0 0 0 0 0 0 0 0 0 0 0 0 0 0 0 0 0 0 0 0 0 0 0 0 0 0 0 0 0 0 0 0 0 0 0 0 0 0 0 0 0
0.0867162 3.42658e-09 1.53639e-09 1.89019e-09 0.551625 0.910533 0 0 0 0 0 0 0 0 0 0 0 0 0 0 0 0 0 0 0 0 0 0 0 0 0 0 0 0 0 0 0 0 0 0 0 0 0 0 0 0 0 0
0.0911674 3.45335e-09 1.56865e-09 1.88469e-09 0.545759 0.910346 0 0 0 0 0 0 0 0 0 0 0 0 0 0 0 0 0 0 0 0 0 0 0 0 0 0 0 0 0 0 0 0 0 0 0 0 0 0 0 0 0 0
0.095847 3.47736e-09 1.60123e-09 1.87613e-09 0.539527 0.911108 0 0 0 0 0 0 0 0 0 0 0 0 0 0 0 0 0 0 0 0 0 0 0 0 0 0 0 0 0 0 0 0 0 0 0 0 0 0 0 0 0 0
0.100767 3.49861e-09 1.63278e-09 1.86583e-09 0.533306 0.912386 0 0 0 0 0 0 0 0 0 0 0 0 0 0 0 0 0 0 0 0 0 0 0 0 0 0 0 0 0 0 0 0 0 0 0 0 0 0 0 0 0 0
0.105939 3.51672e-09 1.66219e-09 1.85453e-09 0.527347 0.9138 0 0 0 0 0 0 0 0 0 0 0 0 0 0 0 0 0 0 0 0 0 0 0 0 0 0 0 0 0 0 0 0 0 0 0 0 0 0 0 0 0 0
0.111377 3.53217e-09 1.68851e-09 1.84367e-09 0.521963 0.914825 0 0 0 0 0 0 0 0 0 0 0 0 0 0 0 0 0 0 0 0 0 0 0 0 0 0 0 0 0 0 0 0 0 0 0 0 0 0 0 0 0 0
0.117094 3.54544e-09 1.71104e-09 1.8344e-09 0.517397 0.914995 0 0 0 0 0 0 0 0 0 0 0 0 0 0 0 0 0 0 0 0 0 0 0 0 0 0 0 0 0 0 0 0 0 0 0 0 0 0 0 0 0 0
0.123105 3.55673e-09 1.72882e-09 1.82791e-09 0.51393 0.913792 0 0 0 0 0 0 0 0 0 0 0 0 0 0 0 0 0 0 0 0 0 0 0 0 0 0 0 0 0 0 0 0 0 0 0 0 0 0 0 0 0 0
0.129424 3.56688e-09 1.74197e-09 1.82491e-09 0.511626 0.910967 0 0 0 0 0 0 0 0 0 0 0 0 0 0 0 0 0 0 0 0 0 0 0 0 0 0 0 0 0 0 0 0 0 0 0 0 0 0 0 0 0 0
0.136067 3.57673e-09 1.75085e-09 1.82588e-09 0.510489 0.906443 0 0 0 0 0 0 0 0 0 0 0 0 0 0 0 0 0 0 0 0 0 0 0 0 0 0 0 0 0 0 0 0 0 0 0 0 0 0 0 0 0 0
0.143051 3.58743e-09 1.75654e-09 1.83089e-09 0.510364 0.900422 0 0 0 0 0 0 0 0 0 0 0 0 0 0 0 0 0 0 0 0 0 0 0 0 0 0 0 0 0 0 0 0 0 0 0 0 0 0 0 0 0 0
0.150394 3.60017e-09 1.76049e-09 1.83968e-09 0.510998 0.893314 0 0 0 0 0 0 0 0 0 0 0 0 0 0 0 0 0 0 0 0 0 0 0 0 0 0 0 0 0 0 0 0 0 0 0 0 0 0 0 0 0 0
0.158114 3.61686e-09 1.76447e-09 1.8524e-09 0.512156 0.885458 0 0 0 0 0 0 0 0 0 0 0 0 0 0 0 0 0 0 0 0 0 0 0 0 0 0 0 0 0 0 0 0 0 0 0 0 0 0 0 0 0 0
0.16623 3.63876e-09 1.76998e-09 1.86879e-09 0.513578 0.877224 0 0 0 0 0 0 0 0 0 0 0 0 0 0 0 0 0 0 0 0 0 0 0 0 0 0 0 0 0 0 0 0 0 0 0 0 0 0 0 0 0 0
0.174762 3.66716e-09 1.77799e-09 1.88918e-09 0.51516 0.868833 0 0 0 0 0 0 0 0 0 0 0 0 0 0 0 0 0 0 0 0 0 0 0 0 0 0 0 0 0 0 0 0 0 0 0 0 0 0 0 0 0 0
0.183733 3.70294e-09 1.78931e-09 1.91363e-09 0.516786 0.860448 0 0 0 0 0 0 0 0 0 0 0 0 0 0 0 0 0 0 0 0 0 0 0 0 0 0 0 0 0 0 0 0 0 0 0 0 0 0 0 0 0 0
0.193164 3.74616e-09 1.80458e-09 1.94158e-09 0.518285 0.85219 0 0 0 0 0 0 0 0 0 0 0 0 0 0 0 0 0 0 0 0 0 0 0 0 0 0 0 0 0 0 0 0 0 0 0 0 0 0 0 0 0 0
0.203079 3.79548e-09 1.82366e-09 1.97182e-09 0.519517 0.84415 0 0 0 0 0 0 0 0 0 0 0 0 0 0 0 0 0 0 0 0 0 0 0 0 0 0 0 0 0 0 0 0 0 0 0 0 0 0 0 0 0 0
0.213503 3.84948e-09 1.84644e-09 2.00305e-09 0.520341 0.836396 0 0 0 0 0 0 0 0 0 0 0 0 0 0 0 0 0 0 0 0 0 0 0 0 0 0 0 0 0 0 0 0 0 0 0 0 0 0 0 0 0 0
0.224463 3.90502e-09 1.87307e-09 2.03194e-09 0.520341 0.828989 0 0 0 0 0 0 0 0 0 0 0 0 0 0 0 0 0 0 0 0 0 0 0 0 0 0 0 0 0 0 0 0 0 0 0 0 0 0 0 0 0 0
0.235984 3.95662e-09 1.90232e-09 2.0543e-09 0.519205 0.821571 0 0 0 0 0 0 0 0 0 0 0 0 0 0 0 0 0 0 0 0 0 0 0 0 0 0 0 0 0 0 0 0 0 0 0 0 0 0 0 0 0 0
0.248097 3.99669e-09 1.93228e-09 2.06441e-09 0.516529 0.813739 0 0 0 0 0 0 0 0 0 0 0 0 0 0 0 0 0 0 0 0 0 0 0 0 0 0 0 0 0 0 0 0 0 0 0 0 0 0 0 0 0 0
0.260832 4.02016e-09 1.96553e-09 2.05463e-09 0.511081 0.805036 0 0 0 0 0 0 0 0 0 0 0 0 0 0 0 0 0 0 0 0 0 0 0 0 0 0 0 0 0 0 0 0 0 0 0 0 0 0 0 0 0 0
0.274221 4.0192e-09 1.99859e-09 2.02061e-09 0.502739 0.793249 0 0 0 0 0 0 0 0 0 0 0 0 0 0 0 0 0 0 0 0 0 0 0 0 0 0 0 0 0 0 0 0 0 0 0 0 0 0 0 0 0 0
0.288297 3.98918e-09 2.02062e-09 1.96856e-09 0.493475 0.777328 0 0 0 0 0 0 0 0 0 0 0 0 0 0 0 0 0 0 0 0 0 0 0 0 0 0 0 0 0 0 0 0 0 0 0 0 0 0 0 0 0 0
0.303095 3.97359e-09 2.05134e-09 1.92225e-09 0.483756 0.760203 0 0 0 0 0 0 0 0 0 0 0 0 0 0 0 0 0 0 0 0 0 0 0 0 0 0 0 0 0 0 0 0 0 0 0 0 0 0 0 0 0 0
0.318653 3.98613e-09 2.08076e-09 1.90537e-09 0.477999 0.739327 0 0 0 0 0 0 0 0 0 0 0 0 0 0 0 0 0 0 0 0 0 0 0 0 0 0 0 0 0 0 0 0 0 0 0 0 0 0 0 0 0 0
0.335009 4.01448e-09 2.06159e-09 1.95289e-09 0.486462 0.716246 0 0 0 0 0 0 0 0 0 0 0 0 0 0 0 0 0 0 0 0 0 0 0 0 0 0 0 0 0 0 0 0 0 0 0 0 0 0 0 0 0 0
0.352205 4.17991e-09 2.05422e-09 2.12569e-09 0.50855 0.707699 0 0 0 0 0 0 0 0 0 0 0 0 0 0 0 0 0 0 0 0 0 0 0 0 0 0 0 0 0 0 0 0 0 0 0 0 0 0 0 0 0 0
0.370284 4.46896e-09 2.0745e-09 2.39446e-09 0.535798 0.708851 0 0 0 0 0 0 0 0 0 0 0 0 0 0 0 0 0 0 0 0 0 0 0 0 0 0 0 0 0 0 0 0 0 0 0 0 0 0 0 0 0 0
0.389291 4.70973e-09 2.02839e-09 2.68134e-09 0.56932 0.705398 0 0 0 0 0 0 0 0 0 0 0 0 0 0 0 0 0 0 0 0 0 0 0 0 0 0 0 0 0 0 0 0 0 0 0 0 0 0 0 0 0 0
0.409273 4.98233e-09 1.94405e-09 3.03828e-09 0.609811 0.705637 0 0 0 0 0 0 0 0 0 0 0 0 0 0 0 0 0 0 0 0 0 0 0 0 0 0 0 0 0 0 0 0 0 0 0 0 0 0 0 0 0 0
0.430281 5.39326e-09 1.91025e-09 3.48301e-09 0.645808 0.714483 0 0 0 0 0 0 0 0 0 0 0 0 0 0 0 0 0 0 0 0 0 0 0 0 0 0 0 0 0 0 0 0 0 0 0 0 0 0 0 0 0 0
0.452368 5.775e-09 1.89947e-09 3.87554e-09 0.671088 0.721379 0 0 0 0 0 0 0 0 0 0 0 0 0 0 0 0 0 0 0 0 0 0 0 0 0 0 0 0 0 0 0 0 0 0 0 0 0 0 0 0 0 0
0.475588 5.95809e-09 1.84575e-09 4.11234e-09 0.690212 0.718758 0 0 0 0 0 0 0 0 0 0 0 0 0 0 0 0 0 0 0 0 0 0 0 0 0 0 0 0 0 0 0 0 0 0 0 0 0 0 0 0 0 0
0.5 6.02411e-09 1.75073e-09 4.27338e-09 0.709379 0.708747 0 0 0 0 0 0 0 0 0 0 0 0 0 0 0 0 0 0 0 0 0 0 0 0 0 0 0 0 0 0 0 0 0 0 0 0 0 0 0 0 0 0
0.525665 6.10573e-09 1.66926e-09 4.43648e-09 0.726608 0.700089 0 0 0 0 0 0 0 0 0 0 0 0 0 0 0 0 0 0 0 0 0 0 0 0 0 0 0 0 0 0 0 0 0 0 0 0 0 0 0 0 0 0
0.552648 6.18877e-09 1.63718e-09 4.55159e-09 0.73546 0.697433 0 0 0 0 0 0 0 0 0 0 0 0 0 0 0 0 0 0 0 0 0 0 0 0 0 0 0 0 0 0 0 0 0 0 0 0 0 0 0 0 0 0
0.581015 6.20093e-09 1.63625e-09 4.56468e-09 0.736129 0.69769 0 0 0 0 0 0 0 0 0 0 0 0 0 0 0 0 0 0 0 0 0 0 0 0 0 0 0 0 0 0 0 0 0 0 0 0 0 0 0 0 0 0
0.610839 6.08902e-09 1.62894e-09 4.46008e-09 0.732479 0.694081 0 0 0 0 0 0 0 0 0 0 0 0 0 0 0 0 0 0 0 0 0 0 0 0 0 0 0 0 0 0 0 0 0 0 0 0 0 0 0 0 0 0
0.642193 5.86208e-09 1.5853e-09 4.27678e-09 0.729566 0.680603 0 0 0 0 0 0 0 0 0 0 0 0 0 0 0 0 0 0 0 0 0 0 0 0 0 0 0 0 0 0 0 0 0 0 0 0 0 0 0 0 0 0
0.675157 5.57584e-09 1.50626e-09 4.06958e-09 0.729859 0.656314 0 0 0 0 0 0 0 0 0 0 0 0 0 0 0 0 0 0 0 0 0 0 0 0 0 0 0 0 0 0 0 0 0 0 0 0 0 0 0 0 0 0
0.709813 5.29095e-09 1.41886e-09 3.87209e-09 0.731833 0.625985 0 0 0 0 0 0 0 0 0 0 0 0 0 0 0 0 0 0 0 0 0 0 0 0 0 0 0 0 0 0 0 0 0 0 0 0 0 0 0 0 0 0
0.746248 5.04003e-09 1.35203e-09 3.688e-09 0.731741 0.596465 0 0 0 0 0 0 0 0 0 0 0 0 0 0 0 0 0 0 0 0 0 0 0 0 0 0 0 0 0 0 0 0 0 0 0 0 0 0 0 0 0 0
0.784553 4.82187e-09 1.3194e-09 3.50248e-09 0.726373 0.572678 0 0 0 0 0 0 0 0 0 0 0 0 0 0 0 0 0 0 0 0 0 0 0 0 0 0 0 0 0 0 0 0 0 0 0 0 0 0 0 0 0 0
0.824824 4.61399e-09 1.31634e-09 3.29765e-09 0.714707 0.556086 0 0 0 0 0 0 0 0 0 0 0 0 0 0 0 0 0 0 0 0 0 0 0 0 0 0 0 0 0 0 0 0 0 0 0 0 0 0 0 0 0 0
0.867162 4.38761e-09 1.32572e-09 3.06189e-09 0.697849 0.544999 0 0 0 0 0 0 0 0 0 0 0 0 0 0 0 0 0 0 0 0 0 0 0 0 0 0 0 0 0 0 0 0 0 0 0 0 0 0 0 0 0 0
0.911674 4.12218e-09 1.32665e-09 2.79554e-09 0.678169 0.535657 0 0 0 0 0 0 0 0 0 0 0 0 0 0 0 0 0 0 0 0 0 0 0 0 0 0 0 0 0 0 0 0 0 0 0 0 0 0 0 0 0 0
0.95847 3.81345e-09 1.30356e-09 2.50989e-09 0.658167 0.523744 0 0 0 0 0 0 0 0 0 0 0 0 0 0 0 0 0 0 0 0 0 0 0 0 0 0 0 0 0 0 0 0 0 0 0 0 0 0 0 0 0 0
1.00767 3.47381e-09 1.25176e-09 2.22205e-09 0.639657 0.505915 0 0 0 0 0 0 0 0 0 0 0 0 0 0 0 0 0 0 0 0 0 0 0 0 0 0 0 0 0 0 0 0 0 0 0 0 0 0 0 0 0 0
1.05939 3.12387e-09 1.17697e-09 1.9469e-09 0.623234 0.481002 0 0 0 0 0 0 0 0 0 0 0 0 0 0 0 0 0 0 0 0 0 0 0 0 0 0 0 0 0 0 0 0 0 0 0 0 0 0 0 0 0 0
1.11377 2.78293e-09 1.08957e-09 1.69336e-09 0.608481 0.450055 0 0 0 0 0 0 0 0 0 0 0 0 0 0 0 0 0 0 0 0 0 0 0 0 0 0 0 0 0 0 0 0 0 0 0 0 0 0 0 0 0 0
1.17094 2.46403e-09 9.99241e-10 1.46479e-09 0.594469 0.415365 0 0 0 0 0 0 0 0 0 0 0 0 0 0 0 0 0 0 0 0 0 0 0 0 0 0 0 0 0 0 0 0 0 0 0 0 0 0 0 0 0 0
1.23105 2.17335e-09 9.12525e-10 1.26083e-09 0.580131 0.379426 0 0 0 0 0 0 0 0 0 0 0 0 0 0 0 0 0 0 0 0 0 0 0 0 0 0 0 0 0 0 0 0 0 0 0 0 0 0 0 0 0 0
1.29424 1.91262e-09 8.32655e-10 1.07996e-09 0.564652 0.344233 0 0 0 0 0 0 0 0 0 0 0 0 0 0 0 0 0 0 0 0 0 0 0 0 0 0 0 0 0 0 0 0 0 0 0 0 0 0 0 0 0 0
1.36067 1.68108e-09 7.60656e-10 9.20429e-10 0.547521 0.31106 0 0 0 0 0 0 0 0 0 0 0 0 0 0 0 0 0 0 0 0 0 0 0 0 0 0 0 0 0 0 0 0 0 0 0 0 0 0 0 0 0 0
1.43051 1.47683e-09 6.96259e-10 7.80573e-10 0.528546 0.280543 0 0 0 0 0 0 0 0 0 0 0 0 0 0 0 0 0 0 0 0 0 0 0 0 0 0 0 0 0 0 0 0 0 0 0 0 0 0 0 0 0 0
1.50394 1.29753e-09 6.38714e-10 6.58813e-10 0.507745 0.252893 0 0 0 0 0 0 0 0 0 0 0 0 0 0 0 0 0 0 0 0 0 0 0 0 0 0 0 0 0 0 0 0 0 0 0 0 0 0 0 0 0 0
1.58114 1.14076e-09 5.87129e-10 5.53634e-10 0.485319 0.228038 0 0 0 0 0 0 0 0 0 0 0 0 0 0 0 0 0 0 0 0 0 0 0 0 0 0 0 0 0 0 0 0 0 0 0 0 0 0 0 0 0 0
1.6623 1.00414e-09 5.4071e-10 4.63434e-10 0.461522 0.205796 0 0 0 0 0 0 0 0 0 0 0 0 0 0 0 0 0 0 0 0 0 0 0 0 0 0 0 0 0 0 0 0 0 0 0 0 0 0 0 0 0 0
1.74763 8.85387e-10 4.98754e-10 3.86632e-10 0.436682 0.185922 0 0 0 0 0 0 0 0 0 0 0 0 0 0 0 0 0 0 0 0 0 0 0 0 0 0 0 0 0 0 0 0 0 0 0 0 0 0 0 0 0 0
1.83733 7.82336e-10 4.607e-10 3.21637e-10 0.411123 0.168147 0 0 0 0 0 0 0 0 0 0 0 0 0 0 0 0 0 0 0 0 0 0 0 0 0 0 0 0 0 0 0 0 0 0 0 0 0 0 0 0 0 0
1.93164 6.93045e-10 4.26102e-10 2.66943e-10 0.385175 0.152225 0 0 0 0 0 0 0 0 0 0 0 0 0 0 0 0 0 0 0 0 0 0 0 0 0 0 0 0 0 0 0 0 0 0 0 0 0 0 0 0 0 0
2.03079 6.15754e-10 3.94574e-10 2.21179e-10 0.359201 0.13797 0 0 0 0 0 0 0 0 0 0 0 0 0 0 0 0 0 0 0 0 0 0 0 0 0 0 0 0 0 0 0 0 0 0 0 0 0 0 0 0 0 0
2.13503 5.48781e-10 3.6579e-10 1.8299e-10 0.333449 0.125157 0 0 0 0 0 0 0 0 0 0 0 0 0 0 0 0 0 0 0 0 0 0 0 0 0 0 0 0 0 0 0 0 0 0 0 0 0 0 0 0 0 0
2.24463 4.90681e-10 3.39474e-10 1.51207e-10 0.308157 0.113617 0 0 0 0 0 0 0 0 0 0 0 0 0 0 0 0 0 0 0 0 0 0 0 0 0 0 0 0 0 0 0 0 0 0 0 0 0 0 0 0 0 0
2.35984 4.4021e-10 3.15389e-10 1.24822e-10 0.28355 0.103211 0 0 0 0 0 0 0 0 0 0 0 0 0 0 0 0 0 0 0 0 0 0 0 0 0 0 0 0 0 0 0 0 0 0 0 0 0 0 0 0 0 0
2.48097 3.96267e-10 2.93309e-10 1.02958e-10 0.259819 0.0938095 0 0 0 0 0 0 0 0 0 0 0 0 0 0 0 0 0 0 0 0 0 0 0 0 0 0 0 0 0 0 0 0 0 0 0 0 0 0 0 0 0 0
2.60832 3.57944e-10 2.73077e-10 8.48672e-11 0.237096 0.0852998 0 0 0 0 0 0 0 0 0 0 0 0 0 0 0 0 0 0 0 0 0 0 0 0 0 0 0 0 0 0 0 0 0 0 0 0 0 0 0 0 0 0
2.74221 3.24435e-10 2.54523e-10 6.99123e-11 0.215489 0.0775896 0 0 0 0 0 0 0 0 0 0 0 0 0 0 0 0 0 0 0 0 0 0 0 0 0 0 0 0 0 0 0 0 0 0 0 0 0 0 0 0 0 0
2.88297 2.95081e-10 2.37526e-10 5.75556e-11 0.19505 0.0705965 0 0 0 0 0 0 0 0 0 0 0 0 0 0 0 0 0 0 0 0 0 0 0 0 0 0 0 0 0 0 0 0 0 0 0 0 0 0 0 0 0 0
3.03095 2.69329e-10 2.22018e-10 4.73116e-11 0.175664 0.0642372 0 0 0 0 0 0 0 0 0 0 0 0 0 0 0 0 0 0 0 0 0 0 0 0 0 0 0 0 0 0 0 0 0 0 0 0 0 0 0 0 0 0
3.18653 2.47399e-10 2.08593e-10 3.88055e-11 0.156854 0.05847 0 0 0 0 0 0 0 0 0 0 0 0 0 0 0 0 0 0 0 0 0 0 0 0 0 0 0 0 0 0 0 0 0 0 0 0 0 0 0 0 0 0
3.35009 2.3907e-10 2.07264e-10 3.18059e-11 0.13304 0.053249 0 0 0 0 0 0 0 0 0 0 0 0 0 0 0 0 0 0 0 0 0 0 0 0 0 0 0 0 0 0 0 0 0 0 0 0 0 0 0 0 0 0
3.52205 2.16972e-10 1.89635e-10 2.73365e-11 0.125991 0.048516 0 0 0 0 0 0 0 0 0 0 0 0 0 0 0 0 0 0 0 0 0 0 0 0 0 0 0 0 0 0 0 0 0 0 0 0 0 0 0 0 0 0
3.70284 1.90808e-10 1.68738e-10 2.20698e-11 0.115665 0.0441447 0 0 0 0 0 0 0 0 0 0 0 0 0 0 0 0 0 0 0 0 0 0 0 0 0 0 0 0 0 0 0 0 0 0 0 0 0 0 0 0 0 0
3.89291 1.76343e-10 1.58235e-10 1.81078e-11 0.102685 0.0401933 0 0 0 0 0 0 0 0 0 0 0 0 0 0 0 0 0 0 0 0 0 0 0 0 0 0 0 0 0 0 0 0 0 0 0 0 0 0 0 0 0 0
4.09273 1.63373e-10 1.48483e-10 1.48895e-11 0.0911386 0.0365991 0 0 0 0 0 0 0 0 0 0 0 0 0 0 0 0 0 0 0 0 0 0 0 0 0 0 0 0 0 0 0 0 0 0 0 0 0 0 0 0 0 0
4.30281 1.51662e-10 1.39412e-10 1.22499e-11 0.0807712 0.0333249 0 0 0 0 0 0 0 0 0 0 0 0 0 0 0 0 0 0 0 0 0 0 0 0 0 0 0 0 0 0 0 0 0 0 0 0 0 0 0 0 0 0
4.52368 1.41052e-10 1.3097e-10 1.00821e-11 0.0714777 0.0303448 0 0 0 0 0 0 0 0 0 0 0 0 0 0 0 0 0 0 0 0 0 0 0 0 0 0 0 0 0 0 0 0 0 0 0 0 0 0 0 0 0 0
4.75588 1.31407e-10 1.23109e-10 8.29798e-12 0.0631473 0.0276279 0 0 0 0 0 0 0 0 0 0 0 0 0 0 0 0 0 0 0 0 0 0 0 0 0 0 0 0 0 0 0 0 0 0 0 0 0 0 0 0 0 0
5 1.22622e-10 1.15792e-10 6.83045e-12 0.0557031 0.0251535 0 0 0 0 0 0 0 0 0 0 0 0 0 0 0 0 0 0 0 0 0 0 0 0 0 0 0 0 0 0 0 0 0 0 0 0 0 0 0 0 0 0
5.25665 1.14604e-10 1.08982e-10 5.6217e-12 0.0490533 0.0228972 0 0 0 0 0 0 0 0 0 0 0 0 0 0 0 0 0 0 0 0 0 0 0 0 0 0 0 0 0 0 0 0 0 0 0 0 0 0 1.4013e-45 0 4.2039e-45 0
5.52648 1.07292e-10 1.02666e-10 4.62589e-12 0.0431149 0.0208369 0 0 0 0 0 0 0 0 0 0 0 0 0 0 0 0 0 0 0 0 0 0 0 0 0 0 0 0 0 0 1.4013e-45 0 7.00649e-45 0 2.24208e-44 0 7.00649e-44 0 2.10195e-43 0 5.60519e-43 0
5.81015 1.00726e-10 9.69223e-11 3.8042e-12 0.0377677 0.0189507 0 0 0 0 0 0 0 0 0 0 0 0 0 0 0 0 0 0 0 0 0 0 0 0 2.8026e-45 0 1.26117e-44 0 5.74532e-44 0 2.20004e-43 0 7.93135e-43 0 2.52794e-42 0 7.67912e-42 0 2.18e-41 0 5.564e-41 0
6.10839 9.61475e-11 9.30228e-11 3.12471e-12 0.0324991 0.0171986 0 0 0 0 0 0 0 0 0 0 0 0 0 0 0 0 0 0 1.4013e-45 0 8.40779e-45 0 5.74532e-44 0 3.20897e-43 0 1.50079e-42 0 6.39833e-42 0 2.2872e-41 0 7.73993e-41 0 2.33242e-40 0 6.71106e-40 0 1.81048e-39 0 4.41424e-39 0
6.42193 8.99284e-11 8.73314e-11 2.59707e-12 0.0288793 0.0157946 0 0 0 0 0 0 0 0 0 0 0 0 0 0 1.4013e-45 0 1.26117e-44 0 1.26117e-43 0 9.76705e-43 0 6.1559e-42 0 3.15642e-41 0 1.3696e-40 0 5.44099e-40 0 1.82758e-39 0 5.82712e-39 0 1.66391e-38 0 4.54679e-38 0 1.16859e-37 0 2.7279e-37 0
6.75157 8.45464e-11 8.24184e-11 2.12794e-12 0.0251689 0.0143386 0 0 0 0 0 0 0 0 0 0 0 0 4.2039e-45 0 1.02295e-43 0 1.38588e-42 0 1.29088e-41 0 9.00923e-41 0 5.19192e-40 0 2.45779e-39 0 9.92733e-39 0 3.68693e-38 0 1.16727e-37 0 3.51693e-37 0 9.54094e-37 0 2.48229e-36 0 6.09249e-36 0 1.36453e-35 0
7.09813 8.04843e-11 7.87288e-11 1.75547e-12 0.0218114 0.0130182 0 0 0 0 0 0 0 0 0 0 1.54143e-44 0 5.47908e-43 0 1.04579e-41 0 1.25296e-40 0 1.04697e-39 0 6.64548e-39 0 3.51584e-38 0 1.54269e-37 0 5.82058e-37 0 2.02758e-36 0 6.06803e-36 0 1.73242e-35 0 4.47629e-35 0 1.11149e-34 0 2.61101e-34 0 5.62212e-34 0
7.46248 7.64973e-11 7.50539e-11 1.44339e-12 0.0188685 0.0118089 0 0 0 0 0 0 0 0 2.24208e-44 0 1.74181e-42 0 5.0982e-41 0 8.42901e-40 0 8.94609e-39 0 6.73931e-38 0 3.9086e-37 0 1.90634e-36 0 7.78204e-36 0 2.75184e-35 0 9.01928e-35 0 2.55858e-34 0 6.93999e-34 0 1.71197e-33 0 4.06628e-33 0 9.16205e-33 0 1.9003e-32 0
7.84553 7.41946e-11 7.29874e-11 1.20718e-12 0.0162704 0.010889 0 0 0 0 0 0 8.40779e-45 0 2.43265e-42 0 1.54064e-40 0 3.82384e-39 0 5.5128e-38 0 5.21366e-37 0 3.55883e-36 0 1.89427e-35 0 8.55106e-35 0 3.25902e-34 0 1.08352e-33 0 3.35129e-33 0 9.03505e-33 0 2.33417e-32 0 5.50965e-32 0 1.25453e-31 0 2.71677e-31 0 5.43766e-31 0
8.24824 6.62159e-11 6.52242e-11 9.91677e-13 0.0149764 0.00992537 0 0 0 0 0 0 9.26258e-43 0 1.91899e-40 0 9.92479e-39 0 2.1058e-37 0 2.66508e-36 0 2.2586e-35 0 1.40371e-34 0 6.88584e-34 0 2.88787e-33 0 1.03104e-32 0 3.23258e-32 0 9.46201e-32 0 2.43037e-31 0 5.99444e-31 0 1.35684e-30 0 2.96783e-30 0 6.18908e-30 0 1.19749e-29 0
8.67162 6.3133e-11 6.2314e-11 8.19019e-13 0.0129729 0.00905266 0 0 0 0 3.92364e-44 0 8.04752e-41 0 1.28458e-38 0 5.47949e-37 0 1.00153e-35 0 1.11979e-34 0 8.5497e-34 0 4.86014e-33 0 2.20601e-32 0 8.62639e-32 0 2.89428e-31 0 8.58194e-31 0 2.38367e-30 0 5.847e-30 0 1.37996e-29 0 3.00141e-29 0 6.31888e-29 0 1.27128e-28 0 2.38173e-28 0
9.11674 5.78687e-11 5.71962e-11 6.72552e-13 0.011622 0.00823225 0 0 0 0 3.72465e-42 0 5.32236e-39 0 6.6319e-37 0 2.35524e-35 0 3.73547e-34 0 3.71217e-33 0 2.56649e-32 0 1.34026e-31 0 5.65033e-31 0 2.06719e-30 0 6.5377e-30 0 1.83833e-29 0 4.85761e-29 0 1.14047e-28 0 2.58112e-28 0 5.40494e-28 0 1.09729e-27 0 2.13353e-27 0 3.87649e-27 0
9.5847 5.4383e-11 5.38302e-11 5.52798e-13 0.0101649 0.00748197 0 0 0 0 2.88728e-40 0 2.89348e-37 0 2.84867e-35 0 8.4985e-34 0 1.17774e-32 0 1.04626e-31 0 6.58193e-31 0 3.1707e-30 0 1.24603e-29 0 4.27892e-29 0 1.27927e-28 0 3.4201e-28 0 8.61858e-28 0 1.94088e-27 0 4.2209e-27 0 8.52543e-27 0 1.67198e-26 0 3.1471e-26 0 5.55377e-26 0
10.0767 5.12451e-11 5.07903e-11 4.54823e-13 0.00887544 0.00680464 0 0 6.44597e-44 0 1.78689e-38 0 1.27794e-35 0 1.00558e-33 0 2.54165e-32 0 3.09798e-31 0 2.47375e-30 0 1.42257e-29 0 6.34657e-29 0 2.33288e-28 0 7.54287e-28 0 2.13769e-27 0 5.44714e-27 0 1.3121e-26 0 2.83999e-26 0 5.94634e-26 0 1.16052e-25 0 2.20235e-25 0 4.01935e-25 0 6.89905e-25 0
10.5939 4.8338e-11 4.79637e-11 3.74293e-13 0.00774325 0.00618968 0 0 5.96533e-42 0 8.91392e-37 0 4.62509e-34 0 2.94075e-32 0 6.34852e-31 0 6.84881e-30 0 4.94128e-29 0 2.60894e-28 0 1.08198e-27 0 3.73226e-27 0 1.13955e-26 0 3.06939e-26 0 7.4721e-26 0 1.72425e-25 0 3.59399e-25 0 7.25838e-25 0 1.37109e-24 0 2.52182e-24 0 4.46917e-24 0 7.47144e-24 0
11.1377 4.57359e-11 4.54278e-11 3.081e-13 0.00673649 0.0056303 1.4013e-45 0 4.34578e-40 0 3.62991e-35 0 1.38799e-32 0 7.20575e-31 0 1.33891e-29 0 1.28606e-28 0 8.42528e-28 0 4.10136e-27 0 1.5868e-26 0 5.1525e-26 0 1.48974e-25 0 3.82314e-25 0 8.91141e-25 0 1.97412e-24 0 3.96986e-24 0 7.74703e-24 0 1.41865e-23 0 2.5328e-23 0 4.36496e-23 0 7.11643e-23 0
11.7094 4.30856e-11 4.28317e-11 2.53843e-13 0.0058916 0.00512655 1.079e-43 0 2.51869e-38 0 1.20976e-33 0 3.46022e-31 0 1.48132e-29 0 2.38649e-28 0 2.05257e-27 0 1.22678e-26 0 5.52777e-26 0 2.00196e-25 0 6.13732e-25 0 1.68484e-24 0 4.12938e-24 0 9.23562e-24 0 1.96801e-23 0 3.82487e-23 0 7.22437e-23 0 1.28443e-22 0 2.22919e-22 0 3.74099e-22 0 5.9553e-22 0
12.3105 4.06835e-11 4.04745e-11 2.08963e-13 0.00513631 0.00466387 9.278e-42 0 1.18201e-36 0 3.35408e-32 0 7.27856e-30 0 2.59377e-28 0 3.64844e-27 0 2.825e-26 0 1.5473e-25 0 6.47797e-25 0 2.20321e-24 0 6.39478e-24 0 1.67106e-23 0 3.92022e-23 0 8.42992e-23 0 1.73119e-22 0 3.25719e-22 0 5.96405e-22 0 1.03098e-21 0 1.7418e-21 0 2.85009e-21 0 4.43523e-21 0
