# 5.39371e-08 0 4 : grain size, compostion index, size index
# This grain was stochastically heated: Yes
# Heating and cooling timescale: 566144 2.37013
# Ratio of heating to cooling to determine stochastic cutoff: 100
# Equilibrium emission is recorded even for those grains in the stochastic regime.
# Emission spectrum was computed for: 
# Type: IRSF
# Scales:  0.5 1 2 5 10
# Temperature: -1
# Wavelength  CExt  CAbs  CSca  Albedo G EqEm1 StEm1 EqEm2 StEm2 EqEm3 StEm3 EqEm4 StEm4 EqEm5 StEm5
0.05 6.66416e-16 6.66336e-16 7.98887e-20 0.000119878 0.000636019 0 0 0 0 0 0 0 0 0 0
0.0525665 7.7179e-16 7.71704e-16 8.56546e-20 0.000110982 0.000566543 0 0 0 0 0 0 0 0 0 0
0.0552647 8.90615e-16 8.90523e-16 9.17599e-20 0.00010303 0.000504487 0 0 0 0 0 0 0 0 0 0
0.0581015 1.04662e-15 1.04652e-15 9.67938e-20 9.24826e-05 0.000448989 0 0 0 0 0 0 0 0 0 0
0.0610839 1.45288e-15 1.45278e-15 1.02907e-19 7.08297e-05 0.000395429 0 0 0 0 0 0 0 0 0 0
0.0642193 1.83614e-15 1.83603e-15 1.14641e-19 6.24356e-05 0.000342006 0 0 0 0 0 0 0 0 0 0
0.0675157 2.19631e-15 2.19618e-15 1.34695e-19 6.1328e-05 0.000288173 0 0 0 0 0 0 0 0 0 0
0.0709813 2.52343e-15 2.52329e-15 1.39008e-19 5.50872e-05 0.000241585 0 0 0 0 0 0 0 0 0 0
0.0746248 2.35755e-15 2.35743e-15 1.21351e-19 5.14735e-05 0.000208381 0 0 0 0 0 0 0 0 0 0
0.0784553 1.85261e-15 1.85251e-15 9.41177e-20 5.08028e-05 0.000186295 0 0 0 0 0 0 0 0 0 0
0.0824824 1.47052e-15 1.47046e-15 6.62023e-20 4.50195e-05 0.000174156 0 0 0 0 0 0 0 0 0 0
0.0867162 1.23185e-15 1.2318e-15 5.10181e-20 4.14157e-05 0.000167234 0 0 0 0 0 0 0 0 0 0
0.0911674 1.07488e-15 1.07484e-15 4.27983e-20 3.98169e-05 0.000162396 0 0 0 0 0 0 0 0 0 0
0.095847 9.61949e-16 9.61915e-16 3.39594e-20 3.53027e-05 0.000171225 0 0 0 0 0 0 0 0 0 0
0.100767 8.44447e-16 8.44424e-16 2.31729e-20 2.74415e-05 0.000199708 0 0 0 0 0 0 0 0 0 0
0.105939 7.36239e-16 7.36223e-16 1.60561e-20 2.18083e-05 0.00021545 0 0 0 0 0 1.4013e-45 0 0 0 0
0.111377 6.31838e-16 6.31829e-16 9.82207e-21 1.55452e-05 0.000246578 0 1.4013e-45 0 5.60519e-45 0 2.10195e-44 0 0 0 0
0.117094 5.35543e-16 5.35536e-16 6.12432e-21 1.14357e-05 0.000225805 0 2.66247e-44 0 1.079e-43 0 4.316e-43 0 0 0 0
0.123105 4.50181e-16 4.50177e-16 3.99074e-21 8.86475e-06 0.000193724 0 4.70836e-43 0 1.88054e-42 0 7.52217e-42 0 0 0 0
0.129424 3.78688e-16 3.78685e-16 2.56726e-21 6.77936e-06 0.000162926 0 7.04293e-42 0 2.81703e-41 0 1.12684e-40 0 1.4013e-45 0 4.2039e-45
0.136067 3.43435e-16 3.43434e-16 1.66333e-21 4.8432e-06 0.000137849 0 9.85197e-41 0 3.94066e-40 0 1.57629e-39 0 1.10703e-43 0 2.24208e-43
0.143051 3.11708e-16 3.11707e-16 1.09254e-21 3.505e-06 0.000117589 0 1.20379e-39 0 4.81418e-39 0 1.92554e-38 0 5.37538e-42 0 1.08839e-41
0.150394 2.94446e-16 2.94445e-16 7.44314e-22 2.52785e-06 0.000100378 0 1.34615e-38 0 5.38022e-38 0 2.15128e-37 0 2.22895e-40 0 4.50124e-40
0.158114 2.91031e-16 2.91031e-16 5.62907e-22 1.93418e-06 8.59566e-05 0 1.39703e-37 0 5.57215e-37 0 2.22573e-36 0 7.99193e-39 0 1.61079e-38
0.16623 3.02594e-16 3.02593e-16 5.19963e-22 1.71835e-06 7.38942e-05 0 1.36918e-36 0 5.42624e-36 0 2.16046e-35 0 2.51417e-37 0 5.05987e-37
0.174762 3.31515e-16 3.31515e-16 6.26499e-22 1.8898e-06 6.35372e-05 0 1.29706e-35 0 5.04726e-35 0 1.99077e-34 0 7.0129e-36 0 1.40977e-35
0.183733 3.83034e-16 3.83034e-16 8.94607e-22 2.33558e-06 5.41144e-05 0 1.23883e-34 0 4.60336e-34 0 1.771e-33 0 1.75053e-34 0 3.51591e-34
0.193164 4.7413e-16 4.74128e-16 1.42102e-21 2.99711e-06 4.5031e-05 0 1.29553e-33 0 4.37717e-33 0 1.58991e-32 0 4.00411e-33 0 8.03666e-33
0.203079 6.21024e-16 6.21022e-16 2.16864e-21 3.49205e-06 3.61106e-05 0 1.56178e-32 0 4.56825e-32 0 1.49155e-31 0 8.35282e-32 0 1.67558e-31
0.213503 7.65049e-16 7.65047e-16 2.66092e-21 3.4781e-06 2.77726e-05 0 1.93183e-31 0 4.86834e-31 0 1.37556e-30 0 1.42269e-30 0 2.85269e-30
0.224463 7.34698e-16 7.34696e-16 2.21043e-21 3.00862e-06 2.05622e-05 0 1.90882e-30 0 4.31785e-30 0 1.06366e-29 0 1.65116e-29 0 3.30965e-29
0.235984 5.67728e-16 5.67727e-16 1.49932e-21 2.64091e-06 1.46754e-05 0 1.45508e-29 0 3.09505e-29 0 6.9296e-29 0 1.35672e-28 0 2.71868e-28
0.248097 4.28796e-16 4.28795e-16 9.70408e-22 2.2631e-06 1.12417e-05 0 9.99649e-29 0 2.06118e-28 0 4.36986e-28 0 9.64682e-28 0 1.93264e-27
0.260832 3.43182e-16 3.43181e-16 6.66421e-22 1.94189e-06 1.16977e-05 0 6.6013e-28 0 1.34068e-27 0 2.76304e-27 0 6.47338e-27 0 1.29663e-26
0.274221 2.9192e-16 2.91919e-16 4.80666e-22 1.64657e-06 1.56419e-05 0 4.18425e-27 0 8.43544e-27 0 1.71385e-26 0 4.13503e-26 0 8.28119e-26
0.288297 2.59924e-16 2.59924e-16 3.58261e-22 1.37833e-06 2.09857e-05 0 2.50951e-26 0 5.04058e-26 0 1.01673e-25 0 2.48968e-25 0 4.98538e-25
0.303095 2.35455e-16 2.35455e-16 2.76072e-22 1.1725e-06 2.35297e-05 0 1.38842e-25 0 2.78349e-25 0 5.59356e-25 0 1.38029e-24 0 2.7636e-24
0.318653 2.05702e-16 2.05702e-16 2.14968e-22 1.04505e-06 2.45506e-05 0 6.74385e-25 0 1.35065e-24 0 2.70878e-24 0 6.71219e-24 0 1.34377e-23
0.335009 1.80695e-16 1.80695e-16 1.6932e-22 9.37049e-07 2.41425e-05 0 3.01075e-24 0 6.02657e-24 0 1.20733e-23 0 2.99872e-23 0 6.00289e-23
0.352205 1.57662e-16 1.57662e-16 1.3501e-22 8.56327e-07 2.2908e-05 0 1.22556e-23 0 2.45241e-23 0 4.90998e-23 0 1.22121e-22 0 2.44446e-22
0.370284 1.3655e-16 1.36549e-16 1.08605e-22 7.95353e-07 2.14163e-05 0 4.56412e-23 0 9.13141e-23 0 1.82754e-22 0 4.54938e-22 0 9.10578e-22
0.389291 1.17317e-16 1.17317e-16 8.80365e-23 7.50414e-07 1.99667e-05 0 1.56017e-22 0 3.12108e-22 0 6.24509e-22 0 1.5555e-21 0 3.11323e-21
0.409273 9.99342e-17 9.99341e-17 7.15765e-23 7.16236e-07 1.85595e-05 0 4.91108e-22 0 9.82381e-22 0 1.96541e-21 0 4.89733e-21 0 9.80114e-21
0.430281 8.4241e-17 8.42409e-17 5.82516e-23 6.91487e-07 1.72226e-05 0 1.42593e-21 0 2.85222e-21 0 5.70582e-21 0 1.42217e-20 0 2.84609e-20
0.452368 7.0015e-17 7.00149e-17 4.74003e-23 6.77002e-07 1.58419e-05 0 3.81783e-21 0 7.63638e-21 0 1.52756e-20 0 3.80828e-20 0 7.62096e-20
0.475588 5.67887e-17 5.67887e-17 3.85961e-23 6.79643e-07 1.45194e-05 0 9.36009e-21 0 1.87216e-20 0 3.74487e-20 0 9.33788e-20 0 1.86859e-19
0.5 4.31496e-17 4.31496e-17 3.15098e-23 7.30246e-07 1.32507e-05 0 2.02333e-20 0 4.04691e-20 0 8.09479e-20 0 2.01876e-19 0 4.03957e-19
0.525665 2.68968e-17 2.68968e-17 2.57523e-23 9.57447e-07 1.20511e-05 0 3.38698e-20 0 6.7743e-20 0 1.355e-19 0 3.37969e-19 0 6.76262e-19
0.552647 1.65928e-17 1.65928e-17 2.10546e-23 1.2689e-06 1.09584e-05 0 5.31142e-20 0 1.06233e-19 0 2.12485e-19 0 5.30054e-19 0 1.06058e-18
0.581015 1.29079e-17 1.29079e-17 1.72977e-23 1.34009e-06 9.9429e-06 0 9.96855e-20 0 1.99379e-19 0 3.98787e-19 0 9.94906e-19 0 1.99066e-18
0.610839 8.31793e-18 8.31792e-18 1.42153e-23 1.709e-06 9.02309e-06 0 1.47461e-19 0 2.94932e-19 0 5.89903e-19 0 1.47186e-18 0 2.94489e-18
0.642193 2.9582e-18 2.95819e-18 1.16803e-23 3.94843e-06 8.18864e-06 0 1.14818e-19 0 2.29643e-19 0 4.59313e-19 0 1.14613e-18 0 2.29313e-18
0.675157 8.84864e-19 8.84854e-19 9.60827e-24 1.08585e-05 7.43492e-06 0 7.18786e-20 0 1.43761e-19 0 2.87538e-19 0 7.17564e-19 0 1.43564e-18
0.709813 3.20638e-19 3.2063e-19 7.91719e-24 2.4692e-05 6.75888e-06 0 5.22207e-20 0 1.04444e-19 0 2.08898e-19 0 5.21358e-19 0 1.04307e-18
0.746248 1.3261e-19 1.32603e-19 6.52491e-24 4.92038e-05 6.15488e-06 0 4.15685e-20 0 8.31389e-20 0 1.66285e-19 0 4.1504e-19 0 8.30348e-19
0.784553 5.97981e-20 5.97927e-20 5.3758e-24 8.98992e-05 5.60633e-06 0 3.47008e-20 0 6.94032e-20 0 1.38812e-19 0 3.46494e-19 0 6.93201e-19
0.824824 2.86507e-20 2.86462e-20 4.42808e-24 0.000154554 5.11406e-06 0 2.96596e-20 0 5.93205e-20 0 1.18646e-19 0 2.96176e-19 0 5.92525e-19
0.867162 1.44018e-20 1.43981e-20 3.64877e-24 0.000253356 4.67109e-06 0 2.5675e-20 0 5.13509e-20 0 1.02706e-19 0 2.56402e-19 0 5.12947e-19
0.911674 7.44955e-21 7.44655e-21 3.00502e-24 0.000403383 4.27038e-06 0 2.21159e-20 0 4.42326e-20 0 8.84683e-20 0 2.20873e-19 0 4.41863e-19
0.95847 3.95724e-21 3.95477e-21 2.47279e-24 0.000624877 3.9113e-06 0 1.89479e-20 0 3.78965e-20 0 7.57956e-20 0 1.89245e-19 0 3.78585e-19
1.00767 2.18105e-21 2.17902e-21 2.03497e-24 0.000933021 3.58517e-06 0 1.63386e-20 0 3.26776e-20 0 6.53573e-20 0 1.63192e-19 0 3.26463e-19
1.05939 1.2669e-21 1.26523e-21 1.67397e-24 0.00132131 3.28936e-06 0 1.44244e-20 0 2.88493e-20 0 5.77004e-20 0 1.44081e-19 0 2.88229e-19
1.11377 7.96747e-22 7.9537e-22 1.37658e-24 0.00172775 3.0201e-06 0 1.34141e-20 0 2.68285e-20 0 5.36586e-20 0 1.33995e-19 0 2.6805e-19
1.17094 5.62905e-22 5.61774e-22 1.13153e-24 0.00201016 2.7687e-06 0 1.36549e-20 0 2.73101e-20 0 5.46217e-20 0 1.36407e-19 0 2.72872e-19
1.23105 4.57491e-22 4.56561e-22 9.30535e-25 0.00203399 2.53855e-06 0 1.56027e-20 0 3.12058e-20 0 6.24132e-20 0 1.55872e-19 0 3.11807e-19
1.29424 4.20632e-22 4.19866e-22 7.65484e-25 0.00181984 2.32692e-06 0 1.97046e-20 0 3.94097e-20 0 7.88214e-20 0 1.96859e-19 0 3.93794e-19
1.36067 4.22475e-22 4.21846e-22 6.29344e-25 0.00148966 2.13398e-06 0 2.65868e-20 0 5.31743e-20 0 1.06351e-19 0 2.65626e-19 0 5.31351e-19
1.43051 4.47492e-22 4.46975e-22 5.17176e-25 0.00115572 1.95838e-06 0 3.7038e-20 0 7.40768e-20 0 1.48157e-19 0 3.70057e-19 0 7.40245e-19
1.50394 4.87793e-22 4.87368e-22 4.25154e-25 0.000871587 1.79592e-06 0 5.20406e-20 0 1.04082e-19 0 2.08169e-19 0 5.19971e-19 0 1.04012e-18
1.58114 5.39541e-22 5.39192e-22 3.49511e-25 0.000647793 1.64461e-06 0 7.27904e-20 0 1.45582e-19 0 2.91171e-19 0 7.27321e-19 0 1.45488e-18
1.6623 6.01569e-22 6.01281e-22 2.87355e-25 0.000477676 1.50413e-06 0 1.00788e-19 0 2.01579e-19 0 4.03166e-19 0 1.00711e-18 0 2.01454e-18
1.74762 6.74251e-22 6.74015e-22 2.36279e-25 0.000350432 1.37744e-06 0 1.37903e-19 0 2.75809e-19 0 5.51629e-19 0 1.37801e-18 0 2.75645e-18
1.83733 7.5899e-22 7.58796e-22 1.9426e-25 0.000255945 1.26178e-06 0 1.86451e-19 0 3.72905e-19 0 7.45824e-19 0 1.86319e-18 0 3.72692e-18
1.93164 8.58176e-22 8.58016e-22 1.59653e-25 0.000186038 1.15583e-06 0 2.49348e-19 0 4.98701e-19 0 9.97419e-19 0 2.49178e-18 0 4.98427e-18
2.03079 9.75556e-22 9.75425e-22 1.31181e-25 0.000134467 1.05729e-06 0 3.3042e-19 0 6.60846e-19 0 1.32171e-18 0 3.30204e-18 0 6.60497e-18
2.13503 1.1173e-21 1.1172e-21 1.07871e-25 9.65455e-05 9.67058e-07 0 4.35102e-19 0 8.70212e-19 0 1.74045e-18 0 4.34828e-18 0 8.69771e-18
2.24463 1.29262e-21 1.29253e-21 8.86618e-26 6.8591e-05 8.84998e-07 0 5.71261e-19 0 1.14253e-18 0 2.2851e-18 0 5.70915e-18 0 1.14198e-17
2.35984 1.51742e-21 1.51734e-21 7.28461e-26 4.80067e-05 8.0933e-07 0 7.51718e-19 0 1.50345e-18 0 3.00694e-18 0 7.51279e-18 0 1.50275e-17
2.48097 1.82191e-21 1.82185e-21 5.98411e-26 3.28453e-05 7.39054e-07 0 9.99964e-19 0 1.99994e-18 0 3.99995e-18 0 9.99402e-18 0 1.99904e-17
2.60832 2.27195e-21 2.2719e-21 4.91991e-26 2.1655e-05 6.74673e-07 0 1.36631e-18 0 2.73264e-18 0 5.46537e-18 0 1.36557e-17 3.36312e-44 2.73146e-17
2.74221 3.02534e-21 3.0253e-21 4.0436e-26 1.33657e-05 6.1584e-07 0 1.97266e-18 0 3.94536e-18 0 7.89083e-18 0 1.97164e-17 1.95902e-42 3.94372e-17
2.88297 4.57258e-21 4.57255e-21 3.3208e-26 7.26243e-06 5.6292e-07 0 3.2006e-18 0 6.40125e-18 0 1.28027e-17 2.24208e-44 3.199e-17 1.06255e-40 6.3987e-17
3.03095 9.254e-21 9.25398e-21 2.72768e-26 2.94756e-06 5.14699e-07 0 6.88765e-18 0 1.37754e-17 0 2.75512e-17 2.08513e-42 6.88434e-17 6.40085e-39 1.37701e-16
3.18653 4.85971e-20 4.85971e-20 2.24088e-26 4.61113e-07 4.70155e-07 0 3.81156e-17 0 7.62318e-17 4.2039e-45 1.52466e-16 4.03814e-40 3.8098e-16 8.37481e-37 7.6204e-16
3.35009 2.63598e-19 2.63598e-19 1.84034e-26 6.98162e-08 4.28548e-07 0 2.15999e-16 0 4.32001e-16 1.0832e-42 8.64013e-16 6.68996e-38 2.15903e-15 9.55605e-35 4.3185e-15
3.52205 1.51942e-20 1.51942e-20 1.51068e-26 9.94245e-07 3.91458e-07 0 1.29016e-17 0 2.58034e-17 2.73253e-42 5.16075e-17 9.84605e-38 1.28961e-16 9.8647e-35 2.57948e-16
3.70284 7.12469e-21 7.12467e-21 1.24061e-26 1.74129e-06 3.57055e-07 0 6.22e-18 8.40779e-45 1.24401e-17 4.60481e-41 2.48805e-17 9.94131e-37 6.21747e-17 7.1081e-34 1.24361e-16
3.89291 5.50444e-21 5.50443e-21 1.01845e-26 1.85023e-06 3.25782e-07 0 4.90398e-18 2.74654e-43 9.80803e-18 1.06042e-39 1.96163e-17 1.40635e-35 4.90208e-17 7.29531e-33 9.80506e-17
4.09273 5.26412e-21 5.26411e-21 8.35957e-27 1.58803e-06 2.95629e-07 1.4013e-45 4.75188e-18 9.80348e-42 9.50382e-18 2.52999e-38 1.90079e-17 2.11081e-34 4.75013e-17 8.06947e-32 9.5011e-17
4.30281 5.59158e-21 5.59157e-21 6.86026e-27 1.22689e-06 2.68256e-07 7.14662e-44 5.07932e-18 3.21846e-40 1.01587e-17 5.66028e-37 2.03177e-17 3.03888e-33 5.07754e-17 8.69013e-31 1.0156e-16
4.52368 6.34107e-21 6.34106e-21 5.63155e-27 8.88108e-07 2.43355e-07 3.14732e-42 5.75861e-18 9.42553e-39 1.15173e-17 1.15094e-35 2.30348e-17 4.06275e-32 5.75671e-17 8.81467e-30 1.15144e-16
4.75588 7.6573e-21 7.6573e-21 4.62113e-27 6.03493e-07 2.21495e-07 1.22258e-40 6.90854e-18 2.47742e-37 1.38172e-17 2.13815e-34 2.76346e-17 5.06513e-31 6.90639e-17 8.45094e-29 1.38139e-16
5 1.05879e-20 1.05879e-20 3.79089e-27 3.58039e-07 1.99927e-07 4.53542e-39 9.43327e-18 6.33714e-36 1.88667e-17 3.93173e-33 3.77337e-17 6.37346e-30 9.43052e-17 8.28299e-28 1.88625e-16
5.25665 2.89542e-20 2.89542e-20 3.11052e-27 1.07429e-07 1.80709e-07 2.79946e-37 2.53281e-17 2.74653e-34 5.06564e-17 1.24487e-31 1.01314e-16 1.40669e-28 2.53212e-16 1.44147e-26 5.0646e-16
5.52648 2.49601e-20 2.49601e-20 2.5521e-27 1.02247e-07 1.63595e-07 4.62124e-36 2.13196e-17 3.23893e-33 4.26395e-17 1.08905e-30 8.52798e-17 8.73095e-28 2.13143e-16 7.13679e-26 4.26315e-16
5.81015 4.23154e-20 4.23154e-20 2.09259e-27 4.94523e-08 1.48513e-07 1.28311e-34 3.5106e-17 6.53087e-32 7.02124e-17 1.65293e-29 1.40426e-16 9.56055e-27 3.50979e-16 6.30305e-25 7.02004e-16
6.10839 1.38804e-19 1.38804e-19 1.71537e-27 1.23582e-08 1.32333e-07 5.94045e-33 1.11288e-16 2.23036e-30 2.22576e-16 4.30846e-28 4.45157e-16 1.82678e-25 1.11264e-15 9.81613e-24 2.22542e-15
6.42193 9.27166e-20 9.27166e-20 1.40613e-27 1.51659e-08 1.20505e-07 4.86184e-32 7.1495e-17 1.36664e-29 1.42991e-16 2.0417e-27 2.85984e-16 6.44285e-25 7.14814e-16 2.85005e-23 1.42971e-15
6.75157 7.62757e-20 7.62757e-20 1.1528e-27 1.51136e-08 1.08133e-07 4.28354e-31 5.63108e-17 9.14312e-29 1.12622e-16 1.06973e-26 2.25246e-16 2.54885e-24 5.63014e-16 9.37058e-23 1.12609e-15
7.09813 8.57613e-20 8.57613e-20 9.44586e-28 1.10141e-08 9.61139e-08 4.53847e-30 6.0353e-17 7.45548e-28 1.20707e-16 6.91316e-26 2.41415e-16 1.26092e-23 6.03442e-16 3.88759e-22 1.20695e-15
7.46248 1.96752e-19 1.96752e-19 7.7374e-28 3.93257e-09 8.47297e-08 8.68674e-29 1.31445e-16 1.11237e-26 2.6289e-16 8.26809e-25 5.25784e-16 1.16957e-22 1.31428e-15 3.05014e-21 2.62869e-15
7.84553 2.468e-19 2.468e-19 6.34029e-28 2.569e-09 7.45529e-08 8.09701e-28 1.5592e-16 8.18137e-26 3.11841e-16 4.92746e-24 6.23686e-16 5.4732e-22 1.55904e-15 1.21727e-20 3.11822e-15
8.24824 1.03551e-19 1.03551e-19 5.19373e-28 5.01563e-09 6.55577e-08 2.26114e-27 6.1639e-17 1.82373e-25 1.23279e-16 8.99213e-24 2.46559e-16 7.93608e-22 6.16343e-16 1.51697e-20 1.23274e-15
8.67162 1.1784e-19 1.1784e-19 4.25166e-28 3.60798e-09 5.8249e-08 1.54232e-26 6.58659e-17 1.00397e-24 1.31732e-16 4.09227e-23 2.63466e-16 2.90208e-21 6.58624e-16 4.80307e-20 1.3173e-15
9.11674 4.189e-20 4.189e-20 3.48046e-28 8.30857e-09 5.18879e-08 2.97447e-26 2.19158e-17 1.5791e-24 4.38318e-17 5.37079e-23 8.76641e-17 3.0933e-21 2.19152e-16 4.46401e-20 4.38318e-16
9.5847 3.44068e-20 3.44068e-20 2.84798e-28 8.2774e-09 4.44003e-08 1.20561e-25 1.67993e-17 5.27213e-24 3.35988e-17 1.5095e-22 6.71979e-17 7.13293e-21 1.67993e-16 9.03584e-20 3.35995e-16
10.0767 3.68608e-20 3.68608e-20 2.32942e-28 6.31952e-09 3.74708e-08 5.82411e-25 1.67508e-17 2.11787e-23 3.35016e-17 5.14775e-22 6.70036e-17 2.01511e-20 1.67512e-16 2.25508e-19 3.35032e-16
10.5939 5.20489e-20 5.20489e-20 1.90386e-28 3.65782e-09 3.17874e-08 3.40363e-24 2.19597e-17 1.03852e-22 4.39196e-17 2.16011e-21 8.78396e-17 7.06961e-20 2.19609e-16 7.03151e-19 4.39226e-16
11.1377 2.85102e-19 2.85102e-19 1.55485e-28 5.45367e-10 2.82436e-08 7.11165e-23 1.11426e-16 1.83638e-21 2.22852e-16 3.2936e-20 4.45705e-16 9.09132e-19 1.11435e-15 8.08295e-18 2.22872e-15
11.7094 1.46789e-19 1.46789e-19 1.28166e-28 8.73135e-10 2.36512e-08 1.29242e-22 5.30364e-17 2.84745e-21 1.06073e-16 4.43562e-20 2.12147e-16 1.04125e-18 5.30424e-16 8.32088e-18 1.06086e-15
12.3105 1.50752e-19 1.50752e-19 1.04213e-28 6.91287e-10 1.41043e-08 4.35179e-22 5.0265e-17 8.24418e-21 1.0053e-16 1.12311e-19 2.01061e-16 2.25999e-18 5.02723e-16 1.63173e-17 1.00545e-15
12.9424 1.21427e-19 1.21427e-19 8.50949e-29 7.00792e-10 1.07087e-08 1.07133e-21 3.73051e-17 1.75806e-20 7.46103e-17 2.10828e-19 1.49221e-16 3.66406e-18 3.73118e-16 2.40208e-17 7.46232e-16
13.6067 8.91692e-20 8.91692e-20 6.9486e-29 7.79261e-10 2.49385e-09 2.24925e-21 2.52082e-17 3.21973e-20 5.04165e-17 3.4201e-19 1.00833e-16 5.17045e-18 2.52136e-16 3.09231e-17 5.04268e-16
14.3051 6.49367e-20 6.49367e-20 5.66951e-29 8.73081e-10 2.04403e-09 4.39482e-21 1.68738e-17 5.5245e-20 3.37477e-17 5.22887e-19 6.74955e-17 6.92326e-18 1.68781e-16 3.79438e-17 3.37556e-16
15.0394 5.25446e-20 5.25446e-20 4.62315e-29 8.79851e-10 8.0627e-09 8.98205e-21 1.2539e-17 9.97821e-20 2.5078e-17 8.46271e-19 5.0156e-17 9.87726e-18 1.25426e-16 4.98189e-17 2.50847e-16
15.8114 5.38282e-20 5.38282e-20 3.7698e-29 7.0034e-10 1.55592e-09 2.1943e-20 1.17886e-17 2.1673e-19 2.35771e-17 1.65595e-18 4.71542e-17 1.71424e-17 1.17925e-16 7.98947e-17 2.35842e-16
16.623 7.47741e-20 7.47741e-20 3.0734e-29 4.11025e-10 -1.83608e-09 6.8825e-20 1.50215e-17 6.07866e-19 3.00429e-17 4.20548e-18 6.00858e-17 3.88404e-17 1.50272e-16 1.67917e-16 3.00531e-16
17.4762 6.40272e-20 6.40272e-20 2.50435e-29 3.91138e-10 4.44729e-11 1.26325e-19 1.17954e-17 1.00313e-18 2.35908e-17 6.31473e-18 4.71814e-17 5.23221e-17 1.18004e-16 2.10598e-16 2.35996e-16
18.3733 4.20325e-20 4.20325e-20 2.03955e-29 4.85232e-10 -1.05083e-08 1.69187e-19 7.10024e-18 1.21423e-18 1.42005e-17 6.98694e-18 2.84008e-17 5.22133e-17 7.10364e-17 1.96347e-16 1.42064e-16
19.3164 3.52273e-20 3.52273e-20 1.66315e-29 4.7212e-10 -1.73261e-08 2.75988e-19 5.45675e-18 1.79902e-18 1.09135e-17 9.5042e-18 2.18268e-17 6.43818e-17 5.45966e-17 2.26946e-16 1.09185e-16
20.3079 3.00558e-20 3.00558e-20 1.35709e-29 4.51523e-10 7.11347e-10 4.3827e-19 4.27011e-18 2.60698e-18 8.5402e-18 1.26977e-17 1.70803e-17 7.83442e-17 4.27263e-17 2.59689e-16 8.54447e-17
21.3503 2.59605e-20 2.59605e-20 1.10853e-29 4.27005e-10 -5.98929e-09 6.75225e-19 3.384e-18 3.68159e-18 6.76797e-18 1.65978e-17 1.35358e-17 9.37027e-17 3.3862e-17 2.92951e-16 6.77165e-17
22.4463 2.25132e-20 2.25132e-20 9.08423e-30 4.03507e-10 -3.44004e-08 1.00304e-18 2.69375e-18 5.03433e-18 5.38747e-18 2.10876e-17 1.07748e-17 1.09403e-16 2.69567e-17 3.23526e-16 5.39064e-17
23.5984 1.95577e-20 1.95577e-20 7.4889e-30 3.82913e-10 -3.78965e-08 1.43622e-18 2.14923e-18 6.66253e-18 4.29842e-18 2.60228e-17 8.59672e-18 1.24581e-16 2.1509e-17 3.49426e-16 4.30114e-17
24.8097 1.70114e-20 1.70114e-20 6.22706e-30 3.66053e-10 -1.98517e-08 1.98503e-18 1.71799e-18 8.54375e-18 3.43595e-18 3.1223e-17 6.87177e-18 1.38477e-16 1.71944e-17 3.69341e-16 3.43827e-17
26.0832 1.482e-20 1.482e-20 5.24487e-30 3.53905e-10 -2.9072e-09 2.65382e-18 1.37639e-18 1.06366e-17 2.75275e-18 3.64883e-17 5.50537e-18 1.50483e-16 1.37765e-17 3.82614e-16 2.75472e-17
27.4221 1.294e-20 1.294e-20 4.47866e-30 3.4611e-10 -3.06273e-08 3.44007e-18 1.10599e-18 1.28844e-17 2.21195e-18 4.1618e-17 4.42378e-18 1.60173e-16 1.10708e-17 3.89145e-16 2.21363e-17
28.8297 1.1324e-20 1.1324e-20 3.88883e-30 3.43414e-10 -2.60487e-08 4.33069e-18 8.91375e-19 1.52075e-17 1.78272e-18 4.63895e-17 3.56532e-18 1.67178e-16 8.92317e-18 3.88978e-16 1.78413e-17
30.3095 9.93144e-21 9.93144e-21 3.41833e-30 3.44193e-10 -3.17592e-08 5.30244e-18 7.20492e-19 1.75125e-17 1.44095e-18 5.05911e-17 2.88179e-18 1.71273e-16 7.21305e-18 3.82466e-16 1.44214e-17
31.8653 8.72942e-21 8.72942e-21 3.0034e-30 3.44055e-10 9.57718e-09 6.32378e-18 5.8407e-19 1.97025e-17 1.16811e-18 5.4047e-17 2.33611e-18 1.72419e-16 5.84771e-18 3.70284e-16 1.1691e-17
33.5009 7.6931e-21 7.6931e-21 2.63432e-30 3.42426e-10 -4.03853e-08 7.35942e-18 4.75043e-19 2.16922e-17 9.50057e-19 5.66475e-17 1.9e-18 1.70793e-16 4.75645e-18 3.53443e-16 9.50869e-18
