# 6.6834e-05 1 131 : grain size, compostion index, size index
# Heating and cooling timescale: 0.00072921 5.26647e+07
# Ratio of heating to cooling to determine stochastic cutoff: 100
# Equilibrium emission is recorded even for those grains in the stochastic regime.
# Emission spectrum was computed for: 
# Type: IRSF
# Scales: 0.25 0.5 1 1.5 2 2.5 3 3.5 4 4.5 5 5.5 6 6.5 7 7.5 8 8.5 9 9.5 10
# StochasticallyHeated: 0 0 0 0 0 0 0 0 0 0 0 0 0 0 0 0 0 0 0 0 0
# Temperature: -1
# Wavelength  CExt  CAbs  CSca  Albedo G EqEm1 StEm1 EqEm2 StEm2 EqEm3 StEm3 EqEm4 StEm4 EqEm5 StEm5 EqEm6 StEm6 EqEm7 StEm7 EqEm8 StEm8 EqEm9 StEm9 EqEm10 StEm10 EqEm11 StEm11 EqEm12 StEm12 EqEm13 StEm13 EqEm14 StEm14 EqEm15 StEm15 EqEm16 StEm16 EqEm17 StEm17 EqEm18 StEm18 EqEm19 StEm19 EqEm20 StEm20 EqEm21 StEm21
0.05 7.53024e-09 3.3505e-09 4.17974e-09 0.555061 0.21472 0 0 0 0 0 0 0 0 0 0 0 0 0 0 0 0 0 0 0 0 0 0 0 0 0 0 0 0 0 0 0 0 0 0 0 0 0 0 0 0 0 0
0.0525665 8.32314e-09 3.70329e-09 4.61985e-09 0.555061 0.237329 0 0 0 0 0 0 0 0 0 0 0 0 0 0 0 0 0 0 0 0 0 0 0 0 0 0 0 0 0 0 0 0 0 0 0 0 0 0 0 0 0 0
0.0552647 9.19953e-09 4.09323e-09 5.1063e-09 0.555061 0.262319 0 0 0 0 0 0 0 0 0 0 0 0 0 0 0 0 0 0 0 0 0 0 0 0 0 0 0 0 0 0 0 0 0 0 0 0 0 0 0 0 0 0
0.0581015 1.01682e-08 4.52422e-09 5.64396e-09 0.555061 0.28994 0 0 0 0 0 0 0 0 0 0 0 0 0 0 0 0 0 0 0 0 0 0 0 0 0 0 0 0 0 0 0 0 0 0 0 0 0 0 0 0 0 0
0.0610839 1.12389e-08 5.0006e-09 6.23825e-09 0.555061 0.320469 0 0 0 0 0 0 0 0 0 0 0 0 0 0 0 0 0 0 0 0 0 0 0 0 0 0 0 0 0 0 0 0 0 0 0 0 0 0 0 0 0 0
0.0642193 1.24222e-08 5.52714e-09 6.8951e-09 0.555061 0.354213 0 0 0 0 0 0 0 0 0 0 0 0 0 0 0 0 0 0 0 0 0 0 0 0 0 0 0 0 0 0 0 0 0 0 0 0 0 0 0 0 0 0
0.0675157 1.37303e-08 6.10912e-09 7.62113e-09 0.555061 0.39151 0 0 0 0 0 0 0 0 0 0 0 0 0 0 0 0 0 0 0 0 0 0 0 0 0 0 0 0 0 0 0 0 0 0 0 0 0 0 0 0 0 0
0.0709813 1.5176e-08 6.75238e-09 8.42359e-09 0.555061 0.432734 0 0 0 0 0 0 0 0 0 0 0 0 0 0 0 0 0 0 0 0 0 0 0 0 0 0 0 0 0 0 0 0 0 0 0 0 0 0 0 0 0 0
0.0746248 1.67739e-08 7.46338e-09 9.31056e-09 0.555061 0.478298 0 0 0 0 0 0 0 0 0 0 0 0 0 0 0 0 0 0 0 0 0 0 0 0 0 0 0 0 0 0 0 0 0 0 0 0 0 0 0 0 0 0
0.0784553 1.85401e-08 8.24924e-09 1.02909e-08 0.555061 0.528661 0 0 0 0 0 0 0 0 0 0 0 0 0 0 0 0 0 0 0 0 0 0 0 0 0 0 0 0 0 0 0 0 0 0 0 0 0 0 0 0 0 0
0.0824824 2.04923e-08 9.11784e-09 1.13745e-08 0.555061 0.584326 0 0 0 0 0 0 0 0 0 0 0 0 0 0 0 0 0 0 0 0 0 0 0 0 0 0 0 0 0 0 0 0 0 0 0 0 0 0 0 0 0 0
0.0867162 2.26501e-08 1.00779e-08 1.25722e-08 0.555061 0.645853 0 0 0 0 0 0 0 0 0 0 0 0 0 0 0 0 0 0 0 0 0 0 0 0 0 0 0 0 0 0 0 0 0 0 0 0 0 0 0 0 0 0
0.0911674 2.5035e-08 1.11391e-08 1.3896e-08 0.555061 0.713859 0 0 0 0 0 0 0 0 0 0 0 0 0 0 0 0 0 0 0 0 0 0 0 0 0 0 0 0 0 0 0 0 0 0 0 0 0 0 0 0 0 0
0.095847 2.76711e-08 1.2312e-08 1.53591e-08 0.555061 0.789024 0 0 0 0 0 0 0 0 0 0 0 0 0 0 0 0 0 0 0 0 0 0 0 0 0 0 0 0 0 0 0 0 0 0 0 0 0 0 0 0 0 0
0.100767 3.01361e-08 1.34105e-08 1.67257e-08 0.555004 0.858877 0 0 0 0 0 0 0 0 0 0 0 0 0 0 0 0 0 0 0 0 0 0 0 0 0 0 0 0 0 0 0 0 0 0 0 0 0 0 0 0 0 0
0.105939 3.02419e-08 1.34716e-08 1.67702e-08 0.554537 0.862271 0 0 0 0 0 0 0 0 0 0 0 0 0 0 0 0 0 0 0 0 0 0 0 0 0 0 0 0 0 0 0 0 0 0 0 0 0 0 0 0 0 0
0.111377 3.03479e-08 1.35406e-08 1.68073e-08 0.553821 0.866729 0 0 0 0 0 0 0 0 0 0 0 0 0 0 0 0 0 0 0 0 0 0 0 0 0 0 0 0 0 0 0 0 0 0 0 0 0 0 0 0 0 0
0.117094 3.0454e-08 1.3607e-08 1.6847e-08 0.553196 0.869457 0 0 0 0 0 0 0 0 0 0 0 0 0 0 0 0 0 0 0 0 0 0 0 0 0 0 0 0 0 0 0 0 0 0 0 0 0 0 0 0 0 0
0.123105 3.05606e-08 1.36902e-08 1.68704e-08 0.55203 0.871034 0 0 0 0 0 0 0 0 0 0 0 0 0 0 0 0 0 0 0 0 0 0 0 0 0 0 0 0 0 0 0 0 0 0 0 0 0 0 0 0 0 0
0.129424 3.06636e-08 1.37799e-08 1.68837e-08 0.550611 0.871606 0 0 0 0 0 0 0 0 0 0 0 0 0 0 0 0 0 0 0 0 0 0 0 0 0 0 0 0 0 0 0 0 0 0 0 0 0 0 0 0 0 0
0.136067 3.07736e-08 1.38521e-08 1.69215e-08 0.549871 0.870991 0 0 0 0 0 0 0 0 0 0 0 0 0 0 0 0 0 0 0 0 0 0 0 0 0 0 0 0 0 0 0 0 0 0 0 0 0 0 0 0 0 0
0.143051 3.08841e-08 1.39528e-08 1.69313e-08 0.548221 0.868389 0 0 0 0 0 0 0 0 0 0 0 0 0 0 0 0 0 0 0 0 0 0 0 0 0 0 0 0 0 0 0 0 0 0 0 0 0 0 0 0 0 0
0.150394 3.10043e-08 1.40986e-08 1.69058e-08 0.545271 0.869041 0 0 0 0 0 0 0 0 0 0 0 0 0 0 0 0 0 0 0 0 0 0 0 0 0 0 0 0 0 0 0 0 0 0 0 0 0 0 0 0 0 0
0.158114 3.11453e-08 1.42835e-08 1.68618e-08 0.541392 0.874662 0 0 0 0 0 0 0 0 0 0 0 0 0 0 0 0 0 0 0 0 0 0 0 0 0 0 0 0 0 0 0 0 0 0 0 0 0 0 0 0 0 0
0.16623 3.13111e-08 1.44838e-08 1.68273e-08 0.537421 0.881711 0 0 0 0 0 0 0 0 0 0 0 0 0 0 0 0 0 0 0 0 0 0 0 0 0 0 0 0 0 0 0 0 0 0 0 0 0 0 0 0 0 0
0.174762 3.14801e-08 1.4673e-08 1.68071e-08 0.533896 0.8881 0 0 0 0 0 0 0 0 0 0 0 0 0 0 0 0 0 0 0 0 0 0 0 0 0 0 0 0 0 0 0 0 0 0 0 0 0 0 0 0 0 0
0.183733 3.16505e-08 1.47689e-08 1.68817e-08 0.533377 0.893632 0 0 0 0 0 0 0 0 0 0 0 0 0 0 0 0 0 0 0 0 0 0 0 0 0 0 0 0 0 0 0 0 0 0 0 0 0 0 0 0 0 0
0.193164 3.2165e-08 1.45704e-08 1.75947e-08 0.547012 0.895109 0 0 0 0 0 0 0 0 0 0 0 0 0 0 0 0 0 0 0 0 0 0 0 0 0 0 0 0 0 0 0 0 0 0 0 0 0 0 0 0 0 0
0.203079 3.22578e-08 1.46557e-08 1.7602e-08 0.545668 0.892298 0 0 0 0 0 0 0 0 0 0 0 0 0 0 0 0 0 0 0 0 0 0 0 0 0 0 0 0 0 0 0 0 0 0 0 0 0 0 0 0 0 0
0.213503 3.21631e-08 1.48175e-08 1.73457e-08 0.539302 0.874907 0 0 0 0 0 0 0 0 0 0 0 0 0 0 0 0 0 0 0 0 0 0 0 0 0 0 0 0 0 0 0 0 0 0 0 0 0 0 0 0 0 0
0.224463 3.20984e-08 1.49364e-08 1.7162e-08 0.534669 0.874077 0 0 0 0 0 0 0 0 0 0 0 0 0 0 0 0 0 0 0 0 0 0 0 0 0 0 0 0 0 0 0 0 0 0 0 0 0 0 0 0 0 0
0.235984 3.20569e-08 1.50623e-08 1.69946e-08 0.530138 0.859489 0 0 0 0 0 0 0 0 0 0 0 0 0 0 0 0 0 0 0 0 0 0 0 0 0 0 0 0 0 0 0 0 0 0 0 0 0 0 0 0 0 0
0.248097 3.20609e-08 1.51834e-08 1.68775e-08 0.526421 0.856777 0 0 0 0 0 0 0 0 0 0 0 0 0 0 0 0 0 0 0 0 0 0 0 0 0 0 0 0 0 0 0 0 0 0 0 0 0 0 0 0 0 0
0.260832 3.20918e-08 1.53015e-08 1.67903e-08 0.523197 0.867919 0 0 0 0 0 0 0 0 0 0 0 0 0 0 0 0 0 0 0 0 0 0 0 0 0 0 0 0 0 0 0 0 0 0 0 0 0 0 0 0 0 0
0.274221 3.20865e-08 1.53878e-08 1.66987e-08 0.520427 0.866138 0 0 0 0 0 0 0 0 0 0 0 0 0 0 0 0 0 0 0 0 0 0 0 0 0 0 0 0 0 0 0 0 0 0 0 0 0 0 0 0 0 0
0.288297 3.24973e-08 1.54494e-08 1.70479e-08 0.524594 0.849034 0 0 0 0 0 0 0 0 0 0 0 0 0 0 0 0 0 0 0 0 0 0 0 0 0 0 0 0 0 0 0 0 0 0 0 0 0 0 0 0 0 0
0.303095 3.34815e-08 1.55047e-08 1.79768e-08 0.536918 0.836574 0 0 0 0 0 0 0 0 0 0 0 0 0 0 0 0 0 0 0 0 0 0 0 0 0 0 0 0 0 0 0 0 0 0 0 0 0 0 0 0 0 0
0.318653 3.43678e-08 1.55818e-08 1.8786e-08 0.546616 0.83934 0 0 0 0 0 0 0 0 0 0 0 0 0 0 0 0 0 0 0 0 0 0 0 0 0 0 0 0 0 0 0 0 0 0 0 0 0 0 0 0 0 0
0.335009 3.4643e-08 1.56227e-08 1.90203e-08 0.549037 0.846015 0 0 0 0 0 0 0 0 0 0 0 0 0 0 0 0 0 0 0 0 0 0 0 0 0 0 0 0 0 0 0 0 0 0 0 0 0 0 0 0 0 0
0.352205 3.4337e-08 1.56856e-08 1.86514e-08 0.543187 0.841719 0 0 0 0 0 0 0 0 0 0 0 0 0 0 0 0 0 0 0 0 0 0 0 0 0 0 0 0 0 0 0 0 0 0 0 0 0 0 0 0 0 0
0.370284 3.38544e-08 1.57124e-08 1.81421e-08 0.535885 0.819777 0 0 0 0 0 0 0 0 0 0 0 0 0 0 0 0 0 0 0 0 0 0 0 0 0 0 0 0 0 0 0 0 0 0 0 0 0 0 0 0 0 0
0.389291 3.36083e-08 1.57719e-08 1.78364e-08 0.530715 0.796752 0 0 0 0 0 0 0 0 0 0 0 0 0 0 0 0 0 0 0 0 0 0 0 0 0 0 0 0 0 0 0 0 0 0 0 0 0 0 0 0 0 0
0.409273 3.37449e-08 1.57468e-08 1.79981e-08 0.533357 0.778896 0 0 0 0 0 0 0 0 0 0 0 0 0 0 0 0 0 0 0 0 0 0 0 0 0 0 0 0 0 0 0 0 0 0 0 0 0 0 0 0 0 0
0.430281 3.42827e-08 1.57297e-08 1.8553e-08 0.541177 0.780721 0 0 0 0 0 0 0 0 0 0 0 0 0 0 0 0 0 0 0 0 0 0 0 0 0 0 0 0 0 0 0 0 0 0 0 0 0 0 0 0 0 0
0.452368 3.50349e-08 1.57434e-08 1.92915e-08 0.550636 0.797282 0 0 0 0 0 0 0 0 0 0 0 0 0 0 0 0 0 0 0 0 0 0 0 0 0 0 0 0 0 0 0 0 0 0 0 0 0 0 0 0 0 0
0.475588 3.56212e-08 1.56632e-08 1.9958e-08 0.560285 0.818104 0 0 0 0 0 0 0 0 0 0 0 0 0 0 0 0 0 0 0 0 0 0 0 0 0 0 0 0 0 0 0 0 0 0 0 0 0 0 0 0 0 0
0.5 3.58628e-08 1.55749e-08 2.02879e-08 0.565708 0.827138 0 0 0 0 0 0 0 0 0 0 0 0 0 0 0 0 0 0 0 0 0 0 0 0 0 0 0 0 0 0 0 0 0 0 0 0 0 0 0 0 0 0
0.525665 3.57567e-08 1.55302e-08 2.02265e-08 0.565671 0.834868 0 0 0 0 0 0 0 0 0 0 0 0 0 0 0 0 0 0 0 0 0 0 0 0 0 0 0 0 0 0 0 0 0 0 0 0 0 0 0 0 0 0
0.552648 3.5334e-08 1.52741e-08 2.00599e-08 0.567722 0.820188 0 0 0 0 0 0 0 0 0 0 0 0 0 0 0 0 0 0 0 0 0 0 0 0 0 0 0 0 0 0 0 0 0 0 0 0 0 0 0 0 0 0
0.581015 3.47907e-08 1.52571e-08 1.95335e-08 0.561459 0.805011 0 0 0 0 0 0 0 0 0 0 0 0 0 0 0 0 0 0 0 0 0 0 0 0 0 0 0 0 0 0 0 0 0 0 0 0 0 0 0 0 0 0
0.610839 3.43502e-08 1.4961e-08 1.93892e-08 0.564457 0.755946 0 0 0 0 0 0 0 0 0 0 0 0 0 0 0 0 0 0 0 0 0 0 0 0 0 0 0 0 0 0 0 0 0 0 0 0 0 0 0 0 0 0
0.642193 3.43686e-08 1.48247e-08 1.95439e-08 0.568655 0.709286 0 0 0 0 0 0 0 0 0 0 0 0 0 0 0 0 0 0 0 0 0 0 0 0 0 0 0 0 0 0 0 0 0 0 0 0 0 0 0 0 0 0
0.675157 3.45354e-08 1.44592e-08 2.00762e-08 0.581323 0.639956 0 0 0 0 0 0 0 0 0 0 0 0 0 0 0 0 0 0 0 0 0 0 0 0 0 0 0 0 0 0 0 0 0 0 0 0 0 0 0 0 0 0
0.709813 3.57593e-08 1.43594e-08 2.13999e-08 0.598444 0.544674 0 0 0 0 0 0 0 0 0 0 0 0 0 0 0 0 0 0 0 0 0 0 0 0 0 0 0 0 0 0 0 0 0 0 0 0 0 0 0 0 0 0
0.746248 3.69291e-08 1.40733e-08 2.28558e-08 0.61891 0.53088 0 0 0 0 0 0 0 0 0 0 0 0 0 0 0 0 0 0 0 0 0 0 0 0 0 0 0 0 0 0 0 0 0 0 0 0 0 0 0 0 0 0
0.784553 3.90286e-08 1.36594e-08 2.53692e-08 0.650015 0.490165 0 0 0 0 0 0 0 0 0 0 0 0 0 0 0 0 0 0 0 0 0 0 0 0 0 0 0 0 0 0 0 0 0 0 0 0 0 0 0 0 0 0
0.824824 4.14417e-08 1.34637e-08 2.7978e-08 0.675117 0.489311 0 0 0 0 0 0 0 0 0 0 0 0 0 0 0 0 0 0 0 0 0 0 0 0 0 0 0 0 0 0 0 0 0 0 0 0 0 0 0 0 0 0
0.867162 4.34856e-08 1.31265e-08 3.03591e-08 0.698142 0.535912 0 0 0 0 0 0 0 0 0 0 0 0 0 0 0 0 0 0 0 0 0 0 0 0 0 0 0 0 0 0 0 0 0 0 0 0 0 0 0 0 0 0
0.911674 4.61337e-08 1.28148e-08 3.33189e-08 0.722224 0.542873 0 0 0 0 0 0 0 0 0 0 0 0 0 0 0 0 0 0 0 0 0 0 0 0 0 0 0 0 0 0 0 0 0 0 0 0 0 0 0 0 0 0
0.95847 4.85895e-08 1.25207e-08 3.60688e-08 0.742316 0.58446 0 0 0 0 0 0 0 0 0 0 0 0 0 0 0 0 0 0 0 0 0 0 0 0 0 0 0 0 0 0 0 0 0 0 0 0 0 0 0 0 0 0
1.00767 5.04799e-08 1.21622e-08 3.83177e-08 0.759069 0.628589 0 0 0 0 0 0 0 0 0 0 0 0 0 0 0 0 0 0 0 0 0 0 0 0 0 0 0 0 0 0 0 0 0 0 0 0 0 0 0 0 0 0
1.05939 5.18061e-08 1.19206e-08 3.98855e-08 0.7699 0.635125 0 0 0 0 0 0 0 0 0 0 0 0 0 0 0 0 0 0 0 0 0 0 0 0 0 0 0 0 0 0 0 0 0 0 0 0 0 0 0 0 0 0
1.11377 5.25319e-08 1.16426e-08 4.08892e-08 0.77837 0.633617 0 0 0 0 0 0 0 0 0 0 0 0 0 0 0 0 0 0 0 0 0 0 0 0 0 0 0 0 0 0 0 0 0 0 0 0 0 0 0 0 0 0
1.17094 5.28787e-08 1.1495e-08 4.13838e-08 0.782617 0.671408 0 0 0 0 0 0 0 0 0 0 0 0 0 0 0 0 0 0 0 0 0 0 0 0 0 0 0 0 0 0 0 0 0 0 0 0 0 0 0 0 0 0
1.23105 5.29638e-08 1.15659e-08 4.13978e-08 0.781625 0.693324 0 0 0 0 0 0 0 0 0 0 0 0 0 0 0 0 0 0 0 0 0 0 0 0 0 0 0 0 0 0 0 0 0 0 0 0 0 0 0 0 0 0
1.29424 5.22419e-08 1.15064e-08 4.07354e-08 0.779747 0.69298 0 0 0 0 0 0 0 0 0 0 0 0 0 0 0 0 0 0 0 0 0 0 0 0 0 0 0 0 0 0 0 0 0 0 0 0 0 0 0 0 0 0
1.36067 5.07723e-08 1.11455e-08 3.96267e-08 0.78048 0.672633 0 0 0 0 0 0 0 0 0 0 0 0 0 0 0 0 0 0 0 0 0 0 0 0 0 0 0 0 0 0 0 0 0 0 0 0 0 0 0 0 0 0
1.43051 4.88896e-08 1.06298e-08 3.82597e-08 0.782575 0.663577 0 0 0 0 0 0 0 0 0 0 0 0 0 0 0 0 0 0 0 0 0 0 0 0 0 0 0 0 0 0 0 0 0 0 0 0 0 0 0 0 0 0
1.50394 4.73786e-08 1.03625e-08 3.70161e-08 0.781284 0.674055 0 0 0 0 0 0 0 0 0 0 0 0 0 0 0 0 0 0 0 0 0 0 0 0 0 0 0 0 0 0 0 0 0 0 0 0 0 0 0 0 0 0
1.58114 4.57937e-08 1.03196e-08 3.54741e-08 0.77465 0.688739 0 0 0 0 0 0 0 0 0 0 0 0 0 0 0 0 0 0 0 0 0 0 0 0 0 0 0 0 0 0 0 0 0 0 0 0 0 0 0 0 0 0
1.6623 4.35462e-08 1.02559e-08 3.32903e-08 0.764482 0.695503 0 0 0 0 0 0 0 0 0 0 0 0 0 0 0 0 0 0 0 0 0 0 0 0 0 0 0 0 0 0 0 0 0 0 0 0 0 0 0 0 0 0
1.74763 4.06333e-08 9.98601e-09 3.06473e-08 0.754241 0.683989 0 0 0 0 0 0 0 0 0 0 0 0 0 0 0 0 0 0 0 0 0 0 0 0 0 0 0 0 0 0 0 0 0 0 0 0 0 0 0 0 0 0
1.83733 3.76015e-08 9.57331e-09 2.80282e-08 0.745401 0.653594 0 0 0 0 0 0 0 0 0 0 0 0 0 0 0 0 0 0 0 0 0 0 0 0 0 0 0 0 0 0 0 0 0 0 0 0 0 0 0 0 0 0
1.93164 3.49392e-08 9.21701e-09 2.57222e-08 0.736199 0.618311 0 0 0 0 0 0 0 0 0 0 0 0 0 0 0 0 0 0 0 0 0 0 0 0 0 0 0 0 0 0 0 0 0 0 0 0 0 0 0 0 0 0
2.03079 3.27133e-08 9.03399e-09 2.36793e-08 0.723843 0.59111 0 0 0 0 0 0 0 0 0 0 0 0 0 0 0 0 0 0 0 0 0 0 0 0 0 0 0 0 0 0 0 0 0 0 0 0 0 0 0 0 0 0
2.13503 3.0705e-08 9.00357e-09 2.17014e-08 0.706772 0.577473 0 0 0 0 0 0 0 0 0 0 0 0 0 0 0 0 0 0 0 0 0 0 0 0 0 0 0 0 0 0 0 0 0 0 0 0 0 0 0 0 0 0
2.24463 2.86987e-08 9.02167e-09 1.9677e-08 0.685641 0.577705 0 0 0 0 0 0 0 0 0 0 0 0 0 0 0 0 0 0 0 0 0 0 0 0 0 0 0 0 0 0 0 0 0 0 0 0 0 0 0 0 0 0
2.35984 2.65925e-08 8.9975e-09 1.7595e-08 0.661652 0.587041 0 0 0 0 0 0 0 0 0 0 0 0 0 0 0 0 0 0 0 0 0 0 0 0 0 0 0 0 0 0 0 0 0 0 0 0 0 0 0 0 0 0
2.48097 2.44333e-08 8.89323e-09 1.554e-08 0.636019 0.595836 0 0 0 0 0 0 0 0 0 0 0 0 0 0 0 0 0 0 0 0 0 0 0 0 0 0 0 0 0 0 0 0 0 0 0 0 0 0 0 0 0 0
2.60832 2.23439e-08 8.71491e-09 1.3629e-08 0.609965 0.592916 0 0 0 0 0 0 0 0 0 0 0 0 0 0 0 0 0 0 0 0 0 0 0 0 0 0 0 0 0 0 0 0 0 0 0 0 0 0 0 0 0 0
2.74221 2.04299e-08 8.50342e-09 1.19265e-08 0.583777 0.571587 0 0 0 0 0 0 0 0 0 0 0 0 0 0 0 0 0 0 0 0 0 0 0 0 0 0 0 0 0 0 0 0 0 0 0 0 0 0 0 0 0 0
2.88297 1.87596e-08 8.30356e-09 1.0456e-08 0.55737 0.532781 0 0 0 0 0 0 0 0 0 0 0 0 0 0 0 0 0 0 0 0 0 0 0 0 0 0 0 0 0 0 0 0 0 0 0 0 0 0 0 0 0 0
3.03095 1.73553e-08 8.1465e-09 9.20884e-09 0.530606 0.483523 0 0 0 0 0 0 0 0 0 0 0 0 0 0 0 0 0 0 0 0 0 0 0 0 0 0 0 0 0 0 0 0 0 0 0 0 0 0 0 0 0 0
3.18653 1.61056e-08 7.96267e-09 8.14296e-09 0.505597 0.431306 0 0 0 0 0 0 0 0 0 0 0 0 0 0 0 0 0 0 0 0 0 0 0 0 0 0 0 0 0 0 0 0 0 0 0 0 0 0 0 0 0 0
3.35009 1.49365e-08 7.8906e-09 7.04586e-09 0.471722 0.381251 0 0 0 0 0 0 0 0 0 0 0 0 0 0 0 0 0 0 0 0 0 0 0 0 0 0 0 0 0 0 0 0 0 0 0 0 0 0 0 0 0 0
3.52205 1.44103e-08 7.84561e-09 6.56471e-09 0.455556 0.335976 0 0 0 0 0 0 0 0 0 0 0 0 0 0 0 0 0 0 0 0 0 0 0 0 0 0 0 0 0 0 0 0 0 0 0 0 0 0 0 0 0 0
3.70284 1.29181e-08 7.22653e-09 5.69156e-09 0.440588 0.296317 0 0 0 0 0 0 0 0 0 0 0 0 0 0 0 0 0 0 0 0 0 0 0 0 0 0 0 0 0 0 0 0 0 0 0 0 0 0 0 0 0 0
3.89291 1.18407e-08 6.94582e-09 4.89487e-09 0.413394 0.261931 0 0 0 0 0 0 0 0 0 0 0 0 0 0 0 0 0 0 0 0 0 0 0 0 0 0 0 0 0 0 0 0 0 0 0 0 0 0 0 0 0 0
4.09273 1.08875e-08 6.70609e-09 4.18142e-09 0.384057 0.232176 0 0 0 0 0 0 0 0 0 0 0 0 0 0 0 0 0 0 0 0 0 0 0 0 0 0 0 0 0 0 0 0 0 0 0 0 0 0 0 0 0 0
4.30281 1.00517e-08 6.50272e-09 3.54895e-09 0.35307 0.206382 0 0 0 0 0 0 0 0 0 0 0 0 0 0 0 0 0 0 0 0 0 0 0 0 0 0 0 0 0 0 0 0 0 0 0 0 0 0 0 0 0 0
4.52368 9.33261e-09 6.33605e-09 2.99656e-09 0.321085 0.183953 0 0 0 0 0 0 0 0 0 0 0 0 0 0 0 0 0 0 0 0 0 0 0 0 0 0 0 0 0 0 0 0 0 0 0 0 0 0 0 0 0 0
4.75588 8.71912e-09 6.19769e-09 2.52144e-09 0.289185 0.164272 0 0 0 0 0 0 0 0 0 0 0 0 0 0 0 0 0 0 0 0 0 0 0 0 0 0 0 0 0 0 0 0 0 0 0 0 0 0 0 0 0 0
5 8.18988e-09 6.07204e-09 2.11783e-09 0.258592 0.146867 0 0 0 0 0 0 0 0 0 0 0 0 0 0 0 0 0 0 0 0 0 0 0 0 0 0 0 0 0 0 0 0 0 0 0 0 0 0 0 0 0 0
5.25665 7.71928e-09 5.94439e-09 1.77489e-09 0.229929 0.131405 0 0 0 0 0 0 0 0 0 0 0 0 0 0 0 0 0 0 0 0 0 0 0 0 0 0 0 0 0 0 0 0 0 0 0 0 0 0 0 0 0 0
5.52648 7.29772e-09 5.81442e-09 1.48329e-09 0.203255 0.117656 0 0 0 0 0 0 0 0 0 0 0 0 0 0 0 0 0 0 0 0 0 0 0 0 0 0 0 0 0 0 0 0 0 0 0 0 0 0 0 0 0 0
5.81015 6.91325e-09 5.67807e-09 1.23518e-09 0.178669 0.105295 0 0 0 0 0 0 0 0 0 0 0 0 0 0 0 0 0 0 0 0 0 0 0 0 0 0 0 0 0 0 0 0 0 0 0 0 0 0 0 0 0 0
6.10839 6.56522e-09 5.54101e-09 1.02421e-09 0.156005 0.0941713 0 0 0 0 0 0 0 0 0 0 0 0 0 0 0 0 0 0 0 0 0 0 0 0 0 0 0 0 0 0 0 0 0 0 0 0 0 0 0 0 1.4013e-45 0
6.42193 6.24592e-09 5.40147e-09 8.44445e-10 0.1352 0.0840927 0 0 0 0 0 0 0 0 0 0 0 0 0 0 0 0 0 0 0 0 0 0 0 0 0 0 0 0 0 0 1.4013e-45 0 2.8026e-45 0 9.80909e-45 0 2.8026e-44 0 7.42688e-44 0 1.8357e-43 0
6.75157 5.96569e-09 5.27651e-09 6.89175e-10 0.115523 0.0748573 0 0 0 0 0 0 0 0 0 0 0 0 0 0 0 0 0 0 0 0 0 0 0 0 2.8026e-45 0 1.4013e-44 0 5.1848e-44 0 1.73761e-43 0 5.22684e-43 0 1.49799e-42 0 3.97408e-42 0 9.80489e-42 0 2.31873e-41 0
7.09813 5.6782e-09 5.11625e-09 5.61951e-10 0.0989664 0.0662246 0 0 0 0 0 0 0 0 0 0 0 0 0 0 0 0 0 0 2.8026e-45 0 1.96182e-44 0 1.079e-43 0 4.84849e-43 0 1.95481e-42 0 6.78228e-42 0 2.15884e-41 0 6.16669e-41 0 1.67784e-40 0 4.24511e-40 0 1.00234e-39 0 2.27271e-39 0
7.46248 5.41005e-09 4.96455e-09 4.45501e-10 0.0823469 0.0579507 0 0 0 0 0 0 0 0 0 0 0 0 0 0 5.60519e-45 0 5.74532e-44 0 4.49817e-43 0 2.71151e-42 0 1.36529e-41 0 5.66307e-41 0 2.13465e-40 0 6.96761e-40 0 2.09602e-39 0 5.68829e-39 0 1.47385e-38 0 3.56377e-38 0 8.06898e-38 0 1.75788e-37 0
7.84553 5.13513e-09 4.79911e-09 3.36019e-10 0.0654354 0.0502415 0 0 0 0 0 0 0 0 0 0 1.4013e-45 0 5.1848e-44 0 7.62306e-43 0 7.3372e-42 0 5.18957e-41 0 2.86306e-40 0 1.33204e-39 0 5.15463e-39 0 1.82111e-38 0 5.61058e-38 0 1.59943e-37 0 4.13412e-37 0 1.02251e-36 0 2.36811e-36 0 5.15208e-36 0 1.08054e-35 0
8.24824 5.43835e-09 5.19436e-09 2.43983e-10 0.0448635 0.0437096 0 0 0 0 0 0 0 0 7.00649e-45 0 3.3491e-43 0 7.41988e-42 0 9.46311e-41 0 8.14894e-40 0 5.23827e-39 0 2.65875e-38 0 1.14753e-37 0 4.15673e-37 0 1.38079e-36 0 4.02663e-36 0 1.09065e-35 0 2.69133e-35 0 6.3687e-35 0 1.41572e-34 0 2.96535e-34 0 5.99833e-34 0
8.67162 6.36843e-09 6.15907e-09 2.09352e-10 0.0328734 0.0382932 0 0 0 0 0 0 7.00649e-45 0 1.11964e-42 0 4.69953e-41 0 8.94676e-40 0 1.00772e-38 0 7.81181e-38 0 4.58547e-37 0 2.14995e-36 0 8.6399e-36 0 2.93903e-35 0 9.20713e-35 0 2.54826e-34 0 6.57446e-34 0 1.55235e-33 0 3.52215e-33 0 7.53001e-33 0 1.52131e-32 0 2.97326e-32 0
9.11674 8.52666e-09 8.27985e-09 2.46808e-10 0.0289454 0.0328414 0 0 0 0 1.4013e-45 0 1.35506e-42 0 1.67284e-40 0 5.84825e-39 0 9.6419e-38 0 9.64917e-37 0 6.76826e-36 0 3.64403e-35 0 1.58439e-34 0 5.94908e-34 0 1.90628e-33 0 5.64797e-33 0 1.48739e-32 0 3.66392e-32 0 8.29577e-32 0 1.80844e-31 0 3.72546e-31 0 7.2726e-31 0 1.37562e-30 0
9.5847 1.05511e-08 1.02024e-08 3.48683e-10 0.033047 0.0290506 0 0 0 0 1.97583e-43 0 1.84241e-40 0 1.79742e-38 0 5.28274e-37 0 7.59573e-36 0 6.79293e-35 0 4.33251e-34 0 2.14857e-33 0 8.69494e-33 0 3.06055e-32 0 9.26495e-32 0 2.60327e-31 0 6.53914e-31 0 1.54143e-30 0 3.35357e-30 0 7.03769e-30 0 1.39953e-29 0 2.64428e-29 0 4.84842e-29 0
10.0767 1.05869e-08 1.01899e-08 3.96979e-10 0.0374972 0.0271248 0 0 0 0 2.38011e-41 0 1.59382e-38 0 1.24331e-36 0 3.09816e-35 0 3.91102e-34 0 3.14284e-33 0 1.83112e-32 0 8.39795e-32 0 3.17431e-31 0 1.05075e-30 0 3.01339e-30 0 8.05055e-30 0 1.93329e-29 0 4.37038e-29 0 9.15419e-29 0 1.85278e-28 0 3.56287e-28 0 6.52581e-28 0 1.16164e-27 0
10.5939 9.23894e-09 8.87794e-09 3.61004e-10 0.0390742 0.0262444 0 0 1.68156e-44 0 1.96059e-39 0 9.5556e-37 0 6.0258e-35 0 1.28338e-33 0 1.43146e-32 0 1.03902e-31 0 5.55453e-31 0 2.36488e-30 0 8.37703e-30 0 2.61552e-29 0 7.12485e-29 0 1.8143e-28 0 4.1745e-28 0 9.06843e-28 0 1.83213e-27 0 3.5827e-27 0 6.67298e-27 0 1.18665e-26 0 2.05368e-26 0
11.1377 7.8146e-09 7.50709e-09 3.0751e-10 0.0393507 0.0266694 0 0 1.89596e-42 0 1.24001e-37 0 4.4675e-35 0 2.30118e-33 0 4.2212e-32 0 4.18522e-31 0 2.75761e-30 0 1.35835e-29 0 5.38836e-29 0 1.7944e-28 0 5.29963e-28 0 1.37472e-27 0 3.34448e-27 0 7.38847e-27 0 1.54537e-26 0 3.01678e-26 0 5.70923e-26 0 1.03157e-25 0 1.78359e-25 0 3.00522e-25 0
11.7094 6.28239e-09 6.04076e-09 2.41625e-10 0.0384608 0.0268219 1.4013e-45 0 1.56924e-40 0 5.97212e-36 0 1.61414e-33 0 6.85876e-32 0 1.09155e-30 0 9.67572e-30 0 5.81461e-29 0 2.64966e-28 0 9.82688e-28 0 3.08582e-27 0 8.64436e-27 0 2.14037e-26 0 4.986e-26 0 1.05967e-25 0 2.13797e-25 0 4.03952e-25 0 7.41034e-25 0 1.30082e-24 0 2.18979e-24 0 3.59683e-24 0
12.3105 4.99476e-09 4.81504e-09 1.79726e-10 0.0359829 0.0267917 1.23314e-43 0 1.01355e-38 0 2.30488e-34 0 4.73948e-32 0 1.67701e-30 0 2.33161e-29 0 1.85792e-28 0 1.02291e-27 0 4.32863e-27 0 1.50586e-26 0 4.47172e-26 0 1.19123e-25 0 2.82181e-25 0 6.30752e-25 0 1.29209e-24 0 2.51907e-24 0 4.61398e-24 0 8.2171e-24 0 1.40335e-23 0 2.30307e-23 0 3.69235e-23 0
12.9424 4.43262e-09 4.30292e-09 1.29697e-10 0.0292596 0.0257618 1.23482e-41 0 5.85012e-37 0 8.15174e-33 0 1.2924e-30 0 3.84222e-29 0 4.69777e-28 0 3.38264e-27 0 1.71355e-26 0 6.75802e-26 0 2.21217e-25 0 6.22917e-25 0 1.58189e-24 0 3.5927e-24 0 7.72142e-24 0 1.5273e-23 0 2.88215e-23 0 5.1253e-23 0 8.87411e-23 0 1.47646e-22 0 2.36516e-22 0 3.7055e-22 0
