# 0.00010593 0 139 : grain size, compostion index, size index
# Heating and cooling timescale: 0.000198037 1.98163e+07
# Ratio of heating to cooling to determine stochastic cutoff: 100
# Equilibrium emission is recorded even for those grains in the stochastic regime.
# Emission spectrum was computed for: 
# Type: IRSF
# Scales: 0.25 0.5 1 1.5 2 2.5 3 3.5 4 4.5 5 5.5 6 6.5 7 7.5 8 8.5 9 9.5 10
# StochasticallyHeated: 0 0 0 0 0 0 0 0 0 0 0 0 0 0 0 0 0 0 0 0 0
# Temperature: -1
# Wavelength  CExt  CAbs  CSca  Albedo G EqEm1 StEm1 EqEm2 StEm2 EqEm3 StEm3 EqEm4 StEm4 EqEm5 StEm5 EqEm6 StEm6 EqEm7 StEm7 EqEm8 StEm8 EqEm9 StEm9 EqEm10 StEm10 EqEm11 StEm11 EqEm12 StEm12 EqEm13 StEm13 EqEm14 StEm14 EqEm15 StEm15 EqEm16 StEm16 EqEm17 StEm17 EqEm18 StEm18 EqEm19 StEm19 EqEm20 StEm20 EqEm21 StEm21
0.05 1.88172e-08 7.016e-09 1.18012e-08 0.627151 0.00576547 0 0 0 0 0 0 0 0 0 0 0 0 0 0 0 0 0 0 0 0 0 0 0 0 0 0 0 0 0 0 0 0 0 0 0 0 0 0 0 0 0 0
0.0525665 2.07986e-08 7.75475e-09 1.30439e-08 0.627151 0.00637255 0 0 0 0 0 0 0 0 0 0 0 0 0 0 0 0 0 0 0 0 0 0 0 0 0 0 0 0 0 0 0 0 0 0 0 0 0 0 0 0 0 0
0.0552647 2.29886e-08 8.57128e-09 1.44173e-08 0.627151 0.00704355 0 0 0 0 0 0 0 0 0 0 0 0 0 0 0 0 0 0 0 0 0 0 0 0 0 0 0 0 0 0 0 0 0 0 0 0 0 0 0 0 0 0
0.0581015 2.54092e-08 9.4738e-09 1.59354e-08 0.627151 0.0077852 0 0 0 0 0 0 0 0 0 0 0 0 0 0 0 0 0 0 0 0 0 0 0 0 0 0 0 0 0 0 0 0 0 0 0 0 0 0 0 0 0 0
0.0610839 2.80846e-08 1.04713e-08 1.76133e-08 0.627151 0.00860494 0 0 0 0 0 0 0 0 0 0 0 0 0 0 0 0 0 0 0 0 0 0 0 0 0 0 0 0 0 0 0 0 0 0 0 0 0 0 0 0 0 0
0.0642193 3.10418e-08 1.15739e-08 1.94679e-08 0.627151 0.009511 0 0 0 0 0 0 0 0 0 0 0 0 0 0 0 0 0 0 0 0 0 0 0 0 0 0 0 0 0 0 0 0 0 0 0 0 0 0 0 0 0 0
0.0675157 3.43104e-08 1.27926e-08 2.15178e-08 0.627151 0.0105125 0 0 0 0 0 0 0 0 0 0 0 0 0 0 0 0 0 0 0 0 0 0 0 0 0 0 0 0 0 0 0 0 0 0 0 0 0 0 0 0 0 0
0.0709813 3.79231e-08 1.41396e-08 2.37835e-08 0.627151 0.0116194 0 0 0 0 0 0 0 0 0 0 0 0 0 0 0 0 0 0 0 0 0 0 0 0 0 0 0 0 0 0 0 0 0 0 0 0 0 0 0 0 0 0
0.0746248 4.19162e-08 1.56284e-08 2.62878e-08 0.627151 0.0128428 0 0 0 0 0 0 0 0 0 0 0 0 0 0 0 0 0 0 0 0 0 0 0 0 0 0 0 0 0 0 0 0 0 0 0 0 0 0 0 0 0 0
0.0784553 4.63298e-08 1.7274e-08 2.90557e-08 0.627151 0.0141951 0 0 0 0 0 0 0 0 0 0 0 0 0 0 0 0 0 0 0 0 0 0 0 0 0 0 0 0 0 0 0 0 0 0 0 0 0 0 0 0 0 0
0.0824824 5.12081e-08 1.90929e-08 3.21152e-08 0.627151 0.0156898 0 0 0 0 0 0 0 0 0 0 0 0 0 0 0 0 0 0 0 0 0 0 0 0 0 0 0 0 0 0 0 0 0 0 0 0 0 0 0 0 0 0
0.0867162 5.66001e-08 2.11033e-08 3.54968e-08 0.627151 0.0173419 0 0 0 0 0 0 0 0 0 0 0 0 0 0 0 0 0 0 0 0 0 0 0 0 0 0 0 0 0 0 0 0 0 0 0 0 0 0 0 0 0 0
0.0911674 6.25598e-08 2.33254e-08 3.92344e-08 0.627151 0.0191679 0 0 0 0 0 0 0 0 0 0 0 0 0 0 0 0 0 0 0 0 0 0 0 0 0 0 0 0 0 0 0 0 0 0 0 0 0 0 0 0 0 0
0.095847 6.9147e-08 2.57814e-08 4.33656e-08 0.627151 0.0211862 0 0 0 0 0 0 0 0 0 0 0 0 0 0 0 0 0 0 0 0 0 0 0 0 0 0 0 0 0 0 0 0 0 0 0 0 0 0 0 0 0 0
0.100767 7.52545e-08 2.82784e-08 4.69762e-08 0.62423 0.0235692 0 0 0 0 0 0 0 0 0 0 0 0 0 0 0 0 0 0 0 0 0 0 0 0 0 0 0 0 0 0 0 0 0 0 0 0 0 0 0 0 0 0
0.105939 7.52175e-08 2.9493e-08 4.57246e-08 0.607898 0.0256046 0 0 0 0 0 0 0 0 0 0 0 0 0 0 0 0 0 0 0 0 0 0 0 0 0 0 0 0 0 0 0 0 0 0 0 0 0 0 0 0 0 0
0.111377 7.53077e-08 2.98062e-08 4.55015e-08 0.604208 0.0289403 0 0 0 0 0 0 0 0 0 0 0 0 0 0 0 0 0 0 0 0 0 0 0 0 0 0 0 0 0 0 0 0 0 0 0 0 0 0 0 0 0 0
0.117094 7.52729e-08 3.08303e-08 4.44426e-08 0.59042 0.0274507 0 0 0 0 0 0 0 0 0 0 0 0 0 0 0 0 0 0 0 0 0 0 0 0 0 0 0 0 0 0 0 0 0 0 0 0 0 0 0 0 0 0
0.123105 7.53252e-08 3.20404e-08 4.32848e-08 0.574639 0.0236555 0 0 0 0 0 0 0 0 0 0 0 0 0 0 0 0 0 0 0 0 0 0 0 0 0 0 0 0 0 0 0 0 0 0 0 0 0 0 0 0 0 0
0.129424 7.54349e-08 3.29934e-08 4.24415e-08 0.562624 0.0199126 0 0 0 0 0 0 0 0 0 0 0 0 0 0 0 0 0 0 0 0 0 0 0 0 0 0 0 0 0 0 0 0 0 0 0 0 0 0 0 0 0 0
0.136067 7.55558e-08 3.37685e-08 4.17874e-08 0.553066 0.0168557 0 0 0 0 0 0 0 0 0 0 0 0 0 0 0 0 0 0 0 0 0 0 0 0 0 0 0 0 0 0 0 0 0 0 0 0 0 0 0 0 0 0
0.143051 7.56566e-08 3.44267e-08 4.12299e-08 0.544961 0.0143876 0 0 0 0 0 0 0 0 0 0 0 0 0 0 0 0 0 0 0 0 0 0 0 0 0 0 0 0 0 0 0 0 0 0 0 0 0 0 0 0 0 0
0.150394 7.57043e-08 3.49669e-08 4.07374e-08 0.538113 0.0122986 0 0 0 0 0 0 0 0 0 0 0 0 0 0 0 0 0 0 0 0 0 0 0 0 0 0 0 0 0 0 0 0 0 0 0 0 0 0 0 0 0 0
0.158114 7.56513e-08 3.5303e-08 4.03483e-08 0.533346 0.01055 0 0 0 0 0 0 0 0 0 0 0 0 0 0 0 0 0 0 0 0 0 0 0 0 0 0 0 0 0 0 0 0 0 0 0 0 0 0 0 0 0 0
0.16623 7.54913e-08 3.52597e-08 4.02316e-08 0.53293 0.00908216 0 0 0 0 0 0 0 0 0 0 0 0 0 0 0 0 0 0 0 0 0 0 0 0 0 0 0 0 0 0 0 0 0 0 0 0 0 0 0 0 0 0
0.174762 7.53571e-08 3.47034e-08 4.06537e-08 0.539481 0.00782097 0 0 0 0 0 0 0 0 0 0 0 0 0 0 0 0 0 0 0 0 0 0 0 0 0 0 0 0 0 0 0 0 0 0 0 0 0 0 0 0 0 0
0.183733 7.54571e-08 3.35331e-08 4.1924e-08 0.5556 0.00667218 0 0 0 0 0 0 0 0 0 0 0 0 0 0 0 0 0 0 0 0 0 0 0 0 0 0 0 0 0 0 0 0 0 0 0 0 0 0 0 0 0 0
0.193164 7.59857e-08 3.16681e-08 4.43176e-08 0.583236 0.00556038 0 0 0 0 0 0 0 0 0 0 0 0 0 0 0 0 0 0 0 0 0 0 0 0 0 0 0 0 0 0 0 0 0 0 0 0 0 0 0 0 0 0
0.203079 7.68721e-08 2.95017e-08 4.73704e-08 0.616224 0.00446034 0 0 0 0 0 0 0 0 0 0 0 0 0 0 0 0 0 0 0 0 0 0 0 0 0 0 0 0 0 0 0 0 0 0 0 0 0 0 0 0 0 0
0.213503 7.79608e-08 2.76675e-08 5.02934e-08 0.64511 0.00342932 0 0 0 0 0 0 0 0 0 0 0 0 0 0 0 0 0 0 0 0 0 0 0 0 0 0 0 0 0 0 0 0 0 0 0 0 0 0 0 0 0 0
0.224463 7.91232e-08 2.65718e-08 5.25514e-08 0.664172 0.00254317 0 0 0 0 0 0 0 0 0 0 0 0 0 0 0 0 0 0 0 0 0 0 0 0 0 0 0 0 0 0 0 0 0 0 0 0 0 0 0 0 0 0
0.235984 8.01816e-08 2.62009e-08 5.39807e-08 0.67323 0.00182186 0 0 0 0 0 0 0 0 0 0 0 0 0 0 0 0 0 0 0 0 0 0 0 0 0 0 0 0 0 0 0 0 0 0 0 0 0 0 0 0 0 0
0.248097 8.08839e-08 2.62977e-08 5.45862e-08 0.674871 0.00138916 0 0 0 0 0 0 0 0 0 0 0 0 0 0 0 0 0 0 0 0 0 0 0 0 0 0 0 0 0 0 0 0 0 0 0 0 0 0 0 0 0 0
0.260832 8.10282e-08 2.67103e-08 5.43179e-08 0.670358 0.00141961 0 0 0 0 0 0 0 0 0 0 0 0 0 0 0 0 0 0 0 0 0 0 0 0 0 0 0 0 0 0 0 0 0 0 0 0 0 0 0 0 0 0
0.274221 8.06777e-08 2.746e-08 5.32177e-08 0.659633 0.00187131 0 0 0 0 0 0 0 0 0 0 0 0 0 0 0 0 0 0 0 0 0 0 0 0 0 0 0 0 0 0 0 0 0 0 0 0 0 0 0 0 0 0
0.288297 8.02266e-08 2.85393e-08 5.16874e-08 0.644267 0.00251556 0 0 0 0 0 0 0 0 0 0 0 0 0 0 0 0 0 0 0 0 0 0 0 0 0 0 0 0 0 0 0 0 0 0 0 0 0 0 0 0 0 0
0.303095 7.99989e-08 2.97249e-08 5.0274e-08 0.628433 0.0028362 0 0 0 0 0 0 0 0 0 0 0 0 0 0 0 0 0 0 0 0 0 0 0 0 0 0 0 0 0 0 0 0 0 0 0 0 0 0 0 0 0 0
0.318653 8.0014e-08 3.07879e-08 4.92261e-08 0.615218 0.00297223 0 0 0 0 0 0 0 0 0 0 0 0 0 0 0 0 0 0 0 0 0 0 0 0 0 0 0 0 0 0 0 0 0 0 0 0 0 0 0 0 0 0
0.335009 8.0185e-08 3.16375e-08 4.85475e-08 0.605443 0.00293231 0 0 0 0 0 0 0 0 0 0 0 0 0 0 0 0 0 0 0 0 0 0 0 0 0 0 0 0 0 0 0 0 0 0 0 0 0 0 0 0 0 0
0.352205 8.04448e-08 3.22776e-08 4.81672e-08 0.598761 0.00278811 0 0 0 0 0 0 0 0 0 0 0 0 0 0 0 0 0 0 0 0 0 0 0 0 0 0 0 0 0 0 0 0 0 0 0 0 0 0 0 0 0 0
0.370284 8.07523e-08 3.27416e-08 4.80106e-08 0.594542 0.00261033 0 0 0 0 0 0 0 0 0 0 0 0 0 0 0 0 0 0 0 0 0 0 0 0 0 0 0 0 0 0 0 0 0 0 0 0 0 0 0 0 0 0
0.389291 8.10878e-08 3.30736e-08 4.80142e-08 0.592126 0.00243645 0 0 0 0 0 0 0 0 0 0 0 0 0 0 0 0 0 0 0 0 0 0 0 0 0 0 0 0 0 0 0 0 0 0 0 0 0 0 0 0 0 0
0.409273 8.14331e-08 3.33237e-08 4.81094e-08 0.590784 0.00226652 0 0 0 0 0 0 0 0 0 0 0 0 0 0 0 0 0 0 0 0 0 0 0 0 0 0 0 0 0 0 0 0 0 0 0 0 0 0 0 0 0 0
0.430281 8.17841e-08 3.35336e-08 4.82505e-08 0.589974 0.00210471 0 0 0 0 0 0 0 0 0 0 0 0 0 0 0 0 0 0 0 0 0 0 0 0 0 0 0 0 0 0 0 0 0 0 0 0 0 0 0 0 0 0
0.452368 8.21329e-08 3.37334e-08 4.83995e-08 0.589283 0.00193723 0 0 0 0 0 0 0 0 0 0 0 0 0 0 0 0 0 0 0 0 0 0 0 0 0 0 0 0 0 0 0 0 0 0 0 0 0 0 0 0 0 0
0.475588 8.24835e-08 3.39422e-08 4.85413e-08 0.588497 0.00177642 0 0 0 0 0 0 0 0 0 0 0 0 0 0 0 0 0 0 0 0 0 0 0 0 0 0 0 0 0 0 0 0 0 0 0 0 0 0 0 0 0 0
0.5 8.2839e-08 3.41658e-08 4.86732e-08 0.587564 0.00162159 0 0 0 0 0 0 0 0 0 0 0 0 0 0 0 0 0 0 0 0 0 0 0 0 0 0 0 0 0 0 0 0 0 0 0 0 0 0 0 0 0 0
0.525665 8.32041e-08 3.44051e-08 4.8799e-08 0.586498 0.0014751 0 0 0 0 0 0 0 0 0 0 0 0 0 0 0 0 0 0 0 0 0 0 0 0 0 0 0 0 0 0 0 0 0 0 0 0 0 0 0 0 0 0
0.552648 8.3581e-08 3.46557e-08 4.89253e-08 0.585364 0.00134175 0 0 0 0 0 0 0 0 0 0 0 0 0 0 0 0 0 0 0 0 0 0 0 0 0 0 0 0 0 0 0 0 0 0 0 0 0 0 0 0 0 0
0.581015 8.3975e-08 3.49118e-08 4.90632e-08 0.584259 0.00121775 0 0 0 0 0 0 0 0 0 0 0 0 0 0 0 0 0 0 0 0 0 0 0 0 0 0 0 0 0 0 0 0 0 0 0 0 0 0 0 0 0 0
0.610839 8.43866e-08 3.51679e-08 4.92187e-08 0.583253 0.00110516 0 0 0 0 0 0 0 0 0 0 0 0 0 0 0 0 0 0 0 0 0 0 0 0 0 0 0 0 0 0 0 0 0 0 0 0 0 0 0 0 0 0
0.642193 8.48157e-08 3.5418e-08 4.93977e-08 0.582412 0.00100302 0 0 0 0 0 0 0 0 0 0 0 0 0 0 0 0 0 0 0 0 0 0 0 0 0 0 0 0 0 0 0 0 0 0 0 0 0 0 0 0 0 0
0.675157 8.52626e-08 3.56596e-08 4.9603e-08 0.581768 0.000910957 0 0 0 0 0 0 0 0 0 0 0 0 0 0 0 0 0 0 0 0 0 0 0 0 0 0 0 0 0 0 0 0 0 0 0 0 0 0 0 0 0 0
0.709813 8.57259e-08 3.58887e-08 4.98372e-08 0.581355 0.00082817 0 0 0 0 0 0 0 0 0 0 0 0 0 0 0 0 0 0 0 0 0 0 0 0 0 0 0 0 0 0 0 0 0 0 0 0 0 0 0 0 0 0
0.746248 8.62029e-08 3.61052e-08 5.00977e-08 0.581161 0.000754183 0 0 0 0 0 0 0 0 0 0 0 0 0 0 0 0 0 0 0 0 0 0 0 0 0 0 0 0 0 0 0 0 0 0 0 0 0 0 0 0 0 0
0.784553 8.66938e-08 3.63064e-08 5.03874e-08 0.581211 0.000686995 0 0 0 0 0 0 0 0 0 0 0 0 0 0 0 0 0 0 0 0 0 0 0 0 0 0 0 0 0 0 0 0 0 0 0 0 0 0 0 0 0 0
0.824824 8.7196e-08 3.64933e-08 5.07027e-08 0.58148 0.000626788 0 0 0 0 0 0 0 0 0 0 0 0 0 0 0 0 0 0 0 0 0 0 0 0 0 0 0 0 0 0 0 0 0 0 0 0 0 0 0 0 0 0
0.867162 8.77045e-08 3.66633e-08 5.10412e-08 0.581968 0.000572518 0 0 0 0 0 0 0 0 0 0 0 0 0 0 0 0 0 0 0 0 0 0 0 0 0 0 0 0 0 0 0 0 0 0 0 0 0 0 0 0 0 0
0.911674 8.82231e-08 3.68258e-08 5.13973e-08 0.582583 0.000523427 0 0 0 0 0 0 0 0 0 0 0 0 0 0 0 0 0 0 0 0 0 0 0 0 0 0 0 0 0 0 0 0 0 0 0 0 0 0 0 0 0 0
0.95847 8.87396e-08 3.69693e-08 5.17704e-08 0.583396 0.00047944 0 0 0 0 0 0 0 0 0 0 0 0 0 0 0 0 0 0 0 0 0 0 0 0 0 0 0 0 0 0 0 0 0 0 0 0 0 0 0 0 0 0
1.00767 8.92638e-08 3.7104e-08 5.21598e-08 0.584333 0.0004395 0 0 0 0 0 0 0 0 0 0 0 0 0 0 0 0 0 0 0 0 0 0 0 0 0 0 0 0 0 0 0 0 0 0 0 0 0 0 0 0 0 0
1.05939 8.97869e-08 3.72337e-08 5.25532e-08 0.58531 0.000403275 0 0 0 0 0 0 0 0 0 0 0 0 0 0 0 0 0 0 0 0 0 0 0 0 0 0 0 0 0 0 0 0 0 0 0 0 0 0 0 0 0 0
1.11377 9.02972e-08 3.73421e-08 5.29552e-08 0.586454 0.000370298 0 0 0 0 0 0 0 0 0 0 0 0 0 0 0 0 0 0 0 0 0 0 0 0 0 0 0 0 0 0 0 0 0 0 0 0 0 0 0 0 0 0
1.17094 9.082e-08 3.7456e-08 5.33639e-08 0.587579 0.000339515 0 0 0 0 0 0 0 0 0 0 0 0 0 0 0 0 0 0 0 0 0 0 0 0 0 0 0 0 0 0 0 0 0 0 0 0 0 0 0 0 0 0
1.23105 9.13328e-08 3.75704e-08 5.37624e-08 0.588643 0.000311294 0 0 0 0 0 0 0 0 0 0 0 0 0 0 0 0 0 0 0 0 0 0 0 0 0 0 0 0 0 0 0 0 0 0 0 0 0 0 0 0 0 0
1.29424 9.18138e-08 3.76567e-08 5.41571e-08 0.589858 0.000285362 0 0 0 0 0 0 0 0 0 0 0 0 0 0 0 0 0 0 0 0 0 0 0 0 0 0 0 0 0 0 0 0 0 0 0 0 0 0 0 0 0 0
1.36067 9.23182e-08 3.77519e-08 5.45662e-08 0.591067 0.000261742 0 0 0 0 0 0 0 0 0 0 0 0 0 0 0 0 0 0 0 0 0 0 0 0 0 0 0 0 0 0 0 0 0 0 0 0 0 0 0 0 0 0
1.43051 9.28358e-08 3.7879e-08 5.49568e-08 0.591978 0.000240209 0 0 0 0 0 0 0 0 0 0 0 0 0 0 0 0 0 0 0 0 0 0 0 0 0 0 0 0 0 0 0 0 0 0 0 0 0 0 0 0 0 0
1.50394 9.32956e-08 3.79834e-08 5.53123e-08 0.592871 0.000220279 0 0 0 0 0 0 0 0 0 0 0 0 0 0 0 0 0 0 0 0 0 0 0 0 0 0 0 0 0 0 0 0 0 0 0 0 0 0 0 0 0 0
1.58114 9.37223e-08 3.80485e-08 5.56738e-08 0.594029 0.000201732 0 0 0 0 0 0 0 0 0 0 0 0 0 0 0 0 0 0 0 0 0 0 0 0 0 0 0 0 0 0 0 0 0 0 0 0 0 0 0 0 0 0
1.6623 9.42193e-08 3.81544e-08 5.60649e-08 0.595047 0.000184534 0 0 0 0 0 0 0 0 0 0 0 0 0 0 0 0 0 0 0 0 0 0 0 0 0 0 0 0 0 0 0 0 0 0 0 0 0 0 0 0 0 0
1.74763 9.47559e-08 3.83255e-08 5.64304e-08 0.595534 0.000169005 0 0 0 0 0 0 0 0 0 0 0 0 0 0 0 0 0 0 0 0 0 0 0 0 0 0 0 0 0 0 0 0 0 0 0 0 0 0 0 0 0 0
1.83733 9.52071e-08 3.84916e-08 5.67155e-08 0.595707 0.000154804 0 0 0 0 0 0 0 0 0 0 0 0 0 0 0 0 0 0 0 0 0 0 0 0 0 0 0 0 0 0 0 0 0 0 0 0 0 0 0 0 0 0
1.93164 9.55471e-08 3.85801e-08 5.6967e-08 0.596219 0.000141793 0 0 0 0 0 0 0 0 0 0 0 0 0 0 0 0 0 0 0 0 0 0 0 0 0 0 0 0 0 0 0 0 0 0 0 0 0 0 0 0 0 0
2.03079 9.5923e-08 3.86474e-08 5.72756e-08 0.5971 0.000129725 0 0 0 0 0 0 0 0 0 0 0 0 0 0 0 0 0 0 0 0 0 0 0 0 0 0 0 0 0 0 0 0 0 0 0 0 0 0 0 0 0 0
2.13503 9.64536e-08 3.88061e-08 5.76475e-08 0.597671 0.000118657 0 0 0 0 0 0 0 0 0 0 0 0 0 0 0 0 0 0 0 0 0 0 0 0 0 0 0 0 0 0 0 0 0 0 0 0 0 0 0 0 0 0
2.24463 9.70788e-08 3.90902e-08 5.79887e-08 0.597336 0.000108569 0 0 0 0 0 0 0 0 0 0 0 0 0 0 0 0 0 0 0 0 0 0 0 0 0 0 0 0 0 0 0 0 0 0 0 0 0 0 0 0 0 0
2.35984 9.76015e-08 3.94058e-08 5.81957e-08 0.596258 9.92926e-05 0 0 0 0 0 0 0 0 0 0 0 0 0 0 0 0 0 0 0 0 0 0 0 0 0 0 0 0 0 0 0 0 0 0 0 0 0 0 0 0 0 0
2.48097 9.78888e-08 3.963e-08 5.82588e-08 0.595153 9.07218e-05 0 0 0 0 0 0 0 0 0 0 0 0 0 0 0 0 0 0 0 0 0 0 0 0 0 0 0 0 0 0 0 0 0 0 0 0 0 0 0 0 0 0
2.60832 9.80246e-08 3.97292e-08 5.82954e-08 0.594702 8.27967e-05 0 0 0 0 0 0 0 0 0 0 0 0 0 0 0 0 0 0 0 0 0 0 0 0 0 0 0 0 0 0 0 0 0 0 0 0 0 0 0 0 0 0
2.74221 9.82414e-08 3.97938e-08 5.84476e-08 0.594938 7.55862e-05 0 0 0 0 0 0 0 0 0 0 0 0 0 0 0 0 0 0 0 0 0 0 0 0 0 0 0 0 0 0 0 0 0 0 0 0 0 0 0 0 0 0
2.88297 9.87391e-08 3.9969e-08 5.877e-08 0.595206 6.90729e-05 0 0 0 0 0 0 0 0 0 0 0 0 0 0 0 0 0 0 0 0 0 0 0 0 0 0 0 0 0 0 0 0 0 0 0 0 0 0 0 0 0 0
3.03095 9.95335e-08 4.03468e-08 5.91866e-08 0.59464 6.31538e-05 0 0 0 0 0 0 0 0 0 0 0 0 0 0 0 0 0 0 0 0 0 0 0 0 0 0 0 0 0 0 0 0 0 0 0 0 0 0 0 0 0 0
3.18653 1.00441e-07 4.09077e-08 5.95335e-08 0.59272 5.76567e-05 0 0 0 0 0 0 0 0 0 0 0 0 0 0 0 0 0 0 0 0 0 0 0 0 0 0 0 0 0 0 0 0 0 0 0 0 0 0 0 0 0 0
3.35009 1.01187e-07 4.15367e-08 5.96502e-08 0.589505 5.2603e-05 0 0 0 0 0 0 0 0 0 0 0 0 0 0 0 0 0 0 0 0 0 0 0 0 0 0 0 0 0 0 0 0 0 0 0 0 0 0 0 0 0 0
3.52205 1.01521e-07 4.20737e-08 5.94469e-08 0.585565 4.80102e-05 0 0 0 0 0 0 0 0 0 0 0 0 0 0 0 0 0 0 0 0 0 0 0 0 0 0 0 0 0 0 0 0 0 0 0 0 0 0 0 0 0 0
3.70284 1.01384e-07 4.24105e-08 5.89739e-08 0.581686 4.38066e-05 0 0 0 0 0 0 0 0 0 0 0 0 0 0 0 0 0 0 0 0 0 0 0 0 0 0 0 0 0 0 0 0 0 0 0 0 0 0 0 0 0 0
3.89291 1.0092e-07 4.25188e-08 5.84009e-08 0.578687 3.9926e-05 0 0 0 0 0 0 0 0 0 0 0 0 0 0 0 0 0 0 0 0 0 0 0 0 0 0 0 0 0 0 0 0 0 0 0 0 0 0 0 0 0 0
4.09273 1.00442e-07 4.24826e-08 5.79596e-08 0.577044 3.62643e-05 0 0 0 0 0 0 0 0 0 0 0 0 0 0 0 0 0 0 0 0 0 0 0 0 0 0 0 0 0 0 0 0 0 0 0 0 0 0 0 0 0 0
4.30281 1.00287e-07 4.24508e-08 5.7836e-08 0.576706 3.29535e-05 0 0 0 0 0 0 0 0 0 0 0 0 0 0 0 0 0 0 0 0 0 0 0 0 0 0 0 0 0 0 0 0 0 0 0 0 0 0 0 0 0 0
4.52368 1.00681e-07 4.25766e-08 5.81042e-08 0.577113 2.99416e-05 0 0 0 0 0 0 0 0 0 0 0 0 0 0 0 0 0 0 0 0 0 0 0 0 0 0 0 0 0 0 0 0 0 0 0 0 0 0 0 0 0 0
4.75588 1.01621e-07 4.29578e-08 5.86632e-08 0.577274 2.71796e-05 0 0 0 0 0 0 0 0 0 0 0 0 0 0 0 0 0 0 0 0 0 0 0 0 0 0 0 0 0 0 0 0 0 0 0 0 0 0 0 0 0 0
5 1.02897e-07 4.36217e-08 5.92756e-08 0.576066 2.45398e-05 0 0 0 0 0 0 0 0 0 0 0 0 0 0 0 0 0 0 0 0 0 0 0 0 0 0 0 0 0 0 0 0 0 0 0 0 0 0 0 0 0 0
5.25665 1.04167e-07 4.45394e-08 5.96277e-08 0.572424 2.21678e-05 0 0 0 0 0 0 0 0 0 0 0 0 0 0 0 0 0 0 0 0 0 0 0 0 0 0 0 0 0 0 0 0 0 0 0 0 0 0 0 0 0 0
5.52648 1.05071e-07 4.56348e-08 5.94366e-08 0.565678 2.00489e-05 0 0 0 0 0 0 0 0 0 0 0 0 0 0 0 0 0 0 0 0 0 0 0 0 0 0 0 0 0 0 0 0 0 0 0 0 0 0 0 0 0 0
5.81015 1.0535e-07 4.68223e-08 5.8528e-08 0.555556 1.8115e-05 0 0 0 0 0 0 0 0 0 0 0 0 0 0 0 0 0 0 0 0 0 0 0 0 0 0 0 0 0 0 0 0 0 0 0 0 0 0 0 0 0 0
6.10839 1.0495e-07 4.80345e-08 5.69157e-08 0.542311 1.63023e-05 0 0 0 0 0 0 0 0 0 0 0 0 0 0 0 0 0 0 0 0 0 0 0 0 0 0 0 0 0 0 0 0 0 0 0 0 0 0 0 0 0 0
6.42193 1.03928e-07 4.95409e-08 5.43872e-08 0.523316 1.48144e-05 0 0 0 0 0 0 0 0 0 0 0 0 0 0 0 0 0 0 0 0 0 0 0 0 0 0 0 0 0 0 0 0 0 0 1.4013e-45 0 5.60519e-45 0 1.54143e-44 0 4.2039e-44 0
6.75157 1.02957e-07 5.08847e-08 5.20724e-08 0.505768 1.32279e-05 0 0 0 0 0 0 0 0 0 0 0 0 0 0 0 0 0 0 0 0 0 0 0 0 0 0 1.4013e-45 0 8.40779e-45 0 3.22299e-44 0 1.10703e-43 0 3.44719e-43 0 9.83712e-43 0 2.66947e-42 0 6.71502e-42 0
7.09813 1.01969e-07 5.23314e-08 4.96381e-08 0.486793 1.18448e-05 0 0 0 0 0 0 0 0 0 0 0 0 0 0 0 0 0 0 0 0 2.8026e-45 0 1.68156e-44 0 8.82818e-44 0 3.83956e-43 0 1.512e-42 0 5.26328e-42 0 1.67721e-41 0 4.91772e-41 0 1.33256e-40 0 3.44459e-40 0 8.2838e-40 0
7.46248 1.01022e-07 5.35829e-08 4.74393e-08 0.469592 1.05694e-05 0 0 0 0 0 0 0 0 0 0 0 0 0 0 0 0 7.00649e-45 0 7.00649e-44 0 4.93257e-43 0 2.74795e-42 0 1.3189e-41 0 5.35814e-41 0 1.97649e-40 0 6.47208e-40 0 1.94884e-39 0 5.42154e-39 0 1.39931e-38 0 3.45324e-38 0 7.95633e-38 0
7.84553 9.96024e-08 5.41822e-08 4.54203e-08 0.456016 9.34187e-06 0 0 0 0 0 0 0 0 0 0 0 0 5.60519e-45 0 1.10703e-43 0 1.25416e-42 0 1.04705e-41 0 6.65687e-41 0 3.40614e-40 0 1.51447e-39 0 5.7455e-39 0 1.9885e-38 0 6.14503e-38 0 1.7534e-37 0 4.64017e-37 0 1.14346e-36 0 2.70009e-36 0 5.97264e-36 0
8.24824 9.68746e-08 5.36872e-08 4.31873e-08 0.445807 8.19911e-06 0 0 0 0 0 0 0 0 0 0 3.50325e-44 0 9.76705e-43 0 1.55993e-41 0 1.56496e-40 0 1.17768e-39 0 6.8406e-39 0 3.23196e-38 0 1.33606e-37 0 4.74921e-37 0 1.54701e-36 0 4.52447e-36 0 1.22657e-35 0 3.09536e-35 0 7.29915e-35 0 1.65277e-34 0 3.51695e-34 0
8.67162 9.22537e-08 5.20373e-08 4.02164e-08 0.435932 7.20916e-06 0 0 0 0 0 0 0 0 8.96831e-44 0 5.05729e-42 0 1.19192e-40 0 1.66191e-39 0 1.48979e-38 0 1.01591e-37 0 5.41523e-37 0 2.37172e-36 0 9.14808e-36 0 3.05656e-35 0 9.39864e-35 0 2.60846e-34 0 6.73538e-34 0 1.62462e-33 0 3.67386e-33 0 7.99342e-33 0 1.63936e-32 0
9.11674 8.60732e-08 4.98177e-08 3.62555e-08 0.421217 6.32492e-06 0 0 0 0 0 0 7.14662e-44 0 1.20484e-41 0 5.54558e-40 0 1.1202e-38 0 1.37336e-37 0 1.10611e-36 0 6.86787e-36 0 3.37364e-35 0 1.37476e-34 0 4.96444e-34 0 1.56385e-33 0 4.55207e-33 0 1.20194e-32 0 2.9631e-32 0 6.84645e-32 0 1.48777e-31 0 3.11646e-31 0 6.17126e-31 0
9.5847 7.9594e-08 4.80082e-08 3.15858e-08 0.396836 5.52644e-06 0 0 0 0 7.00649e-45 0 9.5022e-42 0 1.25663e-39 0 4.7977e-38 0 8.36851e-37 0 9.07809e-36 0 6.60346e-35 0 3.75039e-34 0 1.70452e-33 0 6.48549e-33 0 2.19968e-32 0 6.55168e-32 0 1.81014e-31 0 4.55825e-31 0 1.0753e-30 0 2.38501e-30 0 4.99003e-30 0 1.00821e-29 0 1.93097e-29 0
10.0767 7.40665e-08 4.73188e-08 2.67477e-08 0.361131 4.78203e-06 0 0 0 0 1.00053e-42 0 1.01115e-39 0 1.05351e-37 0 3.36694e-36 0 5.10774e-35 0 4.93203e-34 0 3.25632e-33 0 1.69904e-32 0 7.17179e-32 0 2.55642e-31 0 8.16867e-31 0 2.30677e-30 0 6.06476e-30 0 1.45988e-29 0 3.30256e-29 0 7.04563e-29 0 1.42193e-28 0 2.77596e-28 0 5.15062e-28 0
10.5939 6.98837e-08 4.76939e-08 2.21899e-08 0.317526 4.06995e-06 0 0 0 0 1.19888e-40 0 8.64873e-38 0 7.18223e-36 0 1.93818e-34 0 2.5747e-33 0 2.22557e-32 0 1.34005e-31 0 6.45014e-31 0 2.53779e-30 0 8.50179e-30 0 2.56683e-29 0 6.89027e-29 0 1.72802e-28 0 3.98498e-28 0 8.66264e-28 0 1.78096e-27 0 3.47315e-27 0 6.56255e-27 0 1.18144e-26 0
11.1377 6.63917e-08 4.82998e-08 1.8092e-08 0.272503 3.40803e-06 0 0 9.10844e-44 0 1.1299e-38 0 5.9111e-36 0 3.9561e-34 0 9.08924e-33 0 1.06418e-31 0 8.27934e-31 0 4.56677e-30 0 2.03581e-29 0 7.49168e-29 0 2.36591e-28 0 6.76791e-28 0 1.73124e-27 0 4.1512e-27 0 9.19037e-27 0 1.9235e-26 0 3.8178e-26 0 7.20644e-26 0 1.32001e-25 0 2.30914e-25 0
11.7094 6.13447e-08 4.66426e-08 1.47021e-08 0.239664 2.82232e-06 0 0 1.14304e-41 0 8.03948e-37 0 3.0983e-34 0 1.68884e-32 0 3.32956e-31 0 3.45706e-30 0 2.43325e-29 0 1.23478e-28 0 5.11712e-28 0 1.76702e-27 0 5.27565e-27 0 1.43366e-26 0 3.50294e-26 0 8.04834e-26 0 1.71401e-25 0 3.46029e-25 0 6.64198e-25 0 1.21544e-24 0 2.16151e-24 0 3.67936e-24 0
12.3105 5.60134e-08 4.4435e-08 1.15784e-08 0.206708 2.20615e-06 7.00649e-45 0 1.10802e-39 0 4.51902e-35 0 1.30222e-32 0 5.83942e-31 0 9.95292e-30 0 9.21827e-29 0 5.89864e-28 0 2.76513e-27 0 1.06907e-26 0 3.4749e-26 0 9.83523e-26 0 2.54541e-25 0 5.95388e-25 0 1.31351e-24 0 2.69596e-24 0 5.25915e-24 0 9.77854e-24 0 1.73739e-23 0 3.00409e-23 0 4.98252e-23 0
12.9424 4.83678e-08 3.93438e-08 9.02401e-09 0.186571 1.60871e-06 9.68297e-43 0 7.86878e-38 0 1.91118e-33 0 4.1769e-31 0 1.55559e-29 0 2.30859e-28 0 1.91799e-27 0 1.12096e-26 0 4.873e-26 0 1.76365e-25 0 5.41196e-25 0 1.45592e-24 0 3.59704e-24 0 8.07181e-24 0 1.71328e-23 0 3.39515e-23 0 6.41051e-23 0 1.15638e-22 0 1.99773e-22 0 3.36311e-22 0 5.44187e-22 0
