# 0.00658175 2 116 : grain size, compostion index, size index
# This grain was stochastically heated: No
# Heating and cooling timescale: 8.51574e-07 inf
# Ratio of heating to cooling to determine stochastic cutoff: 100
# Equilibrium emission is recorded even for those grains in the stochastic regime.
# Emission spectrum was computed for: 
# Type: IRSF
# Scale: 1
# Temperature: -1
# Wavelength  CExt  CAbs  CSca  Albedo G EqEmission StEmission
0.05 0.000272811 9.648e-05 0.000176331 0.646348 0.853791 0 0
0.0525665 0.000272836 9.49092e-05 0.000177927 0.652138 0.841284 0 0
0.0552647 0.000272864 9.37195e-05 0.000179144 0.656534 0.830899 0 0
0.0581015 0.000272891 9.31806e-05 0.000179711 0.658543 0.824526 0 0
0.0610839 0.000272918 9.18592e-05 0.000181059 0.663419 0.815745 0 0
0.0642193 0.00027295 8.85638e-05 0.000184386 0.675531 0.797429 0 0
0.0675157 0.000272987 8.52867e-05 0.0001877 0.687579 0.777424 0 0
0.0709813 0.000273025 8.49519e-05 0.000188073 0.688849 0.770291 0 0
0.0746248 0.000273062 8.6237e-05 0.000186825 0.684186 0.771642 0 0
0.0784553 0.0002731 8.80307e-05 0.000185069 0.677661 0.776551 0 0
0.0824824 0.000273138 9.00801e-05 0.000183058 0.670203 0.782438 0 0
0.0867162 0.000273177 9.05531e-05 0.000182624 0.668519 0.781309 0 0
0.0911674 0.000273219 9.01241e-05 0.000183095 0.67014 0.776149 0 0
0.095847 0.000273263 9.04949e-05 0.000182768 0.668836 0.774397 0 0
0.100767 0.000273301 9.36689e-05 0.000179632 0.657268 0.785885 0 0
0.105939 0.000273333 9.68651e-05 0.000176468 0.645615 0.800566 0 0
0.111377 0.000273356 0.000102703 0.000170653 0.624287 0.828637 0 0
0.117094 0.000273374 0.000108738 0.000164635 0.602236 0.861019 0 0
0.123105 0.000273403 0.000112628 0.000160775 0.588052 0.883689 0 0
0.129424 0.000273436 0.000115925 0.000157511 0.576042 0.903694 0 0
0.136067 0.00027347 0.000118557 0.000154913 0.566471 0.919923 0 0
0.143051 0.000273502 0.000120598 0.000152904 0.559059 0.932589 0 0
0.150394 0.000273526 0.000121762 0.000151764 0.554843 0.940755 0 0
0.158114 0.00027355 0.000121363 0.000152187 0.55634 0.941639 0 0
0.16623 0.00027359 0.000118509 0.000155081 0.566838 0.930805 0 0
0.174762 0.000273654 0.00011284 0.000160814 0.587655 0.904224 0 0
0.183733 0.000273727 0.000105678 0.000168049 0.61393 0.868317 0 0
0.193164 0.000273807 9.8228e-05 0.000175579 0.64125 0.83136 0 0
0.203079 0.000273892 9.17489e-05 0.000182143 0.665018 0.800811 0 0
0.213503 0.000273982 8.61833e-05 0.000187799 0.685442 0.775944 0 0
0.224463 0.000274083 8.24616e-05 0.000191621 0.699136 0.75873 0 0
0.235984 0.000274192 8.03351e-05 0.000193857 0.707012 0.747119 0 0
0.248097 0.000274308 8.06568e-05 0.000193651 0.705962 0.743328 0 0
0.260832 0.000274414 8.25649e-05 0.000191849 0.699122 0.745474 0 0
0.274221 0.000274507 8.48959e-05 0.000189611 0.690733 0.749713 0 0
0.288297 0.00027457 8.80117e-05 0.000186558 0.679456 0.759223 0 0
0.303095 0.000274633 9.01482e-05 0.000184485 0.67175 0.76646 0 0
0.318653 0.000274699 9.18875e-05 0.000182811 0.665497 0.772821 0 0
0.335009 0.000274768 9.32628e-05 0.000181506 0.660577 0.77828 0 0
0.352205 0.000274845 9.42017e-05 0.000180643 0.657255 0.782124 0 0
0.370284 0.000274928 9.47995e-05 0.000180128 0.655184 0.784489 0 0
0.389291 0.000275017 9.50999e-05 0.000179917 0.654204 0.785387 0 0
0.409273 0.00027511 9.53129e-05 0.000179797 0.653546 0.785916 0 0
0.430281 0.000275205 9.54861e-05 0.000179719 0.653037 0.786285 0 0
0.452368 0.000275305 9.5661e-05 0.000179644 0.652527 0.786838 0 0
0.475588 0.000275408 9.58123e-05 0.000179596 0.652108 0.787335 0 0
0.5 0.000275517 9.58988e-05 0.000179618 0.651931 0.787566 0 0
0.525665 0.000275631 9.59422e-05 0.000179689 0.651918 0.787633 0 0
0.552647 0.000275751 9.59623e-05 0.000179789 0.651996 0.787579 0 0
0.581015 0.000275877 9.5815e-05 0.000180062 0.65269 0.786716 0 0
0.610839 0.000276009 9.56598e-05 0.000180349 0.653418 0.785815 0 0
0.642193 0.000276146 9.5496e-05 0.00018065 0.654183 0.784873 0 0
0.675157 0.000276288 9.52677e-05 0.000181021 0.655187 0.78361 0 0
0.709813 0.000276439 9.49799e-05 0.000181459 0.656417 0.782048 0 0
0.746248 0.000276594 9.46635e-05 0.000181931 0.657753 0.780331 0 0
0.784553 0.000276755 9.4337e-05 0.000182418 0.659132 0.778573 0 0
0.824824 0.000276922 9.40028e-05 0.00018292 0.660545 0.776766 0 0
0.867162 0.000277097 9.36604e-05 0.000183436 0.661994 0.774912 0 0
0.911674 0.000277275 9.3317e-05 0.000183958 0.663449 0.773053 0 0
0.95847 0.000277459 9.29894e-05 0.00018447 0.664854 0.771246 0 0
1.00767 0.000277649 9.26596e-05 0.000184989 0.666271 0.76943 0 0
1.05939 0.000277844 9.23578e-05 0.000185487 0.667592 0.767724 0 0
1.11377 0.000278046 9.20467e-05 0.000185999 0.668951 0.765982 0 0
1.17094 0.000278254 9.17595e-05 0.000186494 0.670231 0.764343 0 0
1.23105 0.000278467 9.14736e-05 0.000186994 0.67151 0.762711 0 0
1.29424 0.00027869 9.11575e-05 0.000187532 0.672907 0.760951 0 0
1.36067 0.000278918 9.08533e-05 0.000188065 0.674265 0.759237 0 0
1.43051 0.000279151 9.05685e-05 0.000188583 0.675557 0.757606 0 0
1.50394 0.000279392 9.02961e-05 0.000189096 0.676813 0.756023 0 0
1.58114 0.000279642 9.0012e-05 0.00018963 0.678117 0.754395 0 0
1.6623 0.000279901 8.97018e-05 0.000190199 0.679523 0.752668 0 0
1.74762 0.000280166 8.93873e-05 0.000190778 0.680948 0.750919 0 0
1.83733 0.000280436 8.90853e-05 0.000191351 0.682333 0.749225 0 0
1.93164 0.000280715 8.87847e-05 0.00019193 0.683719 0.747541 0 0
2.03079 0.000281002 8.84828e-05 0.000192519 0.685117 0.74586 0 0
2.13503 0.000281296 8.81633e-05 0.000193132 0.686581 0.744105 0 0
2.24463 0.000281596 8.78482e-05 0.000193748 0.688034 0.742383 0 0
2.35984 0.000281904 8.75437e-05 0.00019436 0.689456 0.740702 0 0
2.48097 0.000282219 8.72439e-05 0.000194975 0.690865 0.739053 0 0
2.60832 0.000282544 8.69056e-05 0.000195638 0.692417 0.737266 0 0
2.74221 0.000282874 8.65559e-05 0.000196318 0.694012 0.73545 0 0
2.88297 0.000283209 8.62347e-05 0.000196974 0.695508 0.733752 0 0
3.03095 0.000283548 8.59074e-05 0.00019764 0.697027 0.732048 0 0
3.18653 0.000283895 8.55712e-05 0.000198324 0.698581 0.730324 0 0
3.35009 0.000284245 8.52323e-05 0.000199013 0.700145 0.7286 0 0
3.52205 0.000284601 8.48996e-05 0.000199702 0.701689 0.726917 0 0
3.70284 0.00028496 8.45704e-05 0.00020039 0.70322 0.725262 0 0
3.89291 0.000285332 8.42521e-05 0.00020108 0.704723 0.723668 0 0
4.09273 0.000285697 8.391e-05 0.000201787 0.706297 0.722008 0 0
4.30281 0.000286064 8.35654e-05 0.000202498 0.707879 0.720362 3.40049e-289 0
4.52368 0.000286458 8.32188e-05 0.000203239 0.709491 0.718745 7.71779e-275 0
4.75588 0.000286859 8.28713e-05 0.000203988 0.711108 0.717144 3.44438e-261 0
5 0.000287215 8.25193e-05 0.000204696 0.712692 0.715525 3.27254e-248 0
5.25665 0.000287651 8.2132e-05 0.000205519 0.714473 0.713886 7.13658e-236 0
5.52648 0.000288028 8.17384e-05 0.000206289 0.716214 0.712206 3.83799e-224 0
5.81015 0.000288475 8.13626e-05 0.000207112 0.717956 0.710668 5.45466e-213 0
6.10839 0.000288744 8.09861e-05 0.000207758 0.719523 0.709013 2.18472e-202 0
6.42193 0.000289238 8.06348e-05 0.000208603 0.721216 0.707624 2.62542e-192 0
6.75157 0.000289708 8.02546e-05 0.000209453 0.722981 0.706154 1.00269e-182 0
7.09813 0.000290107 7.98852e-05 0.000210222 0.724635 0.704682 1.28846e-173 0
7.46248 0.000290383 7.95352e-05 0.000210848 0.726103 0.703213 5.87264e-165 0
7.84553 0.000290777 7.91869e-05 0.00021159 0.727672 0.701863 9.98922e-157 0
8.24824 0.000291187 7.88005e-05 0.000212386 0.729382 0.700457 6.64755e-149 0
8.67162 0.00029156 7.84314e-05 0.000213128 0.730994 0.699097 1.81382e-141 0
9.11674 0.000291986 7.80891e-05 0.000213897 0.732559 0.697873 2.11901e-134 0
9.5847 0.000292452 7.77876e-05 0.000214664 0.734016 0.696833 1.10537e-127 0
10.0767 0.000292945 7.75017e-05 0.000215444 0.73544 0.695856 2.67621e-121 0
10.5939 0.000293458 7.72172e-05 0.000216241 0.736872 0.69496 3.12274e-115 0
11.1377 0.000293894 7.69917e-05 0.000216902 0.738029 0.694343 1.82079e-109 0
11.7094 0.000294272 7.63324e-05 0.00021794 0.740606 0.691401 5.45253e-104 0
12.3105 0.000294683 7.62479e-05 0.000218435 0.741255 0.691598 8.7777e-99 0
12.9424 0.000295193 7.5883e-05 0.00021931 0.742937 0.690709 7.74395e-94 0
13.6067 0.000295642 7.55292e-05 0.000220113 0.744525 0.689806 3.87052e-89 0
14.3051 0.000296026 7.52135e-05 0.000220812 0.745922 0.688989 1.12699e-84 0
15.0394 0.000296453 7.49215e-05 0.000221532 0.747274 0.688256 1.96285e-80 0
15.8114 0.000296903 7.46635e-05 0.000222239 0.748525 0.68765 2.09682e-76 0
16.623 0.000297314 7.43792e-05 0.000222934 0.749829 0.687019 1.40615e-72 0
17.4762 0.000297707 7.40651e-05 0.000223642 0.751215 0.686369 6.05451e-69 0
18.3733 0.000298063 7.37351e-05 0.000224328 0.752619 0.685731 1.71094e-65 0
19.3164 0.000298355 7.3309e-05 0.000225046 0.75429 0.684874 3.23502e-62 0
20.3079 0.000298506 7.26221e-05 0.000225883 0.756714 0.68347 4.16454e-59 0
21.3503 0.000298504 7.18212e-05 0.000226683 0.759396 0.68162 3.72541e-56 0
22.4463 0.000298413 7.08185e-05 0.000227595 0.762683 0.678972 2.35431e-53 0
23.5984 0.000298358 6.94961e-05 0.000228862 0.767071 0.674947 1.06683e-50 0
24.8097 0.00029852 6.76958e-05 0.000230824 0.773228 0.668846 3.51359e-48 0
26.0832 0.000299081 6.5665e-05 0.000233416 0.780444 0.660544 8.56576e-46 0
27.4221 0.000299991 6.35411e-05 0.00023645 0.78819 0.651001 1.5713e-43 0
28.8297 0.000301346 6.15463e-05 0.000239799 0.795762 0.640619 2.20614e-41 0
30.3095 0.000302954 5.96349e-05 0.00024332 0.803156 0.630156 2.40081e-39 0
31.8653 0.000304727 5.80739e-05 0.000246654 0.809424 0.620599 2.0599e-37 0
33.5009 0.000306676 5.65567e-05 0.000250119 0.815581 0.611472 1.40303e-35 0
35.2206 0.000308559 5.55019e-05 0.000253057 0.820125 0.604078 7.73132e-34 0
37.0284 0.00031041 5.44039e-05 0.000256006 0.824735 0.597005 3.45308e-32 0
38.9291 0.00031208 5.34745e-05 0.000258606 0.828651 0.591038 1.26787e-30 0
40.9273 0.000313496 5.24835e-05 0.000261012 0.832586 0.585347 3.84785e-29 0
43.0282 0.000314654 5.15922e-05 0.000263061 0.836035 0.58037 9.77217e-28 0
45.2368 0.000315539 5.05884e-05 0.00026495 0.839676 0.575358 2.08641e-26 0
47.5588 0.000316253 4.99176e-05 0.000266336 0.84216 0.57117 3.81002e-25 0
50 0.000316739 4.90668e-05 0.000267673 0.845088 0.56663 5.9373e-24 0
52.5665 0.000317235 4.84928e-05 0.000268742 0.847139 0.562676 8.03006e-23 0
55.2648 0.000317533 4.79262e-05 0.000269607 0.849067 0.558661 9.44188e-22 0
58.1015 0.000317911 4.7499e-05 0.000270412 0.85059 0.55464 9.74563e-21 0
61.0839 0.000318157 4.70307e-05 0.000271126 0.852178 0.550759 8.85413e-20 0
64.2193 0.000318451 4.67432e-05 0.000271708 0.853217 0.546649 7.15853e-19 0
67.5157 0.00031873 4.64489e-05 0.000272281 0.854269 0.542276 5.16012e-18 0
70.9813 0.00031912 4.62188e-05 0.000272901 0.855168 0.538379 3.34015e-17 0
74.6248 0.000319457 4.61928e-05 0.000273264 0.855402 0.533975 1.95778e-16 0
78.4553 0.000319742 4.61145e-05 0.000273628 0.855776 0.528746 1.03863e-15 0
82.4824 0.000320421 4.61641e-05 0.000274257 0.855927 0.524391 5.03068e-15 0
86.7162 0.000321146 4.65171e-05 0.000274629 0.855153 0.520355 2.24339e-14 0
91.1674 0.000321483 4.68508e-05 0.000274632 0.854266 0.514559 9.18619e-14 0
95.847 0.00032205 4.70829e-05 0.000274967 0.853803 0.507836 3.4622e-13 0
100.767 0.000323383 4.76121e-05 0.000275771 0.852768 0.502722 1.21604e-12 0
105.939 0.00032485 4.86544e-05 0.000276195 0.850225 0.498809 4.01217e-12 0
111.377 0.000325661 4.98508e-05 0.00027581 0.846924 0.493103 1.23825e-11 0
117.094 0.000326367 5.08716e-05 0.000275495 0.844128 0.48447 3.56281e-11 0
123.105 0.000328144 5.1744e-05 0.0002764 0.842313 0.475197 9.5956e-11 0
129.424 0.000331005 5.20465e-05 0.000278959 0.842762 0.467329 2.40738e-10 0
136.067 0.000333713 5.16466e-05 0.000282067 0.845237 0.46068 5.62932e-10 0
143.051 0.00033408 4.91776e-05 0.000284902 0.852797 0.45075 1.19661e-09 0
150.394 0.000332322 4.57597e-05 0.000286562 0.862303 0.435238 2.36105e-09 0
158.114 0.000329814 4.23119e-05 0.000287502 0.87171 0.413807 4.40835e-09 0
166.23 0.000328848 3.91924e-05 0.000289656 0.880819 0.390088 7.87054e-09 0
174.763 0.000330027 3.66786e-05 0.000293349 0.888862 0.368873 1.35824e-08 0
183.733 0.000332507 3.53722e-05 0.000297135 0.89362 0.353224 2.31584e-08 0
193.164 0.000334372 3.44557e-05 0.000299916 0.896954 0.341723 3.83176e-08 0
203.079 0.000334141 3.3792e-05 0.000300349 0.898869 0.331255 6.14475e-08 0
213.503 0.000331326 3.32938e-05 0.000298032 0.899513 0.317412 9.54707e-08 0
224.463 0.000326466 3.25367e-05 0.00029393 0.900337 0.295748 1.42145e-07 0
235.984 0.000321168 3.15463e-05 0.000289622 0.901776 0.263895 2.032e-07 0
248.097 0.000317278 3.04565e-05 0.000286821 0.904007 0.222191 2.80374e-07 0
260.832 0.000316182 2.96276e-05 0.000286555 0.906296 0.174148 3.78404e-07 0
274.221 0.000318077 2.90103e-05 0.000289067 0.908795 0.123826 4.99762e-07 0
288.297 0.000322477 2.86382e-05 0.000293838 0.911193 0.0749737 6.47836e-07 0
303.095 0.00032835 2.85458e-05 0.000299804 0.913063 0.0301814 8.26582e-07 0
318.653 0.000334331 2.87546e-05 0.000305576 0.913993 -0.00957322 1.04026e-06 0
335.009 0.00033881 2.90766e-05 0.000309733 0.91418 -0.0444301 1.28425e-06 0
352.206 0.000340215 2.94105e-05 0.000310805 0.913553 -0.0748224 1.55151e-06 0
370.284 0.000337236 2.9734e-05 0.000307502 0.91183 -0.101306 1.83482e-06 0
389.291 0.00032888 2.98616e-05 0.000299018 0.909202 -0.124694 2.11317e-06 0
409.273 0.000314762 2.96955e-05 0.000285067 0.905658 -0.145551 2.36492e-06 0
430.282 0.000295245 2.92547e-05 0.000265991 0.900914 -0.164188 2.57548e-06 0
452.368 0.000271365 2.84787e-05 0.000242886 0.895054 -0.181068 2.72482e-06 0
475.588 0.000244609 2.73894e-05 0.00021722 0.888028 -0.196484 2.80254e-06 0
500 0.000216636 2.60615e-05 0.000190574 0.879699 -0.210627 2.80851e-06 0
525.665 0.000189148 2.46849e-05 0.000164463 0.869494 -0.223454 2.76129e-06 0
552.648 0.00016317 2.32361e-05 0.000139934 0.857596 -0.235279 2.66119e-06 0
581.015 0.000139472 2.17849e-05 0.000117687 0.843804 -0.246187 2.52141e-06 0
610.838 0.000118477 2.03848e-05 9.80926e-05 0.827943 -0.256237 2.35514e-06 0
642.193 0.000100281 1.90697e-05 8.12114e-05 0.809837 -0.265488 2.17375e-06 0
675.157 8.47269e-05 1.78546e-05 6.68723e-05 0.789269 -0.274005 1.98603e-06 0
709.813 7.16091e-05 1.67652e-05 5.48439e-05 0.76588 -0.281777 1.8009e-06 0
746.247 6.071e-05 1.58291e-05 4.48809e-05 0.739267 -0.288735 1.626e-06 0
784.553 5.16349e-05 1.49799e-05 3.6655e-05 0.709888 -0.295085 1.4579e-06 0
824.824 4.40996e-05 1.4209e-05 2.98906e-05 0.677798 -0.300869 1.29881e-06 0
867.162 3.78593e-05 1.35076e-05 2.43516e-05 0.643215 -0.306119 1.15015e-06 0
911.674 3.27098e-05 1.28683e-05 1.98416e-05 0.606593 -0.310864 1.01281e-06 0
958.471 2.84395e-05 1.22811e-05 1.61584e-05 0.568168 -0.315152 8.86977e-07 0
1007.67 2.48987e-05 1.17442e-05 1.31545e-05 0.528321 -0.318988 7.73031e-07 0
1059.39 2.19862e-05 1.1274e-05 1.07121e-05 0.487222 -0.32228 6.71982e-07 0
1113.77 1.95609e-05 1.08346e-05 8.72636e-06 0.446112 -0.325199 5.81264e-07 0
1170.94 1.75287e-05 1.04209e-05 7.1078e-06 0.405494 -0.327781 5.00367e-07 0
1231.05 1.58258e-05 1.00366e-05 5.78926e-06 0.365811 -0.330007 4.29022e-07 0
1294.24 1.44033e-05 9.68431e-06 4.71897e-06 0.327632 -0.331849 3.66697e-07 0
1360.67 1.31954e-05 9.3485e-06 3.8469e-06 0.291533 -0.333418 3.12099e-07 0
1430.51 1.2162e-05 9.02608e-06 3.1359e-06 0.257845 -0.334743 2.64516e-07 0
1503.94 1.12735e-05 8.71686e-06 2.55669e-06 0.226787 -0.335836 2.23321e-07 0
1581.14 1.05219e-05 8.43593e-06 2.08595e-06 0.198249 -0.336558 1.8821e-07 0
1662.3 9.86512e-06 8.16337e-06 1.70174e-06 0.172501 -0.337089 1.58033e-07 0
1747.63 9.28646e-06 7.89829e-06 1.38818e-06 0.149484 -0.337446 1.32222e-07 0
1837.33 8.77327e-06 7.64035e-06 1.13291e-06 0.129133 -0.337643 1.10255e-07 0
1931.64 8.31403e-06 7.38908e-06 9.2496e-07 0.111253 -0.337695 9.1641e-08 0
2030.79 7.9175e-06 7.16252e-06 7.54978e-07 0.0953557 -0.337378 7.61315e-08 0
2135.03 7.59759e-06 6.98164e-06 6.15954e-07 0.0810723 -0.336352 6.34325e-08 0
2244.63 7.30491e-06 6.80202e-06 5.0289e-07 0.0688428 -0.335153 5.26962e-08 0
2359.84 7.03372e-06 6.62316e-06 4.10563e-07 0.0583707 -0.333788 4.36503e-08 0
2480.97 6.77981e-06 6.44469e-06 3.35123e-07 0.0494295 -0.332264 3.60545e-08 0
2608.32 6.53988e-06 6.26632e-06 2.73552e-07 0.0418283 -0.330589 2.96976e-08 0
2742.21 6.31121e-06 6.08778e-06 2.23429e-07 0.0354019 -0.328768 2.43941e-08 0
2882.96 6.09108e-06 5.90863e-06 1.82452e-07 0.029954 -0.32681 1.99823e-08 0
3030.95 5.87759e-06 5.72863e-06 1.4896e-07 0.0253437 -0.324724 1.63232e-08 0
3186.53 5.66939e-06 5.54774e-06 1.21657e-07 0.0214585 -0.32252 1.32977e-08 0
3350.09 5.4653e-06 5.36592e-06 9.93825e-08 0.0181843 -0.32021 1.08034e-08 0
3522.05 5.26437e-06 5.1832e-06 8.11691e-08 0.0154186 -0.317805 8.75298e-09 0
3702.84 5.06607e-06 4.99979e-06 6.62788e-08 0.0130829 -0.31532 7.07252e-09 0
3892.91 4.87038e-06 4.81622e-06 5.41564e-08 0.0111195 -0.312771 5.69968e-09 0
4092.73 4.67704e-06 4.6328e-06 4.42468e-08 0.00946042 -0.310172 4.58139e-09 0
4302.81 4.48615e-06 4.45001e-06 3.61425e-08 0.00805647 -0.307538 3.67319e-09 0
4523.68 4.29804e-06 4.26851e-06 2.95229e-08 0.00686892 -0.304888 2.93786e-09 0
4755.88 4.11317e-06 4.08904e-06 2.41293e-08 0.00586636 -0.302237 2.34434e-09 0
5000 3.93179e-06 3.91207e-06 1.97168e-08 0.00501471 -0.299598 1.86658e-09 0
