# 8.16199e-06 2 52 : grain size, compostion index, size index
# Heating and cooling timescale: 0.792065 947967
# Ratio of heating to cooling to determine stochastic cutoff: 100
# Equilibrium emission is recorded even for those grains in the stochastic regime.
# Emission spectrum was computed for: 
# Type: IRSF
# Scales: 0.25 0.5 1 1.5 2 2.5 3 3.5 4 4.5 5 5.5 6 6.5 7 7.5 8 8.5 9 9.5 10
# StochasticallyHeated: 0 0 0 0 0 0 0 0 0 0 0 0 0 0 0 0 0 0 0 0 0
# Temperature: -1
# Wavelength  CExt  CAbs  CSca  Albedo G EqEm1 StEm1 EqEm2 StEm2 EqEm3 StEm3 EqEm4 StEm4 EqEm5 StEm5 EqEm6 StEm6 EqEm7 StEm7 EqEm8 StEm8 EqEm9 StEm9 EqEm10 StEm10 EqEm11 StEm11 EqEm12 StEm12 EqEm13 StEm13 EqEm14 StEm14 EqEm15 StEm15 EqEm16 StEm16 EqEm17 StEm17 EqEm18 StEm18 EqEm19 StEm19 EqEm20 StEm20 EqEm21 StEm21
0.05 4.38779e-10 2.07178e-10 2.316e-10 0.52783 0.910539 0 0 0 0 0 0 0 0 0 0 0 0 0 0 0 0 0 0 0 0 0 0 0 0 0 0 0 0 0 0 0 0 0 0 0 0 0 0 0 0 0 0
0.0525665 4.42674e-10 2.08467e-10 2.34206e-10 0.529072 0.903467 0 0 0 0 0 0 0 0 0 0 0 0 0 0 0 0 0 0 0 0 0 0 0 0 0 0 0 0 0 0 0 0 0 0 0 0 0 0 0 0 0 0
0.0552647 4.47589e-10 2.0868e-10 2.38909e-10 0.533768 0.893529 0 0 0 0 0 0 0 0 0 0 0 0 0 0 0 0 0 0 0 0 0 0 0 0 0 0 0 0 0 0 0 0 0 0 0 0 0 0 0 0 0 0
0.0581015 4.55362e-10 2.08639e-10 2.46723e-10 0.541818 0.87913 0 0 0 0 0 0 0 0 0 0 0 0 0 0 0 0 0 0 0 0 0 0 0 0 0 0 0 0 0 0 0 0 0 0 0 0 0 0 0 0 0 0
0.0610839 4.65982e-10 2.10575e-10 2.55408e-10 0.548106 0.863375 0 0 0 0 0 0 0 0 0 0 0 0 0 0 0 0 0 0 0 0 0 0 0 0 0 0 0 0 0 0 0 0 0 0 0 0 0 0 0 0 0 0
0.0642193 4.77448e-10 2.14978e-10 2.62469e-10 0.549734 0.850411 0 0 0 0 0 0 0 0 0 0 0 0 0 0 0 0 0 0 0 0 0 0 0 0 0 0 0 0 0 0 0 0 0 0 0 0 0 0 0 0 0 0
0.0675157 4.88699e-10 2.2102e-10 2.67679e-10 0.547737 0.840854 0 0 0 0 0 0 0 0 0 0 0 0 0 0 0 0 0 0 0 0 0 0 0 0 0 0 0 0 0 0 0 0 0 0 0 0 0 0 0 0 0 0
0.0709813 4.99243e-10 2.27971e-10 2.71272e-10 0.543367 0.834151 0 0 0 0 0 0 0 0 0 0 0 0 0 0 0 0 0 0 0 0 0 0 0 0 0 0 0 0 0 0 0 0 0 0 0 0 0 0 0 0 0 0
0.0746248 5.08619e-10 2.3524e-10 2.73379e-10 0.537492 0.829752 0 0 0 0 0 0 0 0 0 0 0 0 0 0 0 0 0 0 0 0 0 0 0 0 0 0 0 0 0 0 0 0 0 0 0 0 0 0 0 0 0 0
0.0784553 5.161e-10 2.42508e-10 2.73592e-10 0.530114 0.827922 0 0 0 0 0 0 0 0 0 0 0 0 0 0 0 0 0 0 0 0 0 0 0 0 0 0 0 0 0 0 0 0 0 0 0 0 0 0 0 0 0 0
0.0824824 5.20898e-10 2.49911e-10 2.70987e-10 0.520231 0.829878 0 0 0 0 0 0 0 0 0 0 0 0 0 0 0 0 0 0 0 0 0 0 0 0 0 0 0 0 0 0 0 0 0 0 0 0 0 0 0 0 0 0
0.0867162 5.22999e-10 2.54092e-10 2.68907e-10 0.514164 0.829315 0 0 0 0 0 0 0 0 0 0 0 0 0 0 0 0 0 0 0 0 0 0 0 0 0 0 0 0 0 0 0 0 0 0 0 0 0 0 0 0 0 0
0.0911674 5.29817e-10 2.57111e-10 2.72706e-10 0.514717 0.820454 0 0 0 0 0 0 0 0 0 0 0 0 0 0 0 0 0 0 0 0 0 0 0 0 0 0 0 0 0 0 0 0 0 0 0 0 0 0 0 0 0 0
0.095847 5.36925e-10 2.61674e-10 2.75251e-10 0.512643 0.813874 0 0 0 0 0 0 0 0 0 0 0 0 0 0 0 0 0 0 0 0 0 0 0 0 0 0 0 0 0 0 0 0 0 0 0 0 0 0 0 0 0 0
0.100767 5.42102e-10 2.66108e-10 2.75993e-10 0.509117 0.809162 0 0 0 0 0 0 0 0 0 0 0 0 0 0 0 0 0 0 0 0 0 0 0 0 0 0 0 0 0 0 0 0 0 0 0 0 0 0 0 0 0 0
0.105939 5.45916e-10 2.71446e-10 2.7447e-10 0.50277 0.808021 0 0 0 0 0 0 0 0 0 0 0 0 0 0 0 0 0 0 0 0 0 0 0 0 0 0 0 0 0 0 0 0 0 0 0 0 0 0 0 0 0 0
0.111377 5.49373e-10 2.77153e-10 2.72219e-10 0.495509 0.807866 0 0 0 0 0 0 0 0 0 0 0 0 0 0 0 0 0 0 0 0 0 0 0 0 0 0 0 0 0 0 0 0 0 0 0 0 0 0 0 0 0 0
0.117094 5.5325e-10 2.8242e-10 2.7083e-10 0.489526 0.805372 0 0 0 0 0 0 0 0 0 0 0 0 0 0 0 0 0 0 0 0 0 0 0 0 0 0 0 0 0 0 0 0 0 0 0 0 0 0 0 0 0 0
0.123105 5.57248e-10 2.87258e-10 2.6999e-10 0.484506 0.801108 0 0 0 0 0 0 0 0 0 0 0 0 0 0 0 0 0 0 0 0 0 0 0 0 0 0 0 0 0 0 0 0 0 0 0 0 0 0 0 0 0 0
0.129424 5.61763e-10 2.92149e-10 2.69615e-10 0.479944 0.795719 0 0 0 0 0 0 0 0 0 0 0 0 0 0 0 0 0 0 0 0 0 0 0 0 0 0 0 0 0 0 0 0 0 0 0 0 0 0 0 0 0 0
0.136067 5.66935e-10 2.9754e-10 2.69395e-10 0.475178 0.789159 0 0 0 0 0 0 0 0 0 0 0 0 0 0 0 0 0 0 0 0 0 0 0 0 0 0 0 0 0 0 0 0 0 0 0 0 0 0 0 0 0 0
0.143051 5.71488e-10 3.02951e-10 2.68536e-10 0.46989 0.779871 0 0 0 0 0 0 0 0 0 0 0 0 0 0 0 0 0 0 0 0 0 0 0 0 0 0 0 0 0 0 0 0 0 0 0 0 0 0 0 0 0 0
0.150394 5.71514e-10 3.10891e-10 2.60623e-10 0.456022 0.768012 0 0 0 0 0 0 0 0 0 0 0 0 0 0 0 0 0 0 0 0 0 0 0 0 0 0 0 0 0 0 0 0 0 0 0 0 0 0 0 0 0 0
0.158114 5.62121e-10 3.15478e-10 2.46643e-10 0.438772 0.724941 0 0 0 0 0 0 0 0 0 0 0 0 0 0 0 0 0 0 0 0 0 0 0 0 0 0 0 0 0 0 0 0 0 0 0 0 0 0 0 0 0 0
0.16623 5.79534e-10 3.04499e-10 2.75035e-10 0.47458 0.639223 0 0 0 0 0 0 0 0 0 0 0 0 0 0 0 0 0 0 0 0 0 0 0 0 0 0 0 0 0 0 0 0 0 0 0 0 0 0 0 0 0 0
0.174762 6.63917e-10 2.75276e-10 3.88641e-10 0.585375 0.626736 0 0 0 0 0 0 0 0 0 0 0 0 0 0 0 0 0 0 0 0 0 0 0 0 0 0 0 0 0 0 0 0 0 0 0 0 0 0 0 0 0 0
0.183733 8.00233e-10 2.47974e-10 5.52259e-10 0.690123 0.609148 0 0 0 0 0 0 0 0 0 0 0 0 0 0 0 0 0 0 0 0 0 0 0 0 0 0 0 0 0 0 0 0 0 0 0 0 0 0 0 0 0 0
0.193164 8.08773e-10 1.6666e-10 6.42112e-10 0.793934 0.554323 0 0 0 0 0 0 0 0 0 0 0 0 0 0 0 0 0 0 0 0 0 0 0 0 0 0 0 0 0 0 0 0 0 0 0 0 0 0 0 0 0 0
0.203079 8.5307e-10 1.0832e-10 7.4475e-10 0.873023 0.592812 0 0 0 0 0 0 0 0 0 0 0 0 0 0 0 0 0 0 0 0 0 0 0 0 0 0 0 0 0 0 0 0 0 0 0 0 0 0 0 0 0 0
0.213503 9.62948e-10 9.41741e-11 8.68774e-10 0.902202 0.643188 0 0 0 0 0 0 0 0 0 0 0 0 0 0 0 0 0 0 0 0 0 0 0 0 0 0 0 0 0 0 0 0 0 0 0 0 0 0 0 0 0 0
0.224463 9.71348e-10 9.00612e-11 8.81287e-10 0.907282 0.651258 0 0 0 0 0 0 0 0 0 0 0 0 0 0 0 0 0 0 0 0 0 0 0 0 0 0 0 0 0 0 0 0 0 0 0 0 0 0 0 0 0 0
0.235984 8.19117e-10 7.32509e-11 7.45867e-10 0.910573 0.615112 0 0 0 0 0 0 0 0 0 0 0 0 0 0 0 0 0 0 0 0 0 0 0 0 0 0 0 0 0 0 0 0 0 0 0 0 0 0 0 0 0 0
0.248097 7.07161e-10 5.90501e-11 6.48111e-10 0.916497 0.573331 0 0 0 0 0 0 0 0 0 0 0 0 0 0 0 0 0 0 0 0 0 0 0 0 0 0 0 0 0 0 0 0 0 0 0 0 0 0 0 0 0 0
0.260832 6.60529e-10 5.25546e-11 6.07974e-10 0.920436 0.548597 0 0 0 0 0 0 0 0 0 0 0 0 0 0 0 0 0 0 0 0 0 0 0 0 0 0 0 0 0 0 0 0 0 0 0 0 0 0 0 0 0 0
0.274221 6.42225e-10 5.19426e-11 5.90283e-10 0.919121 0.544455 0 0 0 0 0 0 0 0 0 0 0 0 0 0 0 0 0 0 0 0 0 0 0 0 0 0 0 0 0 0 0 0 0 0 0 0 0 0 0 0 0 0
0.288297 6.20744e-10 5.39823e-11 5.66762e-10 0.913036 0.55735 0 0 0 0 0 0 0 0 0 0 0 0 0 0 0 0 0 0 0 0 0 0 0 0 0 0 0 0 0 0 0 0 0 0 0 0 0 0 0 0 0 0
0.303095 5.72985e-10 5.50762e-11 5.17908e-10 0.903878 0.577312 0 0 0 0 0 0 0 0 0 0 0 0 0 0 0 0 0 0 0 0 0 0 0 0 0 0 0 0 0 0 0 0 0 0 0 0 0 0 0 0 0 0
0.318653 4.97029e-10 5.26827e-11 4.44347e-10 0.894005 0.589574 0 0 0 0 0 0 0 0 0 0 0 0 0 0 0 0 0 0 0 0 0 0 0 0 0 0 0 0 0 0 0 0 0 0 0 0 0 0 0 0 0 0
0.335009 4.13447e-10 4.72656e-11 3.66181e-10 0.885679 0.580407 0 0 0 0 0 0 0 0 0 0 0 0 0 0 0 0 0 0 0 0 0 0 0 0 0 0 0 0 0 0 0 0 0 0 0 0 0 0 0 0 0 0
0.352205 3.41124e-10 4.10428e-11 3.00081e-10 0.879684 0.547019 0 0 0 0 0 0 0 0 0 0 0 0 0 0 0 0 0 0 0 0 0 0 0 0 0 0 0 0 0 0 0 0 0 0 0 0 0 0 0 0 0 0
0.370284 2.84608e-10 3.55001e-11 2.49108e-10 0.875267 0.497662 0 0 0 0 0 0 0 0 0 0 0 0 0 0 0 0 0 0 0 0 0 0 0 0 0 0 0 0 0 0 0 0 0 0 0 0 0 0 0 0 0 0
0.389291 2.4094e-10 3.10595e-11 2.0988e-10 0.87109 0.443017 0 0 0 0 0 0 0 0 0 0 0 0 0 0 0 0 0 0 0 0 0 0 0 0 0 0 0 0 0 0 0 0 0 0 0 0 0 0 0 0 0 0
0.409273 2.05911e-10 2.75725e-11 1.78338e-10 0.866095 0.390541 0 0 0 0 0 0 0 0 0 0 0 0 0 0 0 0 0 0 0 0 0 0 0 0 0 0 0 0 0 0 0 0 0 0 0 0 0 0 0 0 0 0
0.430281 1.76377e-10 2.47726e-11 1.51604e-10 0.859548 0.343444 0 0 0 0 0 0 0 0 0 0 0 0 0 0 0 0 0 0 0 0 0 0 0 0 0 0 0 0 0 0 0 0 0 0 0 0 0 0 0 0 0 0
0.452368 1.51041e-10 2.24752e-11 1.28566e-10 0.851198 0.302601 0 0 0 0 0 0 0 0 0 0 0 0 0 0 0 0 0 0 0 0 0 0 0 0 0 0 0 0 0 0 0 0 0 0 0 0 0 0 0 0 0 0
0.475588 1.28927e-10 2.05177e-11 1.0841e-10 0.840858 0.267511 0 0 0 0 0 0 0 0 0 0 0 0 0 0 0 0 0 0 0 0 0 0 0 0 0 0 0 0 0 0 0 0 0 0 0 0 0 0 0 0 0 0
0.5 1.09705e-10 1.88162e-11 9.08888e-11 0.828484 0.237476 0 0 0 0 0 0 0 0 0 0 0 0 0 0 0 0 0 0 0 0 0 0 0 0 0 0 0 0 0 0 0 0 0 0 0 0 0 0 0 0 0 0
0.525665 9.30433e-11 1.73051e-11 7.57382e-11 0.81401 0.211567 0 0 0 0 0 0 0 0 0 0 0 0 0 0 0 0 0 0 0 0 0 0 0 0 0 0 0 0 0 0 0 0 0 0 0 0 0 0 0 0 0 0
0.552648 7.86943e-11 1.59476e-11 6.27468e-11 0.797348 0.189066 0 0 0 0 0 0 0 0 0 0 0 0 0 0 0 0 0 0 0 0 0 0 0 0 0 0 0 0 0 0 0 0 0 0 0 0 0 0 0 0 0 0
0.581015 6.65731e-11 1.472e-11 5.18531e-11 0.778889 0.169501 0 0 0 0 0 0 0 0 0 0 0 0 0 0 0 0 0 0 0 0 0 0 0 0 0 0 0 0 0 0 0 0 0 0 0 0 0 0 0 0 0 0
0.610839 5.62992e-11 1.36077e-11 4.26916e-11 0.758298 0.152306 0 0 0 0 0 0 0 0 0 0 0 0 0 0 0 0 0 0 0 0 0 0 0 0 0 0 0 0 0 0 0 0 0 0 0 0 0 0 0 0 0 0
0.642193 4.76291e-11 1.25971e-11 3.50321e-11 0.735518 0.137083 0 0 0 0 0 0 0 0 0 0 0 0 0 0 0 0 0 0 0 0 0 0 0 0 0 0 0 0 0 0 0 0 0 0 0 0 0 0 0 0 0 0
0.675157 4.03697e-11 1.16807e-11 2.8689e-11 0.710656 0.123559 0 0 0 0 0 0 0 0 0 0 0 0 0 0 0 0 0 0 0 0 0 0 0 0 0 0 0 0 0 0 0 0 0 0 0 0 0 0 0 0 0 0
0.709813 3.43291e-11 1.08511e-11 2.3478e-11 0.683909 0.111527 0 0 0 0 0 0 0 0 0 0 0 0 0 0 0 0 0 0 0 0 0 0 0 0 0 0 0 0 0 0 0 0 0 0 0 0 0 0 0 0 0 0
0.746248 2.92848e-11 1.00971e-11 1.91877e-11 0.655211 0.100751 0 0 0 0 0 0 0 0 0 0 0 0 0 0 0 0 0 0 0 0 0 0 0 0 0 0 0 0 0 0 0 0 0 0 0 0 0 0 0 0 0 0
0.784553 2.50728e-11 9.41026e-12 1.56625e-11 0.624682 0.0910681 0 0 0 0 0 0 0 0 0 0 0 0 0 0 0 0 0 0 0 0 0 0 0 0 0 0 0 0 0 0 0 0 0 0 0 0 0 0 0 0 0 0
0.824824 2.15635e-11 8.78071e-12 1.27828e-11 0.592797 0.0823641 0 0 0 0 0 0 0 0 0 0 0 0 0 0 0 0 0 0 0 0 0 0 0 0 0 0 0 0 0 0 0 0 0 0 0 0 0 0 0 0 0 0
0.867162 1.86424e-11 8.2049e-12 1.04375e-11 0.559879 0.0745374 0 0 0 0 0 0 0 0 0 0 0 0 0 0 0 0 0 0 0 0 0 0 0 0 0 0 0 0 0 0 0 0 0 0 0 0 0 0 0 0 0 0
0.911674 1.61959e-11 7.67736e-12 8.51852e-12 0.525968 0.0674681 0 0 0 0 0 0 0 0 0 0 0 0 0 0 0 0 0 0 0 0 0 0 0 0 0 0 0 0 0 0 0 0 0 0 0 0 0 0 0 0 0 0
0.95847 1.41423e-11 7.19152e-12 6.95083e-12 0.491491 0.0610784 0 0 0 0 0 0 0 0 0 0 0 0 0 0 0 0 0 0 0 0 0 0 0 0 0 0 0 0 0 0 0 0 0 0 0 0 0 0 0 0 0 0
1.00767 1.24197e-11 6.74681e-12 5.67293e-12 0.456767 0.0553054 0 0 0 0 0 0 0 0 0 0 0 0 0 0 0 0 0 0 0 0 0 0 0 0 0 0 0 0 0 0 0 0 0 0 0 0 0 0 0 0 0 0
1.05939 1.09709e-11 6.34036e-12 4.63058e-12 0.422077 0.0500841 0 0 0 0 0 0 0 0 0 0 0 0 0 0 0 0 0 0 0 0 0 0 0 0 0 0 0 0 0 0 0 0 0 0 0 0 0 0 0 0 0 0
1.11377 9.74515e-12 5.96614e-12 3.779e-12 0.387783 0.0453541 0 0 0 0 0 0 0 0 0 0 0 0 0 0 0 0 0 0 0 0 0 0 0 0 0 0 0 0 0 0 0 0 0 0 0 0 0 0 0 0 0 0
1.17094 8.70282e-12 5.61972e-12 3.08311e-12 0.354265 0.0410675 0 0 0 0 0 0 0 0 0 0 0 0 0 0 0 0 0 0 0 0 0 0 0 0 0 0 0 0 0 0 0 0 0 0 0 0 0 0 0 0 0 0
1.23105 7.81686e-12 5.29987e-12 2.517e-12 0.321996 0.0371914 0 0 0 0 0 0 0 0 0 0 0 0 0 0 0 0 0 0 0 0 0 0 0 0 0 0 0 0 0 0 0 0 0 0 0 0 0 0 0 0 0 0
1.29424 7.07045e-12 5.01611e-12 2.05434e-12 0.290553 0.0336775 0 0 0 0 0 0 0 0 0 0 0 0 0 0 0 0 0 0 0 0 0 0 0 0 0 0 0 0 0 0 0 0 0 0 0 0 0 0 0 0 0 0
1.36067 6.43381e-12 4.75612e-12 1.67769e-12 0.260761 0.0304965 0 0 0 0 0 0 0 0 0 0 0 0 0 0 0 0 0 0 0 0 0 0 0 0 0 0 0 0 0 0 0 0 0 0 0 0 0 0 0 0 0 0
1.43051 5.88369e-12 4.51444e-12 1.36925e-12 0.232719 0.0276103 0 0 0 0 0 0 0 0 0 0 0 0 0 0 0 0 0 0 0 0 0 0 0 0 0 0 0 0 0 0 0 0 0 0 0 0 0 0 0 0 0 0
1.50394 5.40823e-12 4.28973e-12 1.1185e-12 0.206815 0.025001 0 0 0 0 0 0 0 0 0 0 0 0 0 0 0 0 0 0 0 0 0 0 0 0 0 0 0 0 0 0 0 0 0 0 0 0 0 0 0 0 0 0
1.58114 4.99278e-12 4.07923e-12 9.13548e-13 0.182974 0.0226354 0 0 0 0 0 0 0 0 0 0 0 0 0 0 0 0 0 0 0 0 0 0 0 0 0 0 0 0 0 0 0 0 0 0 0 0 0 0 0 0 0 0
1.6623 4.62709e-12 3.88147e-12 7.45617e-13 0.161142 0.0204885 0 0 0 0 0 0 0 0 0 0 0 0 0 0 0 0 0 0 0 0 0 0 0 0 0 0 0 0 0 0 0 0 0 0 0 0 0 0 0 0 0 0
1.74763 4.30715e-12 3.69836e-12 6.08792e-13 0.141344 0.0185456 0 0 0 0 0 0 0 0 0 0 0 0 0 0 0 0 0 0 0 0 0 0 0 0 0 0 0 0 0 0 0 0 0 0 0 0 0 0 0 0 0 0
1.83733 4.03009e-12 3.53307e-12 4.97026e-13 0.123329 0.0167855 0 0 0 0 0 0 0 0 0 0 0 0 0 0 0 0 0 0 0 0 0 0 0 0 0 0 0 0 0 0 0 0 0 0 0 0 0 0 0 0 0 0
1.93164 3.78629e-12 3.38063e-12 4.05655e-13 0.107138 0.0151901 0 0 0 0 0 0 0 0 0 0 0 0 0 0 0 0 0 0 0 0 0 0 0 0 0 0 0 0 0 0 0 0 0 0 0 0 0 0 0 0 0 0
2.03079 3.56974e-12 3.23867e-12 3.31068e-13 0.092743 0.013745 0 0 0 0 0 0 0 0 0 0 0 0 0 0 0 0 0 0 0 0 0 0 0 0 0 0 0 0 0 0 0 0 0 0 0 0 0 0 0 0 0 0
2.13503 3.37615e-12 3.10592e-12 2.70236e-13 0.0800425 0.0124374 0 0 0 0 0 0 0 0 0 0 0 0 0 0 0 0 0 0 0 0 0 0 0 0 0 0 0 0 0 0 0 0 0 0 0 0 0 0 0 0 0 0
2.24463 3.20394e-12 2.98348e-12 2.20461e-13 0.0688093 0.0112521 0 0 0 0 0 0 0 0 0 0 0 0 0 0 0 0 0 0 0 0 0 0 0 0 0 0 0 0 0 0 0 0 0 0 0 0 0 0 0 0 0 0
2.35984 3.04767e-12 2.86789e-12 1.7978e-13 0.0589893 0.010178 0 0 0 0 0 0 0 0 0 0 0 0 0 0 0 0 0 0 0 0 0 0 0 0 0 0 0 0 0 0 0 0 0 0 0 0 0 0 0 0 0 0
2.48097 2.90617e-12 2.75969e-12 1.46476e-13 0.0504017 0.00920423 0 0 0 0 0 0 0 0 0 0 0 0 0 0 0 0 0 0 0 0 0 0 0 0 0 0 0 0 0 0 0 0 0 0 0 0 0 0 0 0 0 0
2.60832 2.77979e-12 2.6604e-12 1.19388e-13 0.0429488 0.00832419 0 0 0 0 0 0 0 0 0 0 0 0 0 0 0 0 0 0 0 0 0 0 0 0 0 0 0 0 0 0 0 0 0 0 0 0 0 0 0 0 0 0
2.74221 2.66424e-12 2.56697e-12 9.72682e-14 0.0365088 0.00752711 0 0 0 0 0 0 0 0 0 0 0 0 0 0 0 0 0 0 0 0 0 0 0 0 0 0 0 0 0 0 0 0 0 0 0 0 0 0 0 0 0 0
2.88297 2.5599e-12 2.48079e-12 7.91153e-14 0.0309056 0.00680352 0 0 0 0 0 0 0 0 0 0 0 0 0 0 0 0 0 0 0 0 0 0 0 0 0 0 0 0 0 0 0 0 0 0 0 0 0 0 0 0 0 0
3.03095 2.46428e-12 2.39993e-12 6.43449e-14 0.0261111 0.00614932 0 0 0 0 0 0 0 0 0 0 0 0 0 0 0 0 0 0 0 0 0 0 0 0 0 0 0 0 0 0 0 0 0 0 0 0 0 0 0 0 0 0
3.18653 2.38178e-12 2.32947e-12 5.23087e-14 0.021962 0.00555734 0 0 0 0 0 0 0 0 0 0 0 0 0 0 0 0 0 0 0 0 0 0 0 0 0 0 0 0 0 0 0 0 0 0 0 0 0 0 0 0 0 0
3.35009 2.30574e-12 2.26327e-12 4.247e-14 0.0184193 0.00502078 0 0 0 0 0 0 0 0 0 0 0 0 0 0 0 0 0 0 0 0 0 0 0 0 0 0 0 0 0 0 0 0 0 0 0 0 0 0 0 0 0 0
3.52205 2.22679e-12 2.19237e-12 3.44222e-14 0.0154582 0.00453423 0 0 0 0 0 0 0 0 0 0 0 0 0 0 0 0 0 0 0 0 0 0 0 0 0 0 0 0 0 0 0 0 0 0 0 0 0 0 0 0 0 0
3.70284 2.15095e-12 2.12306e-12 2.78841e-14 0.0129636 0.00409453 0 0 0 0 0 0 0 0 0 0 0 0 0 0 0 0 0 0 0 0 0 0 0 0 0 0 0 0 0 0 0 0 0 0 0 0 0 0 0 0 0 0
3.89291 2.07899e-12 2.05644e-12 2.25436e-14 0.0108435 0.00369591 0 0 0 0 0 0 0 0 0 0 0 0 0 0 0 0 0 0 0 0 0 0 0 0 0 0 0 0 0 0 0 0 0 0 0 0 0 0 0 0 0 0
4.09273 2.01177e-12 1.99359e-12 1.81769e-14 0.00903528 0.00333423 0 0 0 0 0 0 0 0 0 0 0 0 0 0 0 0 0 0 0 0 0 0 0 0 0 0 0 0 0 0 0 0 0 0 0 0 0 0 0 0 0 0
4.30281 1.9429e-12 1.92828e-12 1.46151e-14 0.00752232 0.00300635 0 0 0 0 0 0 0 0 0 0 0 0 0 0 0 0 0 0 0 0 0 0 0 0 0 0 0 0 0 0 0 0 0 0 0 0 0 0 0 0 0 0
4.52368 1.88004e-12 1.86832e-12 1.17202e-14 0.00623404 0.0027095 0 0 0 0 0 0 0 0 0 0 0 0 0 0 0 0 0 0 0 0 0 0 0 0 0 0 0 0 0 0 0 0 0 0 0 0 0 0 0 0 0 0
4.75588 1.82566e-12 1.8163e-12 9.36005e-15 0.00512694 0.0024401 0 0 0 0 0 0 0 0 0 0 0 0 0 0 0 0 0 0 0 0 0 0 0 0 0 0 0 0 0 0 0 0 0 0 0 0 0 0 0 0 0 0
5 1.78446e-12 1.77703e-12 7.42891e-15 0.00416311 0.00219506 0 0 0 0 0 0 0 0 0 0 0 0 0 0 0 0 0 0 0 0 0 0 0 0 0 0 0 0 0 0 0 0 0 0 0 0 0 0 0 0 0 0
5.25665 1.761e-12 1.75515e-12 5.85853e-15 0.00332681 0.00197262 0 0 0 0 0 0 0 0 0 0 0 0 0 0 0 0 0 0 0 0 0 0 0 0 0 0 0 0 0 0 0 0 0 0 0 0 0 0 0 0 0 0
5.52648 1.75278e-12 1.74819e-12 4.58942e-15 0.00261836 0.00177099 0 0 0 0 0 0 0 0 0 0 0 0 0 0 0 0 0 0 0 0 0 0 0 0 0 0 0 0 0 0 0 0 0 0 0 0 0 0 0 0 0 0
5.81015 1.76837e-12 1.76482e-12 3.55234e-15 0.00200883 0.00158713 0 0 0 0 0 0 0 0 0 0 0 0 0 0 0 0 0 0 0 0 0 0 0 0 0 0 0 0 0 0 0 0 0 0 0 0 0 0 0 0 0 0
6.10839 1.80018e-12 1.79747e-12 2.71451e-15 0.00150791 0.00141998 0 0 0 0 0 0 0 0 0 0 0 0 0 0 0 0 0 0 0 0 0 0 0 0 0 0 0 0 0 0 0 0 0 0 0 0 0 0 0 0 1.4013e-45 0
6.42193 1.82512e-12 1.82309e-12 2.03672e-15 0.00111594 0.00126787 0 0 0 0 0 0 0 0 0 0 0 0 0 0 0 0 0 0 0 0 0 0 0 0 0 0 0 0 0 0 1.4013e-45 0 4.2039e-45 0 1.12104e-44 0 2.8026e-44 0 6.72623e-44 0 1.52742e-43 0
6.75157 1.82827e-12 1.8268e-12 1.47157e-15 0.000804898 0.00112738 0 0 0 0 0 0 0 0 0 0 0 0 0 0 0 0 0 0 0 0 0 0 1.4013e-45 0 4.2039e-45 0 1.54143e-44 0 5.1848e-44 0 1.56945e-43 0 4.24593e-43 0 1.12384e-42 0 2.71852e-42 0 6.17272e-42 0 1.35071e-41 0
7.09813 1.856e-12 1.85501e-12 9.85265e-16 0.000530855 0.00099513 0 0 0 0 0 0 0 0 0 0 0 0 0 0 0 0 0 0 4.2039e-45 0 2.38221e-44 0 1.12104e-43 0 4.47014e-43 0 1.54703e-42 0 4.82467e-42 0 1.39597e-41 0 3.59167e-41 0 9.06542e-41 0 2.09945e-40 0 4.5804e-40 0 9.64714e-40 0
7.46248 2.28477e-12 2.28422e-12 5.5498e-16 0.000242904 0.00086625 0 0 0 0 0 0 0 0 0 0 0 0 1.4013e-45 0 9.80909e-45 0 8.54792e-44 0 5.5071e-43 0 2.82922e-42 0 1.21366e-41 0 4.5161e-41 0 1.47244e-40 0 4.3438e-40 0 1.19337e-39 0 2.93205e-39 0 7.07335e-39 0 1.57229e-38 0 3.3021e-38 0 6.70643e-38 0
7.84553 4.43654e-12 4.43627e-12 2.77261e-16 6.24948e-05 0.000743512 0 0 0 0 0 0 0 0 0 0 8.40779e-45 0 1.70958e-43 0 1.92398e-42 0 1.47431e-41 0 8.6718e-41 0 4.11556e-40 0 1.64434e-39 0 5.73818e-39 0 1.76599e-38 0 4.94174e-38 0 1.29228e-37 0 3.03872e-37 0 7.02218e-37 0 1.50121e-36 0 3.04064e-36 0 5.96545e-36 0
8.24824 9.22456e-12 9.22422e-12 3.38728e-16 3.67203e-05 0.000639042 0 0 0 0 0 0 0 0 5.46506e-44 0 1.88895e-42 0 3.11887e-41 0 3.11502e-40 0 2.16138e-39 0 1.16596e-38 0 5.1284e-38 0 1.91503e-37 0 6.28718e-37 0 1.83161e-36 0 4.87423e-36 0 1.21619e-35 0 2.74287e-35 0 6.08449e-35 0 1.25338e-34 0 2.45268e-34 0 4.65618e-34 0
8.67162 1.40777e-11 1.40771e-11 6.09312e-16 4.3282e-05 0.000556372 0 0 0 0 0 0 8.54792e-44 0 7.86689e-42 0 2.29978e-40 0 3.31232e-39 0 2.9567e-38 0 1.86639e-37 0 9.27302e-37 0 3.79411e-36 0 1.32851e-35 0 4.11566e-35 0 1.13801e-34 0 2.88711e-34 0 6.88921e-34 0 1.49324e-33 0 3.18606e-33 0 6.33564e-33 0 1.19981e-32 0 2.20754e-32 0
9.11674 2.07576e-11 2.07564e-11 1.1885e-15 5.72561e-05 0.000474155 0 0 0 0 1.82169e-44 0 1.17611e-41 0 8.70686e-40 0 2.15862e-38 0 2.72937e-37 0 2.18938e-36 0 1.26313e-35 0 5.80328e-35 0 2.2166e-34 0 7.3008e-34 0 2.14027e-33 0 5.63128e-33 0 1.36517e-32 0 3.12212e-32 0 6.51639e-32 0 1.33987e-31 0 2.57646e-31 0 4.7294e-31 0 8.44644e-31 0
9.5847 2.33727e-11 2.3371e-11 1.69194e-15 7.23898e-05 0.000424545 0 0 0 0 2.13838e-42 0 9.81287e-40 0 5.88761e-38 0 1.24789e-36 0 1.394e-35 0 1.01012e-34 0 5.34981e-34 0 2.28156e-33 0 8.16262e-33 0 2.53652e-32 0 7.05553e-32 0 1.77074e-31 0 4.11109e-31 0 9.02987e-31 0 1.81818e-30 0 3.60917e-30 0 6.72209e-30 0 1.19786e-29 0 2.07959e-29 0
10.0767 2.09518e-11 2.09502e-11 1.62775e-15 7.769e-05 0.000403121 0 0 2.8026e-45 0 1.5335e-40 0 5.2183e-38 0 2.56363e-36 0 4.68103e-35 0 4.6479e-34 0 3.05754e-33 0 1.49276e-32 0 5.93103e-32 0 1.99388e-31 0 5.86226e-31 0 1.55119e-30 0 3.72203e-30 0 8.29319e-30 0 1.75292e-29 0 3.41095e-29 0 6.548e-29 0 1.18309e-28 0 2.04961e-28 0 3.46374e-28 0
10.5939 1.75823e-11 1.75808e-11 1.47633e-15 8.39665e-05 0.000396091 0 0 2.5924e-43 0 8.21275e-39 0 2.10242e-36 0 8.54021e-35 0 1.35321e-33 0 1.20117e-32 0 7.20738e-32 0 3.25668e-31 0 1.20966e-30 0 3.83284e-30 0 1.06911e-29 0 2.69766e-29 0 6.20216e-29 0 1.32891e-28 0 2.70811e-28 0 5.10112e-28 0 9.48572e-28 0 1.66508e-27 0 2.80826e-27 0 4.62578e-27 0
11.1377 1.38234e-11 1.38222e-11 1.16851e-15 8.45313e-05 0.000405946 0 0 1.73579e-41 0 3.32314e-37 0 6.48933e-35 0 2.1999e-33 0 3.0459e-32 0 2.4303e-31 0 1.3361e-30 0 5.60862e-30 0 1.95397e-29 0 5.85227e-29 0 1.55265e-28 0 3.74467e-28 0 8.26641e-28 0 1.70652e-27 0 3.35882e-27 0 6.13422e-27 0 1.10665e-26 0 1.88993e-26 0 3.10716e-26 0 4.99493e-26 0
11.7094 1.10373e-11 1.10364e-11 9.18223e-16 8.31929e-05 0.000408362 2.52234e-44 0 9.40696e-40 0 1.11288e-35 0 1.67981e-33 0 4.7946e-32 0 5.83904e-31 0 4.20968e-30 0 2.12956e-29 0 8.33467e-29 0 2.73203e-28 0 7.75588e-28 0 1.96196e-27 0 4.53277e-27 0 9.62668e-27 0 1.91824e-26 0 3.65275e-26 0 6.4777e-26 0 1.13543e-25 0 1.88907e-25 0 3.03126e-25 0 4.76127e-25 0
12.3105 8.61767e-12 8.61697e-12 7.03837e-16 8.16737e-05 0.000406287 1.81608e-42 0 4.00829e-38 0 2.99983e-34 0 3.54431e-32 0 8.58936e-31 0 9.25863e-30 0 6.06133e-29 0 2.83292e-28 0 1.03729e-27 0 3.20866e-27 0 8.65655e-27 0 2.09279e-26 0 4.64133e-26 0 9.50133e-26 0 1.83059e-25 0 3.37793e-25 0 5.82512e-25 0 9.93447e-25 0 1.61227e-24 0 2.52805e-24 0 3.88428e-24 0
12.9424 6.72436e-12 6.72383e-12 5.24426e-16 7.79891e-05 0.000388897 1.02389e-40 0 1.38705e-36 0 6.71549e-33 0 6.28532e-31 0 1.30366e-29 0 1.25122e-28 0 7.47333e-28 0 3.23954e-27 0 1.11334e-26 0 3.25918e-26 0 8.37694e-26 0 1.93976e-25 0 4.13786e-25 0 8.1795e-25 0 1.52626e-24 0 2.73337e-24 0 4.58984e-24 0 7.62637e-24 0 1.20877e-23 0 1.85419e-23 0 2.78979e-23 0
