# 0.00039811 0 162 : grain size, compostion index, size index
# Heating and cooling timescale: 1.82233e-05 2.20731e+11
# Ratio of heating to cooling to determine stochastic cutoff: 100
# Equilibrium emission is recorded even for those grains in the stochastic regime.
# Emission spectrum was computed for: 
# Type: IRSF
# Scales: 0.25 0.5 1 1.5 2 2.5 3 3.5 4 4.5 5 5.5 6 6.5 7 7.5 8 8.5 9 9.5 10
# StochasticallyHeated: 0 0 0 0 0 0 0 0 0 0 0 0 0 0 0 0 0 0 0 0 0
# Temperature: -1
# Wavelength  CExt  CAbs  CSca  Albedo G EqEm1 StEm1 EqEm2 StEm2 EqEm3 StEm3 EqEm4 StEm4 EqEm5 StEm5 EqEm6 StEm6 EqEm7 StEm7 EqEm8 StEm8 EqEm9 StEm9 EqEm10 StEm10 EqEm11 StEm11 EqEm12 StEm12 EqEm13 StEm13 EqEm14 StEm14 EqEm15 StEm15 EqEm16 StEm16 EqEm17 StEm17 EqEm18 StEm18 EqEm19 StEm19 EqEm20 StEm20 EqEm21 StEm21
0.05 2.55835e-07 9.303e-08 1.62805e-07 0.636367 0.00576547 0 0 0 0 0 0 0 0 0 0 0 0 0 0 0 0 0 0 0 0 0 0 0 0 0 0 0 0 0 0 0 0 0 0 0 0 0 0 0 0 0 0
0.0525665 2.82773e-07 1.02826e-07 1.79947e-07 0.636367 0.00637255 0 0 0 0 0 0 0 0 0 0 0 0 0 0 0 0 0 0 0 0 0 0 0 0 0 0 0 0 0 0 0 0 0 0 0 0 0 0 0 0 0 0
0.0552647 3.12548e-07 1.13653e-07 1.98895e-07 0.636367 0.00704355 0 0 0 0 0 0 0 0 0 0 0 0 0 0 0 0 0 0 0 0 0 0 0 0 0 0 0 0 0 0 0 0 0 0 0 0 0 0 0 0 0 0
0.0581015 3.45457e-07 1.2562e-07 2.19838e-07 0.636367 0.0077852 0 0 0 0 0 0 0 0 0 0 0 0 0 0 0 0 0 0 0 0 0 0 0 0 0 0 0 0 0 0 0 0 0 0 0 0 0 0 0 0 0 0
0.0610839 3.81832e-07 1.38847e-07 2.42985e-07 0.636367 0.00860494 0 0 0 0 0 0 0 0 0 0 0 0 0 0 0 0 0 0 0 0 0 0 0 0 0 0 0 0 0 0 0 0 0 0 0 0 0 0 0 0 0 0
0.0642193 4.22037e-07 1.53467e-07 2.68571e-07 0.636367 0.009511 0 0 0 0 0 0 0 0 0 0 0 0 0 0 0 0 0 0 0 0 0 0 0 0 0 0 0 0 0 0 0 0 0 0 0 0 0 0 0 0 0 0
0.0675157 4.66476e-07 1.69626e-07 2.9685e-07 0.636367 0.0105125 0 0 0 0 0 0 0 0 0 0 0 0 0 0 0 0 0 0 0 0 0 0 0 0 0 0 0 0 0 0 0 0 0 0 0 0 0 0 0 0 0 0
0.0709813 5.15593e-07 1.87487e-07 3.28107e-07 0.636367 0.0116194 0 0 0 0 0 0 0 0 0 0 0 0 0 0 0 0 0 0 0 0 0 0 0 0 0 0 0 0 0 0 0 0 0 0 0 0 0 0 0 0 0 0
0.0746248 5.69883e-07 2.07228e-07 3.62655e-07 0.636367 0.0128428 0 0 0 0 0 0 0 0 0 0 0 0 0 0 0 0 0 0 0 0 0 0 0 0 0 0 0 0 0 0 0 0 0 0 0 0 0 0 0 0 0 0
0.0784553 6.29889e-07 2.29048e-07 4.0084e-07 0.636367 0.0141951 0 0 0 0 0 0 0 0 0 0 0 0 0 0 0 0 0 0 0 0 0 0 0 0 0 0 0 0 0 0 0 0 0 0 0 0 0 0 0 0 0 0
0.0824824 6.96213e-07 2.53166e-07 4.43047e-07 0.636367 0.0156898 0 0 0 0 0 0 0 0 0 0 0 0 0 0 0 0 0 0 0 0 0 0 0 0 0 0 0 0 0 0 0 0 0 0 0 0 0 0 0 0 0 0
0.0867162 7.69521e-07 2.79823e-07 4.89698e-07 0.636367 0.0173419 0 0 0 0 0 0 0 0 0 0 0 0 0 0 0 0 0 0 0 0 0 0 0 0 0 0 0 0 0 0 0 0 0 0 0 0 0 0 0 0 0 0
0.0911674 8.50548e-07 3.09287e-07 5.41261e-07 0.636367 0.0191679 0 0 0 0 0 0 0 0 0 0 0 0 0 0 0 0 0 0 0 0 0 0 0 0 0 0 0 0 0 0 0 0 0 0 0 0 0 0 0 0 0 0
0.095847 9.40107e-07 3.41854e-07 5.98253e-07 0.636367 0.0211862 0 0 0 0 0 0 0 0 0 0 0 0 0 0 0 0 0 0 0 0 0 0 0 0 0 0 0 0 0 0 0 0 0 0 0 0 0 0 0 0 0 0
0.100767 1.02335e-06 3.75091e-07 6.48261e-07 0.633468 0.0235692 0 0 0 0 0 0 0 0 0 0 0 0 0 0 0 0 0 0 0 0 0 0 0 0 0 0 0 0 0 0 0 0 0 0 0 0 0 0 0 0 0 0
0.105939 1.02348e-06 3.91778e-07 6.31706e-07 0.617211 0.0256046 0 0 0 0 0 0 0 0 0 0 0 0 0 0 0 0 0 0 0 0 0 0 0 0 0 0 0 0 0 0 0 0 0 0 0 0 0 0 0 0 0 0
0.111377 1.02416e-06 3.95402e-07 6.28762e-07 0.613927 0.0289403 0 0 0 0 0 0 0 0 0 0 0 0 0 0 0 0 0 0 0 0 0 0 0 0 0 0 0 0 0 0 0 0 0 0 0 0 0 0 0 0 0 0
0.117094 1.02425e-06 4.09372e-07 6.14879e-07 0.60032 0.0274507 0 0 0 0 0 0 0 0 0 0 0 0 0 0 0 0 0 0 0 0 0 0 0 0 0 0 0 0 0 0 0 0 0 0 0 0 0 0 0 0 0 0
0.123105 1.02461e-06 4.25376e-07 5.99238e-07 0.584843 0.0236555 0 0 0 0 0 0 0 0 0 0 0 0 0 0 0 0 0 0 0 0 0 0 0 0 0 0 0 0 0 0 0 0 0 0 0 0 0 0 0 0 0 0
0.129424 1.02529e-06 4.37418e-07 5.87875e-07 0.573372 0.0199126 0 0 0 0 0 0 0 0 0 0 0 0 0 0 0 0 0 0 0 0 0 0 0 0 0 0 0 0 0 0 0 0 0 0 0 0 0 0 0 0 0 0
0.136067 1.02603e-06 4.46828e-07 5.79201e-07 0.564507 0.0168557 0 0 0 0 0 0 0 0 0 0 0 0 0 0 0 0 0 0 0 0 0 0 0 0 0 0 0 0 0 0 0 0 0 0 0 0 0 0 0 0 0 0
0.143051 1.02673e-06 4.5461e-07 5.72119e-07 0.557225 0.0143876 0 0 0 0 0 0 0 0 0 0 0 0 0 0 0 0 0 0 0 0 0 0 0 0 0 0 0 0 0 0 0 0 0 0 0 0 0 0 0 0 0 0
0.150394 1.02726e-06 4.60946e-07 5.66317e-07 0.551287 0.0122986 0 0 0 0 0 0 0 0 0 0 0 0 0 0 0 0 0 0 0 0 0 0 0 0 0 0 0 0 0 0 0 0 0 0 0 0 0 0 0 0 0 0
0.158114 1.0275e-06 4.6504e-07 5.62458e-07 0.547406 0.01055 0 0 0 0 0 0 0 0 0 0 0 0 0 0 0 0 0 0 0 0 0 0 0 0 0 0 0 0 0 0 0 0 0 0 0 0 0 0 0 0 0 0
0.16623 1.02741e-06 4.64855e-07 5.62553e-07 0.547546 0.00908216 0 0 0 0 0 0 0 0 0 0 0 0 0 0 0 0 0 0 0 0 0 0 0 0 0 0 0 0 0 0 0 0 0 0 0 0 0 0 0 0 0 0
0.174762 1.0275e-06 4.58327e-07 5.69173e-07 0.55394 0.00782097 0 0 0 0 0 0 0 0 0 0 0 0 0 0 0 0 0 0 0 0 0 0 0 0 0 0 0 0 0 0 0 0 0 0 0 0 0 0 0 0 0 0
0.183733 1.02842e-06 4.43149e-07 5.8527e-07 0.569097 0.00667218 0 0 0 0 0 0 0 0 0 0 0 0 0 0 0 0 0 0 0 0 0 0 0 0 0 0 0 0 0 0 0 0 0 0 0 0 0 0 0 0 0 0
0.193164 1.03087e-06 4.1684e-07 6.14029e-07 0.595642 0.00556038 0 0 0 0 0 0 0 0 0 0 0 0 0 0 0 0 0 0 0 0 0 0 0 0 0 0 0 0 0 0 0 0 0 0 0 0 0 0 0 0 0 0
0.203079 1.0346e-06 3.84017e-07 6.50581e-07 0.628825 0.00446034 0 0 0 0 0 0 0 0 0 0 0 0 0 0 0 0 0 0 0 0 0 0 0 0 0 0 0 0 0 0 0 0 0 0 0 0 0 0 0 0 0 0
0.213503 1.03913e-06 3.53812e-07 6.85318e-07 0.659511 0.00342932 0 0 0 0 0 0 0 0 0 0 0 0 0 0 0 0 0 0 0 0 0 0 0 0 0 0 0 0 0 0 0 0 0 0 0 0 0 0 0 0 0 0
0.224463 1.04408e-06 3.32546e-07 7.11532e-07 0.681493 0.00254317 0 0 0 0 0 0 0 0 0 0 0 0 0 0 0 0 0 0 0 0 0 0 0 0 0 0 0 0 0 0 0 0 0 0 0 0 0 0 0 0 0 0
0.235984 1.04915e-06 3.21494e-07 7.27659e-07 0.693568 0.00182186 0 0 0 0 0 0 0 0 0 0 0 0 0 0 0 0 0 0 0 0 0 0 0 0 0 0 0 0 0 0 0 0 0 0 0 0 0 0 0 0 0 0
0.248097 1.05373e-06 3.19166e-07 7.3456e-07 0.697107 0.00138916 0 0 0 0 0 0 0 0 0 0 0 0 0 0 0 0 0 0 0 0 0 0 0 0 0 0 0 0 0 0 0 0 0 0 0 0 0 0 0 0 0 0
0.260832 1.05664e-06 3.24483e-07 7.3216e-07 0.692912 0.00141961 0 0 0 0 0 0 0 0 0 0 0 0 0 0 0 0 0 0 0 0 0 0 0 0 0 0 0 0 0 0 0 0 0 0 0 0 0 0 0 0 0 0
0.274221 1.05685e-06 3.36448e-07 7.204e-07 0.68165 0.00187131 0 0 0 0 0 0 0 0 0 0 0 0 0 0 0 0 0 0 0 0 0 0 0 0 0 0 0 0 0 0 0 0 0 0 0 0 0 0 0 0 0 0
0.288297 1.05544e-06 3.52549e-07 7.02893e-07 0.665971 0.00251556 0 0 0 0 0 0 0 0 0 0 0 0 0 0 0 0 0 0 0 0 0 0 0 0 0 0 0 0 0 0 0 0 0 0 0 0 0 0 0 0 0 0
0.303095 1.05446e-06 3.68593e-07 6.85868e-07 0.650444 0.0028362 0 0 0 0 0 0 0 0 0 0 0 0 0 0 0 0 0 0 0 0 0 0 0 0 0 0 0 0 0 0 0 0 0 0 0 0 0 0 0 0 0 0
0.318653 1.05461e-06 3.81819e-07 6.72792e-07 0.637952 0.00297223 0 0 0 0 0 0 0 0 0 0 0 0 0 0 0 0 0 0 0 0 0 0 0 0 0 0 0 0 0 0 0 0 0 0 0 0 0 0 0 0 0 0
0.335009 1.05561e-06 3.91533e-07 6.64082e-07 0.629095 0.00293231 0 0 0 0 0 0 0 0 0 0 0 0 0 0 0 0 0 0 0 0 0 0 0 0 0 0 0 0 0 0 0 0 0 0 0 0 0 0 0 0 0 0
0.352205 1.05719e-06 3.98126e-07 6.59059e-07 0.623409 0.00278811 0 0 0 0 0 0 0 0 0 0 0 0 0 0 0 0 0 0 0 0 0 0 0 0 0 0 0 0 0 0 0 0 0 0 0 0 0 0 0 0 0 0
0.370284 1.05911e-06 4.02244e-07 6.56869e-07 0.620207 0.00261033 0 0 0 0 0 0 0 0 0 0 0 0 0 0 0 0 0 0 0 0 0 0 0 0 0 0 0 0 0 0 0 0 0 0 0 0 0 0 0 0 0 0
0.389291 1.06124e-06 4.04564e-07 6.56674e-07 0.618781 0.00243645 0 0 0 0 0 0 0 0 0 0 0 0 0 0 0 0 0 0 0 0 0 0 0 0 0 0 0 0 0 0 0 0 0 0 0 0 0 0 0 0 0 0
0.409273 1.06352e-06 4.05814e-07 6.57707e-07 0.618424 0.00226652 0 0 0 0 0 0 0 0 0 0 0 0 0 0 0 0 0 0 0 0 0 0 0 0 0 0 0 0 0 0 0 0 0 0 0 0 0 0 0 0 0 0
0.430281 1.06583e-06 4.06555e-07 6.59275e-07 0.618556 0.00210471 0 0 0 0 0 0 0 0 0 0 0 0 0 0 0 0 0 0 0 0 0 0 0 0 0 0 0 0 0 0 0 0 0 0 0 0 0 0 0 0 0 0
0.452368 1.06819e-06 4.07185e-07 6.61008e-07 0.61881 0.00193723 0 0 0 0 0 0 0 0 0 0 0 0 0 0 0 0 0 0 0 0 0 0 0 0 0 0 0 0 0 0 0 0 0 0 0 0 0 0 0 0 0 0
0.475588 1.07056e-06 4.0791e-07 6.62646e-07 0.618974 0.00177642 0 0 0 0 0 0 0 0 0 0 0 0 0 0 0 0 0 0 0 0 0 0 0 0 0 0 0 0 0 0 0 0 0 0 0 0 0 0 0 0 0 0
0.5 1.07298e-06 4.08797e-07 6.64185e-07 0.619009 0.00162159 0 0 0 0 0 0 0 0 0 0 0 0 0 0 0 0 0 0 0 0 0 0 0 0 0 0 0 0 0 0 0 0 0 0 0 0 0 0 0 0 0 0
0.525665 1.07545e-06 4.09822e-07 6.65627e-07 0.618929 0.0014751 0 0 0 0 0 0 0 0 0 0 0 0 0 0 0 0 0 0 0 0 0 0 0 0 0 0 0 0 0 0 0 0 0 0 0 0 0 0 0 0 0 0
0.552648 1.07803e-06 4.10917e-07 6.67113e-07 0.618826 0.00134175 0 0 0 0 0 0 0 0 0 0 0 0 0 0 0 0 0 0 0 0 0 0 0 0 0 0 0 0 0 0 0 0 0 0 0 0 0 0 0 0 0 0
0.581015 1.08073e-06 4.12009e-07 6.68719e-07 0.618767 0.00121775 0 0 0 0 0 0 0 0 0 0 0 0 0 0 0 0 0 0 0 0 0 0 0 0 0 0 0 0 0 0 0 0 0 0 0 0 0 0 0 0 0 0
0.610839 1.08353e-06 4.13024e-07 6.70511e-07 0.618818 0.00110516 0 0 0 0 0 0 0 0 0 0 0 0 0 0 0 0 0 0 0 0 0 0 0 0 0 0 0 0 0 0 0 0 0 0 0 0 0 0 0 0 0 0
0.642193 1.08648e-06 4.13912e-07 6.72568e-07 0.619034 0.00100302 0 0 0 0 0 0 0 0 0 0 0 0 0 0 0 0 0 0 0 0 0 0 0 0 0 0 0 0 0 0 0 0 0 0 0 0 0 0 0 0 0 0
0.675157 1.08958e-06 4.14635e-07 6.74941e-07 0.619453 0.000910957 0 0 0 0 0 0 0 0 0 0 0 0 0 0 0 0 0 0 0 0 0 0 0 0 0 0 0 0 0 0 0 0 0 0 0 0 0 0 0 0 0 0
0.709813 1.0928e-06 4.15177e-07 6.7762e-07 0.620079 0.00082817 0 0 0 0 0 0 0 0 0 0 0 0 0 0 0 0 0 0 0 0 0 0 0 0 0 0 0 0 0 0 0 0 0 0 0 0 0 0 0 0 0 0
0.746248 1.09616e-06 4.15512e-07 6.80646e-07 0.620938 0.000754183 0 0 0 0 0 0 0 0 0 0 0 0 0 0 0 0 0 0 0 0 0 0 0 0 0 0 0 0 0 0 0 0 0 0 0 0 0 0 0 0 0 0
0.784553 1.09964e-06 4.15674e-07 6.83961e-07 0.621989 0.000686995 0 0 0 0 0 0 0 0 0 0 0 0 0 0 0 0 0 0 0 0 0 0 0 0 0 0 0 0 0 0 0 0 0 0 0 0 0 0 0 0 0 0
0.824824 1.10324e-06 4.15656e-07 6.87588e-07 0.623242 0.000626788 0 0 0 0 0 0 0 0 0 0 0 0 0 0 0 0 0 0 0 0 0 0 0 0 0 0 0 0 0 0 0 0 0 0 0 0 0 0 0 0 0 0
0.867162 1.10696e-06 4.15484e-07 6.91477e-07 0.624663 0.000572518 0 0 0 0 0 0 0 0 0 0 0 0 0 0 0 0 0 0 0 0 0 0 0 0 0 0 0 0 0 0 0 0 0 0 0 0 0 0 0 0 0 0
0.911674 1.11074e-06 4.15183e-07 6.95554e-07 0.626209 0.000523427 0 0 0 0 0 0 0 0 0 0 0 0 0 0 0 0 0 0 0 0 0 0 0 0 0 0 0 0 0 0 0 0 0 0 0 0 0 0 0 0 0 0
0.95847 1.11461e-06 4.14765e-07 6.9984e-07 0.627881 0.00047944 0 0 0 0 0 0 0 0 0 0 0 0 0 0 0 0 0 0 0 0 0 0 0 0 0 0 0 0 0 0 0 0 0 0 0 0 0 0 0 0 0 0
1.00767 1.1185e-06 4.1425e-07 7.0425e-07 0.629637 0.0004395 0 0 0 0 0 0 0 0 0 0 0 0 0 0 0 0 0 0 0 0 0 0 0 0 0 0 0 0 0 0 0 0 0 0 0 0 0 0 0 0 0 0
1.05939 1.12244e-06 4.13666e-07 7.08775e-07 0.631458 0.000403275 0 0 0 0 0 0 0 0 0 0 0 0 0 0 0 0 0 0 0 0 0 0 0 0 0 0 0 0 0 0 0 0 0 0 0 0 0 0 0 0 0 0
1.11377 1.12642e-06 4.13041e-07 7.13382e-07 0.633316 0.000370298 0 0 0 0 0 0 0 0 0 0 0 0 0 0 0 0 0 0 0 0 0 0 0 0 0 0 0 0 0 0 0 0 0 0 0 0 0 0 0 0 0 0
1.17094 1.13038e-06 4.12368e-07 7.18016e-07 0.635197 0.000339515 0 0 0 0 0 0 0 0 0 0 0 0 0 0 0 0 0 0 0 0 0 0 0 0 0 0 0 0 0 0 0 0 0 0 0 0 0 0 0 0 0 0
1.23105 1.13434e-06 4.11684e-07 7.22656e-07 0.637072 0.000311294 0 0 0 0 0 0 0 0 0 0 0 0 0 0 0 0 0 0 0 0 0 0 0 0 0 0 0 0 0 0 0 0 0 0 0 0 0 0 0 0 0 0
1.29424 1.13825e-06 4.10982e-07 7.27268e-07 0.638935 0.000285362 0 0 0 0 0 0 0 0 0 0 0 0 0 0 0 0 0 0 0 0 0 0 0 0 0 0 0 0 0 0 0 0 0 0 0 0 0 0 0 0 0 0
1.36067 1.14214e-06 4.10288e-07 7.31857e-07 0.640774 0.000261742 0 0 0 0 0 0 0 0 0 0 0 0 0 0 0 0 0 0 0 0 0 0 0 0 0 0 0 0 0 0 0 0 0 0 0 0 0 0 0 0 0 0
1.43051 1.14598e-06 4.09612e-07 7.36371e-07 0.642567 0.000240209 0 0 0 0 0 0 0 0 0 0 0 0 0 0 0 0 0 0 0 0 0 0 0 0 0 0 0 0 0 0 0 0 0 0 0 0 0 0 0 0 0 0
1.50394 1.14978e-06 4.08964e-07 7.40819e-07 0.644312 0.000220279 0 0 0 0 0 0 0 0 0 0 0 0 0 0 0 0 0 0 0 0 0 0 0 0 0 0 0 0 0 0 0 0 0 0 0 0 0 0 0 0 0 0
1.58114 1.15352e-06 4.08347e-07 7.45176e-07 0.646 0.000201732 0 0 0 0 0 0 0 0 0 0 0 0 0 0 0 0 0 0 0 0 0 0 0 0 0 0 0 0 0 0 0 0 0 0 0 0 0 0 0 0 0 0
1.6623 1.15723e-06 4.07775e-07 7.49451e-07 0.647627 0.000184534 0 0 0 0 0 0 0 0 0 0 0 0 0 0 0 0 0 0 0 0 0 0 0 0 0 0 0 0 0 0 0 0 0 0 0 0 0 0 0 0 0 0
1.74763 1.16084e-06 4.07256e-07 7.53588e-07 0.649172 0.000169005 0 0 0 0 0 0 0 0 0 0 0 0 0 0 0 0 0 0 0 0 0 0 0 0 0 0 0 0 0 0 0 0 0 0 0 0 0 0 0 0 0 0
1.83733 1.16446e-06 4.06812e-07 7.57646e-07 0.650643 0.000154804 0 0 0 0 0 0 0 0 0 0 0 0 0 0 0 0 0 0 0 0 0 0 0 0 0 0 0 0 0 0 0 0 0 0 0 0 0 0 0 0 0 0
1.93164 1.16802e-06 4.06451e-07 7.61564e-07 0.652016 0.000141793 0 0 0 0 0 0 0 0 0 0 0 0 0 0 0 0 0 0 0 0 0 0 0 0 0 0 0 0 0 0 0 0 0 0 0 0 0 0 0 0 0 0
2.03079 1.17154e-06 4.06164e-07 7.65375e-07 0.653307 0.000129725 0 0 0 0 0 0 0 0 0 0 0 0 0 0 0 0 0 0 0 0 0 0 0 0 0 0 0 0 0 0 0 0 0 0 0 0 0 0 0 0 0 0
2.13503 1.17505e-06 4.05986e-07 7.6906e-07 0.654494 0.000118657 0 0 0 0 0 0 0 0 0 0 0 0 0 0 0 0 0 0 0 0 0 0 0 0 0 0 0 0 0 0 0 0 0 0 0 0 0 0 0 0 0 0
2.24463 1.17856e-06 4.0593e-07 7.72626e-07 0.65557 0.000108569 0 0 0 0 0 0 0 0 0 0 0 0 0 0 0 0 0 0 0 0 0 0 0 0 0 0 0 0 0 0 0 0 0 0 0 0 0 0 0 0 0 0
2.35984 1.18206e-06 4.05972e-07 7.76084e-07 0.656554 9.92926e-05 0 0 0 0 0 0 0 0 0 0 0 0 0 0 0 0 0 0 0 0 0 0 0 0 0 0 0 0 0 0 0 0 0 0 0 0 0 0 0 0 0 0
2.48097 1.18559e-06 4.06172e-07 7.79414e-07 0.657408 9.07218e-05 0 0 0 0 0 0 0 0 0 0 0 0 0 0 0 0 0 0 0 0 0 0 0 0 0 0 0 0 0 0 0 0 0 0 0 0 0 0 0 0 0 0
2.60832 1.1891e-06 4.06487e-07 7.82614e-07 0.658156 8.27967e-05 0 0 0 0 0 0 0 0 0 0 0 0 0 0 0 0 0 0 0 0 0 0 0 0 0 0 0 0 0 0 0 0 0 0 0 0 0 0 0 0 0 0
2.74221 1.1927e-06 4.06982e-07 7.85713e-07 0.658771 7.55862e-05 0 0 0 0 0 0 0 0 0 0 0 0 0 0 0 0 0 0 0 0 0 0 0 0 0 0 0 0 0 0 0 0 0 0 0 0 0 0 0 0 0 0
2.88297 1.19632e-06 4.07614e-07 7.88704e-07 0.659276 6.90729e-05 0 0 0 0 0 0 0 0 0 0 0 0 0 0 0 0 0 0 0 0 0 0 0 0 0 0 0 0 0 0 0 0 0 0 0 0 0 0 0 0 0 0
3.03095 1.20005e-06 4.08461e-07 7.91585e-07 0.659629 6.31538e-05 0 0 0 0 0 0 0 0 0 0 0 0 0 0 0 0 0 0 0 0 0 0 0 0 0 0 0 0 0 0 0 0 0 0 0 0 0 0 0 0 0 0
3.18653 1.2038e-06 4.09417e-07 7.94387e-07 0.659897 5.76567e-05 0 0 0 0 0 0 0 0 0 0 0 0 0 0 0 0 0 0 0 0 0 0 0 0 0 0 0 0 0 0 0 0 0 0 0 0 0 0 0 0 0 0
3.35009 1.20775e-06 4.10663e-07 7.97088e-07 0.659977 5.2603e-05 0 0 0 0 0 0 0 0 0 0 0 0 0 0 0 0 0 0 0 0 0 0 0 0 0 0 0 0 0 0 0 0 0 0 0 0 0 0 0 0 0 0
3.52205 1.21168e-06 4.12006e-07 7.99671e-07 0.659971 4.80102e-05 0 0 0 0 0 0 0 0 0 0 0 0 0 0 0 0 0 0 0 0 0 0 0 0 0 0 0 0 0 0 0 0 0 0 0 0 0 0 0 0 0 0
3.70284 1.21587e-06 4.13612e-07 8.02258e-07 0.659822 4.38066e-05 0 0 0 0 0 0 0 0 0 0 0 0 0 0 0 0 0 0 0 0 0 0 0 0 0 0 0 0 0 0 0 0 0 0 0 0 0 0 0 0 0 0
3.89291 1.22013e-06 4.15488e-07 8.04646e-07 0.659474 3.9926e-05 0 0 0 0 0 0 0 0 0 0 0 0 0 0 0 0 0 0 0 0 0 0 0 0 0 0 0 0 0 0 0 0 0 0 0 0 0 0 0 0 0 0
4.09273 1.22437e-06 4.17393e-07 8.06977e-07 0.659096 3.62643e-05 0 0 0 0 0 0 0 0 0 0 0 0 0 0 0 0 0 0 0 0 0 0 0 0 0 0 0 0 0 0 0 0 0 0 0 0 0 0 0 0 0 0
4.30281 1.2291e-06 4.19703e-07 8.09396e-07 0.658528 3.29535e-05 0 0 0 0 0 0 0 0 0 0 0 0 0 0 0 0 0 0 0 0 0 0 0 0 0 0 0 0 0 0 0 0 0 0 0 0 0 0 0 0 0 0
4.52368 1.23382e-06 4.2231e-07 8.11514e-07 0.657723 2.99416e-05 0 0 0 0 0 0 0 0 0 0 0 0 0 0 0 0 0 0 0 0 0 0 0 0 0 0 0 0 0 0 0 0 0 0 0 0 0 0 0 0 0 0
4.75588 1.2384e-06 4.24818e-07 8.13584e-07 0.656963 2.71796e-05 0 0 0 0 0 0 0 0 0 0 0 0 0 0 0 0 0 0 0 0 0 0 0 0 0 0 0 0 0 0 0 0 0 0 0 0 0 0 0 0 0 0
5 1.24363e-06 4.27717e-07 8.1591e-07 0.656073 2.45398e-05 0 0 0 0 0 0 0 0 0 0 0 0 0 0 0 0 0 0 0 0 0 0 0 0 0 0 0 0 0 0 0 0 0 0 0 0 0 0 0 0 0 0
5.25665 1.24927e-06 4.31213e-07 8.18052e-07 0.654826 2.21678e-05 0 0 0 0 0 0 0 0 0 0 0 0 0 0 0 0 0 0 0 0 0 0 0 0 0 0 0 0 0 0 0 0 0 0 0 0 0 0 0 0 0 0
5.52648 1.25432e-06 4.34636e-07 8.19688e-07 0.65349 2.00489e-05 0 0 0 0 0 0 0 0 0 0 0 0 0 0 0 0 0 0 0 0 0 0 0 0 0 0 0 0 0 0 0 0 0 0 0 0 0 0 0 0 0 0
5.81015 1.25938e-06 4.37818e-07 8.21558e-07 0.652353 1.8115e-05 0 0 0 0 0 0 0 0 0 0 0 0 0 0 0 0 0 0 0 0 0 0 0 0 0 0 0 0 0 0 0 0 0 0 0 0 0 0 0 0 0 0
6.10839 1.26556e-06 4.41359e-07 8.24199e-07 0.651253 1.63023e-05 0 0 0 0 0 0 0 0 0 0 0 0 0 0 0 0 0 0 0 0 0 0 0 0 0 0 0 0 0 0 0 0 0 0 0 0 0 0 0 0 0 0
6.42193 1.27274e-06 4.47573e-07 8.2517e-07 0.64834 1.48144e-05 0 0 0 0 0 0 0 0 0 0 0 0 0 0 0 0 0 0 0 0 0 0 0 0 0 0 0 0 0 0 0 0 0 0 0 0 0 0 0 0 0 0
6.75157 1.27877e-06 4.51707e-07 8.27063e-07 0.646765 1.32279e-05 0 0 0 0 0 0 0 0 0 0 0 0 0 0 0 0 0 0 0 0 0 0 0 0 0 0 0 0 0 0 0 0 0 0 0 0 0 0 0 0 0 0
7.09813 1.28376e-06 4.55795e-07 8.27968e-07 0.644954 1.18448e-05 0 0 0 0 0 0 0 0 0 0 0 0 0 0 0 0 0 0 0 0 0 0 0 0 0 0 0 0 0 0 0 0 0 0 0 0 0 0 0 0 0 0
7.46248 1.2895e-06 4.59834e-07 8.2967e-07 0.643403 1.05694e-05 0 0 0 0 0 0 0 0 0 0 0 0 0 0 0 0 0 0 0 0 0 0 0 0 0 0 0 0 0 0 0 0 0 0 0 0 0 0 0 0 0 0
7.84553 1.29744e-06 4.64935e-07 8.32508e-07 0.641653 9.34187e-06 0 0 0 0 0 0 0 0 0 0 0 0 0 0 0 0 0 0 0 0 0 0 0 0 0 0 0 0 0 0 0 0 0 0 0 0 0 0 0 0 0 0
8.24824 1.30668e-06 4.71434e-07 8.35242e-07 0.639211 8.19911e-06 0 0 0 0 0 0 0 0 0 0 0 0 0 0 0 0 0 0 0 0 0 0 0 0 0 0 0 0 0 0 0 0 0 0 0 0 0 0 0 0 0 0
8.67162 1.31485e-06 4.78412e-07 8.36434e-07 0.636146 7.20916e-06 0 0 0 0 0 0 0 0 0 0 0 0 0 0 0 0 0 0 0 0 0 0 0 0 0 0 0 0 0 0 0 0 0 0 0 0 0 0 0 0 0 0
9.11674 1.3204e-06 4.84609e-07 8.35788e-07 0.632982 6.32492e-06 0 0 0 0 0 0 0 0 0 0 0 0 0 0 0 0 0 0 0 0 0 0 0 0 0 0 0 0 0 0 0 0 0 0 0 0 0 0 0 0 0 0
9.5847 1.32417e-06 4.89613e-07 8.34562e-07 0.630251 5.52644e-06 0 0 0 0 0 0 0 0 0 0 0 0 0 0 0 0 0 0 0 0 0 0 0 0 0 0 0 0 0 0 0 0 0 0 0 0 0 0 0 0 0 0
10.0767 1.32871e-06 4.94151e-07 8.34557e-07 0.628096 4.78203e-06 0 0 0 0 0 0 0 0 0 0 0 0 0 0 0 0 0 0 0 0 0 0 0 0 0 0 0 0 0 0 0 0 0 0 1.4013e-45 0 4.2039e-45 0 1.26117e-44 0 3.08286e-44 0
10.5939 1.33692e-06 4.99812e-07 8.37103e-07 0.626145 4.06995e-06 0 0 0 0 0 0 0 0 0 0 0 0 0 0 0 0 0 0 0 0 0 0 0 0 0 0 2.8026e-45 0 9.80909e-45 0 3.36312e-44 0 1.05097e-43 0 3.08286e-43 0 8.3097e-43 0 2.09634e-42 0 4.97601e-42 0
11.1377 1.35043e-06 5.08642e-07 8.41785e-07 0.623347 3.40803e-06 0 0 0 0 0 0 0 0 0 0 0 0 0 0 0 0 0 0 0 0 4.2039e-45 0 2.38221e-44 0 1.09301e-43 0 4.45613e-43 0 1.62691e-42 0 5.23525e-42 0 1.56805e-41 0 4.38634e-41 0 1.12465e-40 0 2.71296e-40 0 6.17404e-40 0
11.7094 1.36045e-06 5.08818e-07 8.51629e-07 0.625992 2.82232e-06 0 0 0 0 0 0 0 0 0 0 0 0 0 0 1.4013e-45 0 1.4013e-44 0 1.13505e-43 0 7.09057e-43 0 3.65879e-42 0 1.59131e-41 0 6.04562e-41 0 2.07132e-40 0 6.29737e-40 0 1.78775e-39 0 4.75596e-39 0 1.16463e-38 0 2.69117e-38 0 5.88344e-38 0
12.3105 1.37567e-06 5.2456e-07 8.51113e-07 0.618688 2.20615e-06 0 0 0 0 0 0 0 0 0 0 0 0 1.4013e-44 0 2.24208e-43 0 2.26029e-42 0 1.68436e-41 0 9.57213e-41 0 4.55978e-40 0 1.8458e-39 0 6.56991e-39 0 2.11958e-38 0 6.10359e-38 0 1.64668e-37 0 4.17631e-37 0 9.78932e-37 0 2.17143e-36 0 4.56931e-36 0
12.9424 1.38195e-06 5.34429e-07 8.47525e-07 0.61328 1.60871e-06 0 0 0 0 0 0 0 0 1.4013e-45 0 9.80909e-44 0 2.33456e-42 0 3.13541e-41 0 2.81875e-40 0 1.90475e-39 0 9.94449e-39 0 4.38954e-38 0 1.65963e-37 0 5.55222e-37 0 1.69169e-36 0 4.62625e-36 0 1.18907e-35 0 2.88176e-35 0 6.47971e-35 0 1.38247e-34 0 2.80534e-34 0
13.6067 1.38191e-06 5.4253e-07 8.39385e-07 0.607407 1.1081e-06 0 0 0 0 0 0 1.4013e-45 0 3.13891e-43 0 1.40326e-41 0 2.86438e-40 0 3.38884e-39 0 2.73687e-38 0 1.6847e-37 0 8.11379e-37 0 3.33102e-36 0 1.18024e-35 0 3.72235e-35 0 1.07411e-34 0 2.79657e-34 0 6.86416e-34 0 1.59319e-33 0 3.44337e-33 0 7.07971e-33 0 1.38784e-32 0
14.3051 1.37815e-06 5.48923e-07 8.29223e-07 0.601694 6.74396e-07 0 0 0 0 0 0 3.25101e-43 0 4.18035e-41 0 1.5542e-39 0 2.73813e-38 0 2.87135e-37 0 2.09409e-36 0 1.17958e-35 0 5.26135e-35 0 2.01606e-34 0 6.71542e-34 0 2.00247e-33 0 5.48688e-33 0 1.36337e-32 0 3.20284e-32 0 7.13445e-32 0 1.48503e-31 0 2.9477e-31 0 5.59159e-31 0
15.0394 1.37299e-06 5.53246e-07 8.19741e-07 0.597049 2.84373e-07 0 0 0 0 4.2039e-44 0 4.257e-41 0 4.32219e-39 0 1.34688e-37 0 2.06274e-36 0 1.92861e-35 0 1.27651e-34 0 6.60849e-34 0 2.74011e-33 0 9.83309e-33 0 3.08848e-32 0 8.73114e-32 0 2.2775e-31 0 5.41309e-31 0 1.21971e-30 0 2.61277e-30 0 5.24724e-30 0 1.00726e-29 0 1.85191e-29 0
15.8114 1.3696e-06 5.55959e-07 8.13637e-07 0.594071 -8.11128e-08 0 0 0 0 5.94431e-42 0 4.33304e-39 0 3.51089e-37 0 9.24953e-36 0 1.23986e-34 0 1.03938e-33 0 6.27306e-33 0 2.99704e-32 0 1.15931e-31 0 3.90868e-31 0 1.16096e-30 0 3.11966e-30 0 7.76541e-30 0 1.76927e-29 0 3.83161e-29 0 7.90809e-29 0 1.53503e-28 0 2.8543e-28 0 5.09406e-28 0
16.623 1.37329e-06 5.59013e-07 8.14279e-07 0.592939 -4.4917e-07 0 0 5.60519e-45 0 6.58522e-40 0 3.4794e-37 0 2.2748e-35 0 5.10835e-34 0 6.03248e-33 0 4.55841e-32 0 2.52001e-31 0 1.11546e-30 0 4.03903e-30 0 1.28332e-29 0 3.61442e-29 0 9.25486e-29 0 2.20338e-28 0 4.82235e-28 0 1.00568e-27 0 2.00349e-27 0 3.76503e-27 0 6.79203e-27 0 1.17837e-26 0
