# 0.00023714 0 153 : grain size, compostion index, size index
# Heating and cooling timescale: 4.68788e-05 1.66457e+09
# Ratio of heating to cooling to determine stochastic cutoff: 100
# Equilibrium emission is recorded even for those grains in the stochastic regime.
# Emission spectrum was computed for: 
# Type: IRSF
# Scales: 0.25 0.5 1 1.5 2 2.5 3 3.5 4 4.5 5 5.5 6 6.5 7 7.5 8 8.5 9 9.5 10
# StochasticallyHeated: 0 0 0 0 0 0 0 0 0 0 0 0 0 0 0 0 0 0 0 0 0
# Temperature: -1
# Wavelength  CExt  CAbs  CSca  Albedo G EqEm1 StEm1 EqEm2 StEm2 EqEm3 StEm3 EqEm4 StEm4 EqEm5 StEm5 EqEm6 StEm6 EqEm7 StEm7 EqEm8 StEm8 EqEm9 StEm9 EqEm10 StEm10 EqEm11 StEm11 EqEm12 StEm12 EqEm13 StEm13 EqEm14 StEm14 EqEm15 StEm15 EqEm16 StEm16 EqEm17 StEm17 EqEm18 StEm18 EqEm19 StEm19 EqEm20 StEm20 EqEm21 StEm21
0.05 9.18125e-08 3.35975e-08 5.8215e-08 0.634064 0.00576547 0 0 0 0 0 0 0 0 0 0 0 0 0 0 0 0 0 0 0 0 0 0 0 0 0 0 0 0 0 0 0 0 0 0 0 0 0 0 0 0 0 0
0.0525665 1.0148e-07 3.71352e-08 6.43447e-08 0.634064 0.00637255 0 0 0 0 0 0 0 0 0 0 0 0 0 0 0 0 0 0 0 0 0 0 0 0 0 0 0 0 0 0 0 0 0 0 0 0 0 0 0 0 0 0
0.0552647 1.12165e-07 4.10453e-08 7.11199e-08 0.634064 0.00704355 0 0 0 0 0 0 0 0 0 0 0 0 0 0 0 0 0 0 0 0 0 0 0 0 0 0 0 0 0 0 0 0 0 0 0 0 0 0 0 0 0 0
0.0581015 1.23976e-07 4.53672e-08 7.86085e-08 0.634064 0.0077852 0 0 0 0 0 0 0 0 0 0 0 0 0 0 0 0 0 0 0 0 0 0 0 0 0 0 0 0 0 0 0 0 0 0 0 0 0 0 0 0 0 0
0.0610839 1.3703e-07 5.01441e-08 8.68856e-08 0.634064 0.00860494 0 0 0 0 0 0 0 0 0 0 0 0 0 0 0 0 0 0 0 0 0 0 0 0 0 0 0 0 0 0 0 0 0 0 0 0 0 0 0 0 0 0
0.0642193 1.51458e-07 5.54241e-08 9.60342e-08 0.634064 0.009511 0 0 0 0 0 0 0 0 0 0 0 0 0 0 0 0 0 0 0 0 0 0 0 0 0 0 0 0 0 0 0 0 0 0 0 0 0 0 0 0 0 0
0.0675157 1.67406e-07 6.126e-08 1.06146e-07 0.634064 0.0105125 0 0 0 0 0 0 0 0 0 0 0 0 0 0 0 0 0 0 0 0 0 0 0 0 0 0 0 0 0 0 0 0 0 0 0 0 0 0 0 0 0 0
0.0709813 1.85033e-07 6.77103e-08 1.17323e-07 0.634064 0.0116194 0 0 0 0 0 0 0 0 0 0 0 0 0 0 0 0 0 0 0 0 0 0 0 0 0 0 0 0 0 0 0 0 0 0 0 0 0 0 0 0 0 0
0.0746248 2.04516e-07 7.48399e-08 1.29676e-07 0.634064 0.0128428 0 0 0 0 0 0 0 0 0 0 0 0 0 0 0 0 0 0 0 0 0 0 0 0 0 0 0 0 0 0 0 0 0 0 0 0 0 0 0 0 0 0
0.0784553 2.26051e-07 8.27202e-08 1.43331e-07 0.634064 0.0141951 0 0 0 0 0 0 0 0 0 0 0 0 0 0 0 0 0 0 0 0 0 0 0 0 0 0 0 0 0 0 0 0 0 0 0 0 0 0 0 0 0 0
0.0824824 2.49853e-07 9.14302e-08 1.58423e-07 0.634064 0.0156898 0 0 0 0 0 0 0 0 0 0 0 0 0 0 0 0 0 0 0 0 0 0 0 0 0 0 0 0 0 0 0 0 0 0 0 0 0 0 0 0 0 0
0.0867162 2.76161e-07 1.01057e-07 1.75104e-07 0.634064 0.0173419 0 0 0 0 0 0 0 0 0 0 0 0 0 0 0 0 0 0 0 0 0 0 0 0 0 0 0 0 0 0 0 0 0 0 0 0 0 0 0 0 0 0
0.0911674 3.0524e-07 1.11698e-07 1.93541e-07 0.634064 0.0191679 0 0 0 0 0 0 0 0 0 0 0 0 0 0 0 0 0 0 0 0 0 0 0 0 0 0 0 0 0 0 0 0 0 0 0 0 0 0 0 0 0 0
0.095847 3.3738e-07 1.2346e-07 2.1392e-07 0.634064 0.0211862 0 0 0 0 0 0 0 0 0 0 0 0 0 0 0 0 0 0 0 0 0 0 0 0 0 0 0 0 0 0 0 0 0 0 0 0 0 0 0 0 0 0
0.100767 3.67232e-07 1.35453e-07 2.31779e-07 0.631152 0.0235692 0 0 0 0 0 0 0 0 0 0 0 0 0 0 0 0 0 0 0 0 0 0 0 0 0 0 0 0 0 0 0 0 0 0 0 0 0 0 0 0 0 0
0.105939 3.67218e-07 1.41419e-07 2.258e-07 0.614892 0.0256046 0 0 0 0 0 0 0 0 0 0 0 0 0 0 0 0 0 0 0 0 0 0 0 0 0 0 0 0 0 0 0 0 0 0 0 0 0 0 0 0 0 0
0.111377 3.67531e-07 1.42792e-07 2.24739e-07 0.611482 0.0289403 0 0 0 0 0 0 0 0 0 0 0 0 0 0 0 0 0 0 0 0 0 0 0 0 0 0 0 0 0 0 0 0 0 0 0 0 0 0 0 0 0 0
0.117094 3.6752e-07 1.47799e-07 2.19721e-07 0.597848 0.0274507 0 0 0 0 0 0 0 0 0 0 0 0 0 0 0 0 0 0 0 0 0 0 0 0 0 0 0 0 0 0 0 0 0 0 0 0 0 0 0 0 0 0
0.123105 3.67678e-07 1.53565e-07 2.14113e-07 0.582338 0.0236555 0 0 0 0 0 0 0 0 0 0 0 0 0 0 0 0 0 0 0 0 0 0 0 0 0 0 0 0 0 0 0 0 0 0 0 0 0 0 0 0 0 0
0.129424 3.68003e-07 1.57966e-07 2.10037e-07 0.570748 0.0199126 0 0 0 0 0 0 0 0 0 0 0 0 0 0 0 0 0 0 0 0 0 0 0 0 0 0 0 0 0 0 0 0 0 0 0 0 0 0 0 0 0 0
0.136067 3.68365e-07 1.61441e-07 2.06925e-07 0.561737 0.0168557 0 0 0 0 0 0 0 0 0 0 0 0 0 0 0 0 0 0 0 0 0 0 0 0 0 0 0 0 0 0 0 0 0 0 0 0 0 0 0 0 0 0
0.143051 3.68702e-07 1.64351e-07 2.04351e-07 0.554244 0.0143876 0 0 0 0 0 0 0 0 0 0 0 0 0 0 0 0 0 0 0 0 0 0 0 0 0 0 0 0 0 0 0 0 0 0 0 0 0 0 0 0 0 0
0.150394 3.68933e-07 1.66725e-07 2.02208e-07 0.548089 0.0122986 0 0 0 0 0 0 0 0 0 0 0 0 0 0 0 0 0 0 0 0 0 0 0 0 0 0 0 0 0 0 0 0 0 0 0 0 0 0 0 0 0 0
0.158114 3.68954e-07 1.68248e-07 2.00706e-07 0.543987 0.01055 0 0 0 0 0 0 0 0 0 0 0 0 0 0 0 0 0 0 0 0 0 0 0 0 0 0 0 0 0 0 0 0 0 0 0 0 0 0 0 0 0 0
0.16623 3.68778e-07 1.68153e-07 2.00625e-07 0.544026 0.00908216 0 0 0 0 0 0 0 0 0 0 0 0 0 0 0 0 0 0 0 0 0 0 0 0 0 0 0 0 0 0 0 0 0 0 0 0 0 0 0 0 0 0
0.174762 3.68686e-07 1.65716e-07 2.0297e-07 0.550523 0.00782097 0 0 0 0 0 0 0 0 0 0 0 0 0 0 0 0 0 0 0 0 0 0 0 0 0 0 0 0 0 0 0 0 0 0 0 0 0 0 0 0 0 0
0.183733 3.69102e-07 1.60182e-07 2.0892e-07 0.566023 0.00667218 0 0 0 0 0 0 0 0 0 0 0 0 0 0 0 0 0 0 0 0 0 0 0 0 0 0 0 0 0 0 0 0 0 0 0 0 0 0 0 0 0 0
0.193164 3.70442e-07 1.50801e-07 2.19641e-07 0.592916 0.00556038 0 0 0 0 0 0 0 0 0 0 0 0 0 0 0 0 0 0 0 0 0 0 0 0 0 0 0 0 0 0 0 0 0 0 0 0 0 0 0 0 0 0
0.203079 3.72562e-07 1.39329e-07 2.33232e-07 0.626023 0.00446034 0 0 0 0 0 0 0 0 0 0 0 0 0 0 0 0 0 0 0 0 0 0 0 0 0 0 0 0 0 0 0 0 0 0 0 0 0 0 0 0 0 0
0.213503 3.75147e-07 1.28983e-07 2.46165e-07 0.656181 0.00342932 0 0 0 0 0 0 0 0 0 0 0 0 0 0 0 0 0 0 0 0 0 0 0 0 0 0 0 0 0 0 0 0 0 0 0 0 0 0 0 0 0 0
0.224463 3.77973e-07 1.21986e-07 2.55987e-07 0.677263 0.00254317 0 0 0 0 0 0 0 0 0 0 0 0 0 0 0 0 0 0 0 0 0 0 0 0 0 0 0 0 0 0 0 0 0 0 0 0 0 0 0 0 0 0
0.235984 3.80788e-07 1.18706e-07 2.62081e-07 0.688261 0.00182186 0 0 0 0 0 0 0 0 0 0 0 0 0 0 0 0 0 0 0 0 0 0 0 0 0 0 0 0 0 0 0 0 0 0 0 0 0 0 0 0 0 0
0.248097 3.83128e-07 1.18416e-07 2.64712e-07 0.690923 0.00138916 0 0 0 0 0 0 0 0 0 0 0 0 0 0 0 0 0 0 0 0 0 0 0 0 0 0 0 0 0 0 0 0 0 0 0 0 0 0 0 0 0 0
0.260832 3.84282e-07 1.20556e-07 2.63725e-07 0.686281 0.00141961 0 0 0 0 0 0 0 0 0 0 0 0 0 0 0 0 0 0 0 0 0 0 0 0 0 0 0 0 0 0 0 0 0 0 0 0 0 0 0 0 0 0
0.274221 3.83947e-07 1.24764e-07 2.59183e-07 0.675049 0.00187131 0 0 0 0 0 0 0 0 0 0 0 0 0 0 0 0 0 0 0 0 0 0 0 0 0 0 0 0 0 0 0 0 0 0 0 0 0 0 0 0 0 0
0.288297 3.82939e-07 1.30379e-07 2.5256e-07 0.65953 0.00251556 0 0 0 0 0 0 0 0 0 0 0 0 0 0 0 0 0 0 0 0 0 0 0 0 0 0 0 0 0 0 0 0 0 0 0 0 0 0 0 0 0 0
0.303095 3.82332e-07 1.36104e-07 2.46228e-07 0.644017 0.0028362 0 0 0 0 0 0 0 0 0 0 0 0 0 0 0 0 0 0 0 0 0 0 0 0 0 0 0 0 0 0 0 0 0 0 0 0 0 0 0 0 0 0
0.318653 3.82358e-07 1.40933e-07 2.41425e-07 0.63141 0.00297223 0 0 0 0 0 0 0 0 0 0 0 0 0 0 0 0 0 0 0 0 0 0 0 0 0 0 0 0 0 0 0 0 0 0 0 0 0 0 0 0 0 0
0.335009 3.82852e-07 1.44586e-07 2.38266e-07 0.622345 0.00293231 0 0 0 0 0 0 0 0 0 0 0 0 0 0 0 0 0 0 0 0 0 0 0 0 0 0 0 0 0 0 0 0 0 0 0 0 0 0 0 0 0 0
0.352205 3.83631e-07 1.47156e-07 2.36475e-07 0.616414 0.00278811 0 0 0 0 0 0 0 0 0 0 0 0 0 0 0 0 0 0 0 0 0 0 0 0 0 0 0 0 0 0 0 0 0 0 0 0 0 0 0 0 0 0
0.370284 3.84567e-07 1.48857e-07 2.3571e-07 0.612924 0.00261033 0 0 0 0 0 0 0 0 0 0 0 0 0 0 0 0 0 0 0 0 0 0 0 0 0 0 0 0 0 0 0 0 0 0 0 0 0 0 0 0 0 0
0.389291 3.85615e-07 1.49926e-07 2.35689e-07 0.611204 0.00243645 0 0 0 0 0 0 0 0 0 0 0 0 0 0 0 0 0 0 0 0 0 0 0 0 0 0 0 0 0 0 0 0 0 0 0 0 0 0 0 0 0 0
0.409273 3.86716e-07 1.50608e-07 2.36108e-07 0.610547 0.00226652 0 0 0 0 0 0 0 0 0 0 0 0 0 0 0 0 0 0 0 0 0 0 0 0 0 0 0 0 0 0 0 0 0 0 0 0 0 0 0 0 0 0
0.430281 3.87832e-07 1.51111e-07 2.36721e-07 0.61037 0.00210471 0 0 0 0 0 0 0 0 0 0 0 0 0 0 0 0 0 0 0 0 0 0 0 0 0 0 0 0 0 0 0 0 0 0 0 0 0 0 0 0 0 0
0.452368 3.88952e-07 1.51567e-07 2.37385e-07 0.61032 0.00193723 0 0 0 0 0 0 0 0 0 0 0 0 0 0 0 0 0 0 0 0 0 0 0 0 0 0 0 0 0 0 0 0 0 0 0 0 0 0 0 0 0 0
0.475588 3.90091e-07 1.52063e-07 2.38028e-07 0.610186 0.00177642 0 0 0 0 0 0 0 0 0 0 0 0 0 0 0 0 0 0 0 0 0 0 0 0 0 0 0 0 0 0 0 0 0 0 0 0 0 0 0 0 0 0
0.5 3.91242e-07 1.52623e-07 2.38618e-07 0.6099 0.00162159 0 0 0 0 0 0 0 0 0 0 0 0 0 0 0 0 0 0 0 0 0 0 0 0 0 0 0 0 0 0 0 0 0 0 0 0 0 0 0 0 0 0
0.525665 3.92416e-07 1.53232e-07 2.39183e-07 0.609515 0.0014751 0 0 0 0 0 0 0 0 0 0 0 0 0 0 0 0 0 0 0 0 0 0 0 0 0 0 0 0 0 0 0 0 0 0 0 0 0 0 0 0 0 0
0.552648 3.9364e-07 1.53881e-07 2.39759e-07 0.609082 0.00134175 0 0 0 0 0 0 0 0 0 0 0 0 0 0 0 0 0 0 0 0 0 0 0 0 0 0 0 0 0 0 0 0 0 0 0 0 0 0 0 0 0 0
0.581015 3.9491e-07 1.54535e-07 2.40375e-07 0.608683 0.00121775 0 0 0 0 0 0 0 0 0 0 0 0 0 0 0 0 0 0 0 0 0 0 0 0 0 0 0 0 0 0 0 0 0 0 0 0 0 0 0 0 0 0
0.610839 3.96252e-07 1.55176e-07 2.41076e-07 0.608391 0.00110516 0 0 0 0 0 0 0 0 0 0 0 0 0 0 0 0 0 0 0 0 0 0 0 0 0 0 0 0 0 0 0 0 0 0 0 0 0 0 0 0 0 0
0.642193 3.97642e-07 1.55774e-07 2.41868e-07 0.608256 0.00100302 0 0 0 0 0 0 0 0 0 0 0 0 0 0 0 0 0 0 0 0 0 0 0 0 0 0 0 0 0 0 0 0 0 0 0 0 0 0 0 0 0 0
0.675157 3.99103e-07 1.56316e-07 2.42787e-07 0.608331 0.000910957 0 0 0 0 0 0 0 0 0 0 0 0 0 0 0 0 0 0 0 0 0 0 0 0 0 0 0 0 0 0 0 0 0 0 0 0 0 0 0 0 0 0
0.709813 4.00642e-07 1.56807e-07 2.43835e-07 0.608611 0.00082817 0 0 0 0 0 0 0 0 0 0 0 0 0 0 0 0 0 0 0 0 0 0 0 0 0 0 0 0 0 0 0 0 0 0 0 0 0 0 0 0 0 0
0.746248 4.02215e-07 1.57221e-07 2.44995e-07 0.609113 0.000754183 0 0 0 0 0 0 0 0 0 0 0 0 0 0 0 0 0 0 0 0 0 0 0 0 0 0 0 0 0 0 0 0 0 0 0 0 0 0 0 0 0 0
0.784553 4.03851e-07 1.57574e-07 2.46277e-07 0.609822 0.000686995 0 0 0 0 0 0 0 0 0 0 0 0 0 0 0 0 0 0 0 0 0 0 0 0 0 0 0 0 0 0 0 0 0 0 0 0 0 0 0 0 0 0
0.824824 4.0553e-07 1.5786e-07 2.4767e-07 0.610733 0.000626788 0 0 0 0 0 0 0 0 0 0 0 0 0 0 0 0 0 0 0 0 0 0 0 0 0 0 0 0 0 0 0 0 0 0 0 0 0 0 0 0 0 0
0.867162 4.07246e-07 1.58085e-07 2.49161e-07 0.611819 0.000572518 0 0 0 0 0 0 0 0 0 0 0 0 0 0 0 0 0 0 0 0 0 0 0 0 0 0 0 0 0 0 0 0 0 0 0 0 0 0 0 0 0 0
0.911674 4.09002e-07 1.58263e-07 2.50739e-07 0.613051 0.000523427 0 0 0 0 0 0 0 0 0 0 0 0 0 0 0 0 0 0 0 0 0 0 0 0 0 0 0 0 0 0 0 0 0 0 0 0 0 0 0 0 0 0
0.95847 4.10775e-07 1.58391e-07 2.52384e-07 0.614409 0.00047944 0 0 0 0 0 0 0 0 0 0 0 0 0 0 0 0 0 0 0 0 0 0 0 0 0 0 0 0 0 0 0 0 0 0 0 0 0 0 0 0 0 0
1.00767 4.12569e-07 1.5848e-07 2.54089e-07 0.615871 0.0004395 0 0 0 0 0 0 0 0 0 0 0 0 0 0 0 0 0 0 0 0 0 0 0 0 0 0 0 0 0 0 0 0 0 0 0 0 0 0 0 0 0 0
1.05939 4.14372e-07 1.5854e-07 2.55833e-07 0.617398 0.000403275 0 0 0 0 0 0 0 0 0 0 0 0 0 0 0 0 0 0 0 0 0 0 0 0 0 0 0 0 0 0 0 0 0 0 0 0 0 0 0 0 0 0
1.11377 4.1616e-07 1.5856e-07 2.57601e-07 0.618993 0.000370298 0 0 0 0 0 0 0 0 0 0 0 0 0 0 0 0 0 0 0 0 0 0 0 0 0 0 0 0 0 0 0 0 0 0 0 0 0 0 0 0 0 0
1.17094 4.17953e-07 1.5857e-07 2.59383e-07 0.620603 0.000339515 0 0 0 0 0 0 0 0 0 0 0 0 0 0 0 0 0 0 0 0 0 0 0 0 0 0 0 0 0 0 0 0 0 0 0 0 0 0 0 0 0 0
1.23105 4.19727e-07 1.5856e-07 2.61167e-07 0.622231 0.000311294 0 0 0 0 0 0 0 0 0 0 0 0 0 0 0 0 0 0 0 0 0 0 0 0 0 0 0 0 0 0 0 0 0 0 0 0 0 0 0 0 0 0
1.29424 4.21491e-07 1.58542e-07 2.62949e-07 0.623855 0.000285362 0 0 0 0 0 0 0 0 0 0 0 0 0 0 0 0 0 0 0 0 0 0 0 0 0 0 0 0 0 0 0 0 0 0 0 0 0 0 0 0 0 0
1.36067 4.23218e-07 1.58522e-07 2.64696e-07 0.625436 0.000261742 0 0 0 0 0 0 0 0 0 0 0 0 0 0 0 0 0 0 0 0 0 0 0 0 0 0 0 0 0 0 0 0 0 0 0 0 0 0 0 0 0 0
1.43051 4.24943e-07 1.585e-07 2.66443e-07 0.627009 0.000240209 0 0 0 0 0 0 0 0 0 0 0 0 0 0 0 0 0 0 0 0 0 0 0 0 0 0 0 0 0 0 0 0 0 0 0 0 0 0 0 0 0 0
1.50394 4.26643e-07 1.5849e-07 2.68153e-07 0.628518 0.000220279 0 0 0 0 0 0 0 0 0 0 0 0 0 0 0 0 0 0 0 0 0 0 0 0 0 0 0 0 0 0 0 0 0 0 0 0 0 0 0 0 0 0
1.58114 4.28304e-07 1.58487e-07 2.69817e-07 0.629967 0.000201732 0 0 0 0 0 0 0 0 0 0 0 0 0 0 0 0 0 0 0 0 0 0 0 0 0 0 0 0 0 0 0 0 0 0 0 0 0 0 0 0 0 0
1.6623 4.29946e-07 1.585e-07 2.71446e-07 0.631349 0.000184534 0 0 0 0 0 0 0 0 0 0 0 0 0 0 0 0 0 0 0 0 0 0 0 0 0 0 0 0 0 0 0 0 0 0 0 0 0 0 0 0 0 0
1.74763 4.31594e-07 1.58542e-07 2.73051e-07 0.632658 0.000169005 0 0 0 0 0 0 0 0 0 0 0 0 0 0 0 0 0 0 0 0 0 0 0 0 0 0 0 0 0 0 0 0 0 0 0 0 0 0 0 0 0 0
1.83733 4.33197e-07 1.58612e-07 2.74585e-07 0.633858 0.000154804 0 0 0 0 0 0 0 0 0 0 0 0 0 0 0 0 0 0 0 0 0 0 0 0 0 0 0 0 0 0 0 0 0 0 0 0 0 0 0 0 0 0
1.93164 4.34803e-07 1.58706e-07 2.76096e-07 0.634992 0.000141793 0 0 0 0 0 0 0 0 0 0 0 0 0 0 0 0 0 0 0 0 0 0 0 0 0 0 0 0 0 0 0 0 0 0 0 0 0 0 0 0 0 0
2.03079 4.36419e-07 1.5887e-07 2.77549e-07 0.635968 0.000129725 0 0 0 0 0 0 0 0 0 0 0 0 0 0 0 0 0 0 0 0 0 0 0 0 0 0 0 0 0 0 0 0 0 0 0 0 0 0 0 0 0 0
2.13503 4.37985e-07 1.59044e-07 2.78941e-07 0.636874 0.000118657 0 0 0 0 0 0 0 0 0 0 0 0 0 0 0 0 0 0 0 0 0 0 0 0 0 0 0 0 0 0 0 0 0 0 0 0 0 0 0 0 0 0
2.24463 4.39621e-07 1.59305e-07 2.80316e-07 0.63763 0.000108569 0 0 0 0 0 0 0 0 0 0 0 0 0 0 0 0 0 0 0 0 0 0 0 0 0 0 0 0 0 0 0 0 0 0 0 0 0 0 0 0 0 0
2.35984 4.41208e-07 1.59613e-07 2.81596e-07 0.638238 9.92926e-05 0 0 0 0 0 0 0 0 0 0 0 0 0 0 0 0 0 0 0 0 0 0 0 0 0 0 0 0 0 0 0 0 0 0 0 0 0 0 0 0 0 0
2.48097 4.42793e-07 1.59933e-07 2.82859e-07 0.638807 9.07218e-05 0 0 0 0 0 0 0 0 0 0 0 0 0 0 0 0 0 0 0 0 0 0 0 0 0 0 0 0 0 0 0 0 0 0 0 0 0 0 0 0 0 0
2.60832 4.44516e-07 1.60407e-07 2.84108e-07 0.639142 8.27967e-05 0 0 0 0 0 0 0 0 0 0 0 0 0 0 0 0 0 0 0 0 0 0 0 0 0 0 0 0 0 0 0 0 0 0 0 0 0 0 0 0 0 0
2.74221 4.4615e-07 1.60939e-07 2.85211e-07 0.639272 7.55862e-05 0 0 0 0 0 0 0 0 0 0 0 0 0 0 0 0 0 0 0 0 0 0 0 0 0 0 0 0 0 0 0 0 0 0 0 0 0 0 0 0 0 0
2.88297 4.47735e-07 1.61427e-07 2.86307e-07 0.639457 6.90729e-05 0 0 0 0 0 0 0 0 0 0 0 0 0 0 0 0 0 0 0 0 0 0 0 0 0 0 0 0 0 0 0 0 0 0 0 0 0 0 0 0 0 0
3.03095 4.49581e-07 1.62108e-07 2.87472e-07 0.639423 6.31538e-05 0 0 0 0 0 0 0 0 0 0 0 0 0 0 0 0 0 0 0 0 0 0 0 0 0 0 0 0 0 0 0 0 0 0 0 0 0 0 0 0 0 0
3.18653 4.51464e-07 1.62983e-07 2.88481e-07 0.63899 5.76567e-05 0 0 0 0 0 0 0 0 0 0 0 0 0 0 0 0 0 0 0 0 0 0 0 0 0 0 0 0 0 0 0 0 0 0 0 0 0 0 0 0 0 0
3.35009 4.53085e-07 1.63779e-07 2.89306e-07 0.638524 5.2603e-05 0 0 0 0 0 0 0 0 0 0 0 0 0 0 0 0 0 0 0 0 0 0 0 0 0 0 0 0 0 0 0 0 0 0 0 0 0 0 0 0 0 0
3.52205 4.54784e-07 1.64529e-07 2.90255e-07 0.638225 4.80102e-05 0 0 0 0 0 0 0 0 0 0 0 0 0 0 0 0 0 0 0 0 0 0 0 0 0 0 0 0 0 0 0 0 0 0 0 0 0 0 0 0 0 0
3.70284 4.56935e-07 1.6559e-07 2.91345e-07 0.637606 4.38066e-05 0 0 0 0 0 0 0 0 0 0 0 0 0 0 0 0 0 0 0 0 0 0 0 0 0 0 0 0 0 0 0 0 0 0 0 0 0 0 0 0 0 0
3.89291 4.5923e-07 1.66971e-07 2.9226e-07 0.636412 3.9926e-05 0 0 0 0 0 0 0 0 0 0 0 0 0 0 0 0 0 0 0 0 0 0 0 0 0 0 0 0 0 0 0 0 0 0 0 0 0 0 0 0 0 0
4.09273 4.6106e-07 1.68277e-07 2.92783e-07 0.635021 3.62643e-05 0 0 0 0 0 0 0 0 0 0 0 0 0 0 0 0 0 0 0 0 0 0 0 0 0 0 0 0 0 0 0 0 0 0 0 0 0 0 0 0 0 0
4.30281 4.62576e-07 1.69327e-07 2.93249e-07 0.633947 3.29535e-05 0 0 0 0 0 0 0 0 0 0 0 0 0 0 0 0 0 0 0 0 0 0 0 0 0 0 0 0 0 0 0 0 0 0 0 0 0 0 0 0 0 0
4.52368 4.64534e-07 1.70445e-07 2.94088e-07 0.633083 2.99416e-05 0 0 0 0 0 0 0 0 0 0 0 0 0 0 0 0 0 0 0 0 0 0 0 0 0 0 0 0 0 0 0 0 0 0 0 0 0 0 0 0 0 0
4.75588 4.67307e-07 1.72061e-07 2.95245e-07 0.631802 2.71796e-05 0 0 0 0 0 0 0 0 0 0 0 0 0 0 0 0 0 0 0 0 0 0 0 0 0 0 0 0 0 0 0 0 0 0 0 0 0 0 0 0 0 0
5 4.70373e-07 1.74185e-07 2.96188e-07 0.629687 2.45398e-05 0 0 0 0 0 0 0 0 0 0 0 0 0 0 0 0 0 0 0 0 0 0 0 0 0 0 0 0 0 0 0 0 0 0 0 0 0 0 0 0 0 0
5.25665 4.72802e-07 1.76361e-07 2.96441e-07 0.626988 2.21678e-05 0 0 0 0 0 0 0 0 0 0 0 0 0 0 0 0 0 0 0 0 0 0 0 0 0 0 0 0 0 0 0 0 0 0 0 0 0 0 0 0 0 0
5.52648 4.7423e-07 1.78127e-07 2.96103e-07 0.624387 2.00489e-05 0 0 0 0 0 0 0 0 0 0 0 0 0 0 0 0 0 0 0 0 0 0 0 0 0 0 0 0 0 0 0 0 0 0 0 0 0 0 0 0 0 0
5.81015 4.75238e-07 1.79423e-07 2.95815e-07 0.622456 1.8115e-05 0 0 0 0 0 0 0 0 0 0 0 0 0 0 0 0 0 0 0 0 0 0 0 0 0 0 0 0 0 0 0 0 0 0 0 0 0 0 0 0 0 0
6.10839 4.76919e-07 1.80585e-07 2.96334e-07 0.62135 1.63023e-05 0 0 0 0 0 0 0 0 0 0 0 0 0 0 0 0 0 0 0 0 0 0 0 0 0 0 0 0 0 0 0 0 0 0 0 0 0 0 0 0 0 0
6.42193 4.80285e-07 1.83083e-07 2.97202e-07 0.618803 1.48144e-05 0 0 0 0 0 0 0 0 0 0 0 0 0 0 0 0 0 0 0 0 0 0 0 0 0 0 0 0 0 0 0 0 0 0 0 0 0 0 0 0 0 0
6.75157 4.8468e-07 1.85498e-07 2.99182e-07 0.617278 1.32279e-05 0 0 0 0 0 0 0 0 0 0 0 0 0 0 0 0 0 0 0 0 0 0 0 0 0 0 0 0 0 0 0 0 0 0 0 0 0 0 0 0 0 0
7.09813 4.89213e-07 1.88874e-07 3.00339e-07 0.613923 1.18448e-05 0 0 0 0 0 0 0 0 0 0 0 0 0 0 0 0 0 0 0 0 0 0 0 0 0 0 0 0 0 0 0 0 0 0 0 0 0 0 0 0 0 0
7.46248 4.92542e-07 1.92487e-07 3.00055e-07 0.609197 1.05694e-05 0 0 0 0 0 0 0 0 0 0 0 0 0 0 0 0 0 0 0 0 0 0 0 0 0 0 0 0 0 0 0 0 0 0 0 0 0 0 0 0 0 0
7.84553 4.93923e-07 1.95807e-07 2.98115e-07 0.603567 9.34187e-06 0 0 0 0 0 0 0 0 0 0 0 0 0 0 0 0 0 0 0 0 0 0 0 0 0 0 0 0 0 0 0 0 0 0 0 0 0 0 0 0 0 0
8.24824 4.935e-07 1.98494e-07 2.95006e-07 0.597783 8.19911e-06 0 0 0 0 0 0 0 0 0 0 0 0 0 0 0 0 0 0 0 0 0 0 0 0 0 0 0 0 0 0 0 0 1.4013e-45 0 2.8026e-45 0 8.40779e-45 0 2.24208e-44 0 5.46506e-44 0
8.67162 4.91875e-07 2.00324e-07 2.91551e-07 0.592734 7.20916e-06 0 0 0 0 0 0 0 0 0 0 0 0 0 0 0 0 0 0 0 0 0 0 0 0 1.4013e-45 0 4.2039e-45 0 1.4013e-44 0 5.1848e-44 0 1.68156e-43 0 4.93257e-43 0 1.38588e-42 0 3.54388e-42 0 8.59837e-42 0
9.11674 4.90052e-07 2.01348e-07 2.88705e-07 0.58913 6.32492e-06 0 0 0 0 0 0 0 0 0 0 0 0 0 0 0 0 0 0 1.4013e-45 0 5.60519e-45 0 3.22299e-44 0 1.54143e-43 0 6.44597e-43 0 2.39482e-42 0 7.97759e-42 0 2.44344e-41 0 6.78775e-41 0 1.8147e-40 0 4.43484e-40 0 1.03026e-39 0
9.5847 4.89758e-07 2.02123e-07 2.87635e-07 0.5873 5.52644e-06 0 0 0 0 0 0 0 0 0 0 0 0 0 0 1.4013e-45 0 1.68156e-44 0 1.44334e-43 0 9.40271e-43 0 5.08111e-42 0 2.22498e-41 0 8.65526e-41 0 3.01485e-40 0 9.46786e-40 0 2.74559e-39 0 7.25608e-39 0 1.84896e-38 0 4.32569e-38 0 9.64382e-38 0
10.0767 4.93167e-07 2.03468e-07 2.89699e-07 0.587425 4.78203e-06 0 0 0 0 0 0 0 0 0 0 0 0 1.68156e-44 0 2.56438e-43 0 2.74654e-42 0 2.06579e-41 0 1.22723e-40 0 6.10837e-40 0 2.48845e-39 0 9.05919e-39 0 2.969e-38 0 8.81721e-38 0 2.4274e-37 0 6.11786e-37 0 1.48933e-36 0 3.3427e-36 0 7.16623e-36 0
10.5939 5.01274e-07 2.05882e-07 2.95391e-07 0.589282 4.06995e-06 0 0 0 0 0 0 0 0 1.4013e-45 0 1.02295e-43 0 2.56718e-42 0 3.55159e-41 0 3.3788e-40 0 2.30329e-39 0 1.2543e-38 0 5.7726e-38 0 2.1958e-37 0 7.50506e-37 0 2.32116e-36 0 6.53652e-36 0 1.7127e-35 0 4.12611e-35 0 9.61763e-35 0 2.07506e-34 0 4.28601e-34 0
11.1377 5.12969e-07 2.09651e-07 3.03318e-07 0.591299 3.40803e-06 0 0 0 0 0 0 1.4013e-45 0 3.08286e-43 0 1.47417e-41 0 3.15249e-40 0 3.83614e-39 0 3.26936e-38 0 2.02931e-37 0 1.01734e-36 0 4.34577e-36 0 1.54867e-35 0 4.98495e-35 0 1.45905e-34 0 3.90624e-34 0 9.76494e-34 0 2.25364e-33 0 5.04043e-33 0 1.04743e-32 0 2.08817e-32 0
11.7094 5.20986e-07 2.10646e-07 3.1034e-07 0.595679 2.82232e-06 0 0 0 0 0 0 2.85865e-43 0 4.09179e-41 0 1.62154e-39 0 2.98593e-38 0 3.21614e-37 0 2.4687e-36 0 1.40166e-35 0 6.49498e-35 0 2.58458e-34 0 8.65638e-34 0 2.63178e-33 0 7.30952e-33 0 1.86507e-32 0 4.45839e-32 0 9.87776e-32 0 2.1241e-31 0 4.25914e-31 0 8.20984e-31 0
12.3105 5.30352e-07 2.17625e-07 3.12727e-07 0.58966 2.20615e-06 0 0 0 0 3.50325e-44 0 3.87543e-41 0 4.35042e-39 0 1.44053e-37 0 2.30093e-36 0 2.20678e-35 0 1.53348e-34 0 7.9989e-34 0 3.43915e-33 0 1.27932e-32 0 4.03919e-32 0 1.16314e-31 0 3.07333e-31 0 7.49122e-31 0 1.71616e-30 0 3.65738e-30 0 7.57618e-30 0 1.46841e-29 0 2.74122e-29 0
12.9424 5.3074e-07 2.23046e-07 3.07694e-07 0.579746 1.60871e-06 0 0 0 0 5.0671e-42 0 4.05514e-39 0 3.61505e-37 0 1.009e-35 0 1.40773e-34 0 1.20903e-33 0 7.64277e-33 0 3.67772e-32 0 1.47256e-31 0 5.13742e-31 0 1.5335e-30 0 4.19365e-30 0 1.05674e-29 0 2.46615e-29 0 5.42559e-29 0 1.11434e-28 0 2.22769e-28 0 4.18041e-28 0 7.56971e-28 0
13.6067 5.23262e-07 2.27777e-07 2.95486e-07 0.564699 1.1081e-06 0 0 4.2039e-45 0 5.77108e-40 0 3.33212e-37 0 2.38571e-35 0 5.65987e-34 0 6.94304e-33 0 5.3687e-32 0 3.10158e-31 0 1.38229e-30 0 5.17221e-30 0 1.69766e-29 0 4.80398e-29 0 1.25077e-28 0 3.01271e-28 0 6.7459e-28 0 1.42807e-27 0 2.83176e-27 0 5.47277e-27 0 9.95919e-27 0 1.75184e-26 0
14.3051 5.10099e-07 2.31845e-07 2.78254e-07 0.54549 6.74396e-07 0 0 6.02558e-43 0 5.14073e-38 0 2.17602e-35 0 1.26472e-33 0 2.57065e-32 0 2.79016e-31 0 1.95244e-30 0 1.03538e-29 0 4.28972e-29 0 1.50497e-28 0 4.66124e-28 0 1.2537e-27 0 3.11517e-27 0 7.18821e-27 0 1.54743e-26 0 3.15803e-26 0 6.05632e-26 0 1.13341e-25 0 2.00314e-25 0 3.42773e-25 0
15.0394 4.95278e-07 2.36337e-07 2.58941e-07 0.52282 2.84373e-07 0 0 7.42324e-41 0 3.64175e-36 0 1.14737e-33 0 5.46886e-32 0 9.59577e-31 0 9.27052e-30 0 5.89928e-29 0 2.88369e-28 0 1.11464e-27 0 3.67807e-27 0 1.07801e-26 0 2.76272e-26 0 6.56636e-26 0 1.45457e-25 0 3.01624e-25 0 5.94492e-25 0 1.10441e-24 0 2.00457e-24 0 3.44563e-24 0 5.74347e-24 0
