# 0.00019953 0 150 : grain size, compostion index, size index
# Heating and cooling timescale: 6.39877e-05 4.9566e+08
# Ratio of heating to cooling to determine stochastic cutoff: 100
# Equilibrium emission is recorded even for those grains in the stochastic regime.
# Emission spectrum was computed for: 
# Type: IRSF
# Scales: 0.25 0.5 1 1.5 2 2.5 3 3.5 4 4.5 5 5.5 6 6.5 7 7.5 8 8.5 9 9.5 10
# StochasticallyHeated: 0 0 0 0 0 0 0 0 0 0 0 0 0 0 0 0 0 0 0 0 0
# Temperature: -1
# Wavelength  CExt  CAbs  CSca  Albedo G EqEm1 StEm1 EqEm2 StEm2 EqEm3 StEm3 EqEm4 StEm4 EqEm5 StEm5 EqEm6 StEm6 EqEm7 StEm7 EqEm8 StEm8 EqEm9 StEm9 EqEm10 StEm10 EqEm11 StEm11 EqEm12 StEm12 EqEm13 StEm13 EqEm14 StEm14 EqEm15 StEm15 EqEm16 StEm16 EqEm17 StEm17 EqEm18 StEm18 EqEm19 StEm19 EqEm20 StEm20 EqEm21 StEm21
0.05 6.53023e-08 2.39673e-08 4.1335e-08 0.63298 0.00576547 0 0 0 0 0 0 0 0 0 0 0 0 0 0 0 0 0 0 0 0 0 0 0 0 0 0 0 0 0 0 0 0 0 0 0 0 0 0 0 0 0 0
0.0525665 7.21783e-08 2.64909e-08 4.56874e-08 0.63298 0.00637255 0 0 0 0 0 0 0 0 0 0 0 0 0 0 0 0 0 0 0 0 0 0 0 0 0 0 0 0 0 0 0 0 0 0 0 0 0 0 0 0 0 0
0.0552647 7.97783e-08 2.92803e-08 5.0498e-08 0.63298 0.00704355 0 0 0 0 0 0 0 0 0 0 0 0 0 0 0 0 0 0 0 0 0 0 0 0 0 0 0 0 0 0 0 0 0 0 0 0 0 0 0 0 0 0
0.0581015 8.81786e-08 3.23633e-08 5.58152e-08 0.63298 0.0077852 0 0 0 0 0 0 0 0 0 0 0 0 0 0 0 0 0 0 0 0 0 0 0 0 0 0 0 0 0 0 0 0 0 0 0 0 0 0 0 0 0 0
0.0610839 9.74633e-08 3.5771e-08 6.16923e-08 0.63298 0.00860494 0 0 0 0 0 0 0 0 0 0 0 0 0 0 0 0 0 0 0 0 0 0 0 0 0 0 0 0 0 0 0 0 0 0 0 0 0 0 0 0 0 0
0.0642193 1.07726e-07 3.95375e-08 6.81882e-08 0.63298 0.009511 0 0 0 0 0 0 0 0 0 0 0 0 0 0 0 0 0 0 0 0 0 0 0 0 0 0 0 0 0 0 0 0 0 0 0 0 0 0 0 0 0 0
0.0675157 1.19069e-07 4.37007e-08 7.53681e-08 0.63298 0.0105125 0 0 0 0 0 0 0 0 0 0 0 0 0 0 0 0 0 0 0 0 0 0 0 0 0 0 0 0 0 0 0 0 0 0 0 0 0 0 0 0 0 0
0.0709813 1.31606e-07 4.83021e-08 8.3304e-08 0.63298 0.0116194 0 0 0 0 0 0 0 0 0 0 0 0 0 0 0 0 0 0 0 0 0 0 0 0 0 0 0 0 0 0 0 0 0 0 0 0 0 0 0 0 0 0
0.0746248 1.45464e-07 5.33881e-08 9.20755e-08 0.63298 0.0128428 0 0 0 0 0 0 0 0 0 0 0 0 0 0 0 0 0 0 0 0 0 0 0 0 0 0 0 0 0 0 0 0 0 0 0 0 0 0 0 0 0 0
0.0784553 1.6078e-07 5.90096e-08 1.01771e-07 0.63298 0.0141951 0 0 0 0 0 0 0 0 0 0 0 0 0 0 0 0 0 0 0 0 0 0 0 0 0 0 0 0 0 0 0 0 0 0 0 0 0 0 0 0 0 0
0.0824824 1.7771e-07 6.5223e-08 1.12487e-07 0.63298 0.0156898 0 0 0 0 0 0 0 0 0 0 0 0 0 0 0 0 0 0 0 0 0 0 0 0 0 0 0 0 0 0 0 0 0 0 0 0 0 0 0 0 0 0
0.0867162 1.96422e-07 7.20907e-08 1.24331e-07 0.63298 0.0173419 0 0 0 0 0 0 0 0 0 0 0 0 0 0 0 0 0 0 0 0 0 0 0 0 0 0 0 0 0 0 0 0 0 0 0 0 0 0 0 0 0 0
0.0911674 2.17104e-07 7.96815e-08 1.37422e-07 0.63298 0.0191679 0 0 0 0 0 0 0 0 0 0 0 0 0 0 0 0 0 0 0 0 0 0 0 0 0 0 0 0 0 0 0 0 0 0 0 0 0 0 0 0 0 0
0.095847 2.39964e-07 8.80716e-08 1.51892e-07 0.63298 0.0211862 0 0 0 0 0 0 0 0 0 0 0 0 0 0 0 0 0 0 0 0 0 0 0 0 0 0 0 0 0 0 0 0 0 0 0 0 0 0 0 0 0 0
0.100767 2.61191e-07 9.66232e-08 1.64567e-07 0.630066 0.0235692 0 0 0 0 0 0 0 0 0 0 0 0 0 0 0 0 0 0 0 0 0 0 0 0 0 0 0 0 0 0 0 0 0 0 0 0 0 0 0 0 0 0
0.105939 2.61168e-07 1.00863e-07 1.60305e-07 0.613801 0.0256046 0 0 0 0 0 0 0 0 0 0 0 0 0 0 0 0 0 0 0 0 0 0 0 0 0 0 0 0 0 0 0 0 0 0 0 0 0 0 0 0 0 0
0.111377 2.61416e-07 1.01862e-07 1.59554e-07 0.610345 0.0289403 0 0 0 0 0 0 0 0 0 0 0 0 0 0 0 0 0 0 0 0 0 0 0 0 0 0 0 0 0 0 0 0 0 0 0 0 0 0 0 0 0 0
0.117094 2.6138e-07 1.05419e-07 1.55961e-07 0.596682 0.0274507 0 0 0 0 0 0 0 0 0 0 0 0 0 0 0 0 0 0 0 0 0 0 0 0 0 0 0 0 0 0 0 0 0 0 0 0 0 0 0 0 0 0
0.123105 2.61508e-07 1.09533e-07 1.51975e-07 0.581149 0.0236555 0 0 0 0 0 0 0 0 0 0 0 0 0 0 0 0 0 0 0 0 0 0 0 0 0 0 0 0 0 0 0 0 0 0 0 0 0 0 0 0 0 0
0.129424 2.6177e-07 1.1269e-07 1.4908e-07 0.569507 0.0199126 0 0 0 0 0 0 0 0 0 0 0 0 0 0 0 0 0 0 0 0 0 0 0 0 0 0 0 0 0 0 0 0 0 0 0 0 0 0 0 0 0 0
0.136067 2.62048e-07 1.15194e-07 1.46854e-07 0.560407 0.0168557 0 0 0 0 0 0 0 0 0 0 0 0 0 0 0 0 0 0 0 0 0 0 0 0 0 0 0 0 0 0 0 0 0 0 0 0 0 0 0 0 0 0
0.143051 2.62301e-07 1.17296e-07 1.45005e-07 0.552818 0.0143876 0 0 0 0 0 0 0 0 0 0 0 0 0 0 0 0 0 0 0 0 0 0 0 0 0 0 0 0 0 0 0 0 0 0 0 0 0 0 0 0 0 0
0.150394 2.62469e-07 1.1902e-07 1.4345e-07 0.546539 0.0122986 0 0 0 0 0 0 0 0 0 0 0 0 0 0 0 0 0 0 0 0 0 0 0 0 0 0 0 0 0 0 0 0 0 0 0 0 0 0 0 0 0 0
0.158114 2.62472e-07 1.20121e-07 1.42351e-07 0.542348 0.01055 0 0 0 0 0 0 0 0 0 0 0 0 0 0 0 0 0 0 0 0 0 0 0 0 0 0 0 0 0 0 0 0 0 0 0 0 0 0 0 0 0 0
0.16623 2.62277e-07 1.20039e-07 1.42239e-07 0.542322 0.00908216 0 0 0 0 0 0 0 0 0 0 0 0 0 0 0 0 0 0 0 0 0 0 0 0 0 0 0 0 0 0 0 0 0 0 0 0 0 0 0 0 0 0
0.174762 2.62174e-07 1.1828e-07 1.43894e-07 0.548849 0.00782097 0 0 0 0 0 0 0 0 0 0 0 0 0 0 0 0 0 0 0 0 0 0 0 0 0 0 0 0 0 0 0 0 0 0 0 0 0 0 0 0 0 0
0.183733 2.62485e-07 1.14318e-07 1.48167e-07 0.564478 0.00667218 0 0 0 0 0 0 0 0 0 0 0 0 0 0 0 0 0 0 0 0 0 0 0 0 0 0 0 0 0 0 0 0 0 0 0 0 0 0 0 0 0 0
0.193164 2.6358e-07 1.07668e-07 1.55912e-07 0.591518 0.00556038 0 0 0 0 0 0 0 0 0 0 0 0 0 0 0 0 0 0 0 0 0 0 0 0 0 0 0 0 0 0 0 0 0 0 0 0 0 0 0 0 0 0
0.203079 2.65337e-07 9.96073e-08 1.6573e-07 0.624601 0.00446034 0 0 0 0 0 0 0 0 0 0 0 0 0 0 0 0 0 0 0 0 0 0 0 0 0 0 0 0 0 0 0 0 0 0 0 0 0 0 0 0 0 0
0.213503 2.67486e-07 9.2407e-08 1.75079e-07 0.654536 0.00342932 0 0 0 0 0 0 0 0 0 0 0 0 0 0 0 0 0 0 0 0 0 0 0 0 0 0 0 0 0 0 0 0 0 0 0 0 0 0 0 0 0 0
0.224463 2.69831e-07 8.76278e-08 1.82204e-07 0.67525 0.00254317 0 0 0 0 0 0 0 0 0 0 0 0 0 0 0 0 0 0 0 0 0 0 0 0 0 0 0 0 0 0 0 0 0 0 0 0 0 0 0 0 0 0
0.235984 2.72131e-07 8.54929e-08 1.86638e-07 0.685839 0.00182186 0 0 0 0 0 0 0 0 0 0 0 0 0 0 0 0 0 0 0 0 0 0 0 0 0 0 0 0 0 0 0 0 0 0 0 0 0 0 0 0 0 0
0.248097 2.73972e-07 8.54276e-08 1.88544e-07 0.688188 0.00138916 0 0 0 0 0 0 0 0 0 0 0 0 0 0 0 0 0 0 0 0 0 0 0 0 0 0 0 0 0 0 0 0 0 0 0 0 0 0 0 0 0 0
0.260832 2.74778e-07 8.69724e-08 1.87806e-07 0.683482 0.00141961 0 0 0 0 0 0 0 0 0 0 0 0 0 0 0 0 0 0 0 0 0 0 0 0 0 0 0 0 0 0 0 0 0 0 0 0 0 0 0 0 0 0
0.274221 2.74392e-07 8.99133e-08 1.84478e-07 0.672318 0.00187131 0 0 0 0 0 0 0 0 0 0 0 0 0 0 0 0 0 0 0 0 0 0 0 0 0 0 0 0 0 0 0 0 0 0 0 0 0 0 0 0 0 0
0.288297 2.73521e-07 9.38617e-08 1.7966e-07 0.65684 0.00251556 0 0 0 0 0 0 0 0 0 0 0 0 0 0 0 0 0 0 0 0 0 0 0 0 0 0 0 0 0 0 0 0 0 0 0 0 0 0 0 0 0 0
0.303095 2.73012e-07 9.79289e-08 1.75083e-07 0.641302 0.0028362 0 0 0 0 0 0 0 0 0 0 0 0 0 0 0 0 0 0 0 0 0 0 0 0 0 0 0 0 0 0 0 0 0 0 0 0 0 0 0 0 0 0
0.318653 2.73048e-07 1.01403e-07 1.71645e-07 0.628626 0.00297223 0 0 0 0 0 0 0 0 0 0 0 0 0 0 0 0 0 0 0 0 0 0 0 0 0 0 0 0 0 0 0 0 0 0 0 0 0 0 0 0 0 0
0.335009 2.7343e-07 1.04045e-07 1.69385e-07 0.619482 0.00293231 0 0 0 0 0 0 0 0 0 0 0 0 0 0 0 0 0 0 0 0 0 0 0 0 0 0 0 0 0 0 0 0 0 0 0 0 0 0 0 0 0 0
0.352205 2.74045e-07 1.05943e-07 1.68102e-07 0.61341 0.00278811 0 0 0 0 0 0 0 0 0 0 0 0 0 0 0 0 0 0 0 0 0 0 0 0 0 0 0 0 0 0 0 0 0 0 0 0 0 0 0 0 0 0
0.370284 2.74782e-07 1.07221e-07 1.67561e-07 0.609797 0.00261033 0 0 0 0 0 0 0 0 0 0 0 0 0 0 0 0 0 0 0 0 0 0 0 0 0 0 0 0 0 0 0 0 0 0 0 0 0 0 0 0 0 0
0.389291 2.75609e-07 1.08052e-07 1.67557e-07 0.60795 0.00243645 0 0 0 0 0 0 0 0 0 0 0 0 0 0 0 0 0 0 0 0 0 0 0 0 0 0 0 0 0 0 0 0 0 0 0 0 0 0 0 0 0 0
0.409273 2.76468e-07 1.08605e-07 1.67863e-07 0.607169 0.00226652 0 0 0 0 0 0 0 0 0 0 0 0 0 0 0 0 0 0 0 0 0 0 0 0 0 0 0 0 0 0 0 0 0 0 0 0 0 0 0 0 0 0
0.430281 2.77341e-07 1.09029e-07 1.68312e-07 0.606876 0.00210471 0 0 0 0 0 0 0 0 0 0 0 0 0 0 0 0 0 0 0 0 0 0 0 0 0 0 0 0 0 0 0 0 0 0 0 0 0 0 0 0 0 0
0.452368 2.78212e-07 1.09416e-07 1.68796e-07 0.606719 0.00193723 0 0 0 0 0 0 0 0 0 0 0 0 0 0 0 0 0 0 0 0 0 0 0 0 0 0 0 0 0 0 0 0 0 0 0 0 0 0 0 0 0 0
0.475588 2.791e-07 1.09837e-07 1.69263e-07 0.606458 0.00177642 0 0 0 0 0 0 0 0 0 0 0 0 0 0 0 0 0 0 0 0 0 0 0 0 0 0 0 0 0 0 0 0 0 0 0 0 0 0 0 0 0 0
0.5 2.79987e-07 1.10298e-07 1.69689e-07 0.606059 0.00162159 0 0 0 0 0 0 0 0 0 0 0 0 0 0 0 0 0 0 0 0 0 0 0 0 0 0 0 0 0 0 0 0 0 0 0 0 0 0 0 0 0 0
0.525665 2.80914e-07 1.10809e-07 1.70106e-07 0.605542 0.0014751 0 0 0 0 0 0 0 0 0 0 0 0 0 0 0 0 0 0 0 0 0 0 0 0 0 0 0 0 0 0 0 0 0 0 0 0 0 0 0 0 0 0
0.552648 2.8186e-07 1.11344e-07 1.70516e-07 0.604966 0.00134175 0 0 0 0 0 0 0 0 0 0 0 0 0 0 0 0 0 0 0 0 0 0 0 0 0 0 0 0 0 0 0 0 0 0 0 0 0 0 0 0 0 0
0.581015 2.82859e-07 1.11884e-07 1.70975e-07 0.604455 0.00121775 0 0 0 0 0 0 0 0 0 0 0 0 0 0 0 0 0 0 0 0 0 0 0 0 0 0 0 0 0 0 0 0 0 0 0 0 0 0 0 0 0 0
0.610839 2.83894e-07 1.12415e-07 1.71479e-07 0.604024 0.00110516 0 0 0 0 0 0 0 0 0 0 0 0 0 0 0 0 0 0 0 0 0 0 0 0 0 0 0 0 0 0 0 0 0 0 0 0 0 0 0 0 0 0
0.642193 2.84981e-07 1.12921e-07 1.7206e-07 0.603761 0.00100302 0 0 0 0 0 0 0 0 0 0 0 0 0 0 0 0 0 0 0 0 0 0 0 0 0 0 0 0 0 0 0 0 0 0 0 0 0 0 0 0 0 0
0.675157 2.86121e-07 1.13391e-07 1.7273e-07 0.603697 0.000910957 0 0 0 0 0 0 0 0 0 0 0 0 0 0 0 0 0 0 0 0 0 0 0 0 0 0 0 0 0 0 0 0 0 0 0 0 0 0 0 0 0 0
0.709813 2.87303e-07 1.13814e-07 1.73488e-07 0.603852 0.00082817 0 0 0 0 0 0 0 0 0 0 0 0 0 0 0 0 0 0 0 0 0 0 0 0 0 0 0 0 0 0 0 0 0 0 0 0 0 0 0 0 0 0
0.746248 2.88535e-07 1.14199e-07 1.74336e-07 0.604212 0.000754183 0 0 0 0 0 0 0 0 0 0 0 0 0 0 0 0 0 0 0 0 0 0 0 0 0 0 0 0 0 0 0 0 0 0 0 0 0 0 0 0 0 0
0.784553 2.89795e-07 1.14532e-07 1.75263e-07 0.604782 0.000686995 0 0 0 0 0 0 0 0 0 0 0 0 0 0 0 0 0 0 0 0 0 0 0 0 0 0 0 0 0 0 0 0 0 0 0 0 0 0 0 0 0 0
0.824824 2.91096e-07 1.14818e-07 1.76278e-07 0.605566 0.000626788 0 0 0 0 0 0 0 0 0 0 0 0 0 0 0 0 0 0 0 0 0 0 0 0 0 0 0 0 0 0 0 0 0 0 0 0 0 0 0 0 0 0
0.867162 2.92425e-07 1.15056e-07 1.77369e-07 0.606545 0.000572518 0 0 0 0 0 0 0 0 0 0 0 0 0 0 0 0 0 0 0 0 0 0 0 0 0 0 0 0 0 0 0 0 0 0 0 0 0 0 0 0 0 0
0.911674 2.93774e-07 1.15263e-07 1.78511e-07 0.607648 0.000523427 0 0 0 0 0 0 0 0 0 0 0 0 0 0 0 0 0 0 0 0 0 0 0 0 0 0 0 0 0 0 0 0 0 0 0 0 0 0 0 0 0 0
0.95847 2.95142e-07 1.15431e-07 1.7971e-07 0.608895 0.00047944 0 0 0 0 0 0 0 0 0 0 0 0 0 0 0 0 0 0 0 0 0 0 0 0 0 0 0 0 0 0 0 0 0 0 0 0 0 0 0 0 0 0
1.00767 2.9652e-07 1.1557e-07 1.8095e-07 0.610245 0.0004395 0 0 0 0 0 0 0 0 0 0 0 0 0 0 0 0 0 0 0 0 0 0 0 0 0 0 0 0 0 0 0 0 0 0 0 0 0 0 0 0 0 0
1.05939 2.97906e-07 1.15679e-07 1.82227e-07 0.611694 0.000403275 0 0 0 0 0 0 0 0 0 0 0 0 0 0 0 0 0 0 0 0 0 0 0 0 0 0 0 0 0 0 0 0 0 0 0 0 0 0 0 0 0 0
1.11377 2.99277e-07 1.15769e-07 1.83508e-07 0.613172 0.000370298 0 0 0 0 0 0 0 0 0 0 0 0 0 0 0 0 0 0 0 0 0 0 0 0 0 0 0 0 0 0 0 0 0 0 0 0 0 0 0 0 0 0
1.17094 3.00654e-07 1.15839e-07 1.84815e-07 0.614711 0.000339515 0 0 0 0 0 0 0 0 0 0 0 0 0 0 0 0 0 0 0 0 0 0 0 0 0 0 0 0 0 0 0 0 0 0 0 0 0 0 0 0 0 0
1.23105 3.02004e-07 1.15899e-07 1.86105e-07 0.616235 0.000311294 0 0 0 0 0 0 0 0 0 0 0 0 0 0 0 0 0 0 0 0 0 0 0 0 0 0 0 0 0 0 0 0 0 0 0 0 0 0 0 0 0 0
1.29424 3.03353e-07 1.15948e-07 1.87404e-07 0.617777 0.000285362 0 0 0 0 0 0 0 0 0 0 0 0 0 0 0 0 0 0 0 0 0 0 0 0 0 0 0 0 0 0 0 0 0 0 0 0 0 0 0 0 0 0
1.36067 3.04696e-07 1.16006e-07 1.8869e-07 0.619273 0.000261742 0 0 0 0 0 0 0 0 0 0 0 0 0 0 0 0 0 0 0 0 0 0 0 0 0 0 0 0 0 0 0 0 0 0 0 0 0 0 0 0 0 0
1.43051 3.05999e-07 1.16048e-07 1.89952e-07 0.620759 0.000240209 0 0 0 0 0 0 0 0 0 0 0 0 0 0 0 0 0 0 0 0 0 0 0 0 0 0 0 0 0 0 0 0 0 0 0 0 0 0 0 0 0 0
1.50394 3.07308e-07 1.16114e-07 1.91194e-07 0.622157 0.000220279 0 0 0 0 0 0 0 0 0 0 0 0 0 0 0 0 0 0 0 0 0 0 0 0 0 0 0 0 0 0 0 0 0 0 0 0 0 0 0 0 0 0
1.58114 3.08572e-07 1.16167e-07 1.92405e-07 0.623534 0.000201732 0 0 0 0 0 0 0 0 0 0 0 0 0 0 0 0 0 0 0 0 0 0 0 0 0 0 0 0 0 0 0 0 0 0 0 0 0 0 0 0 0 0
1.6623 3.09845e-07 1.16249e-07 1.93596e-07 0.624814 0.000184534 0 0 0 0 0 0 0 0 0 0 0 0 0 0 0 0 0 0 0 0 0 0 0 0 0 0 0 0 0 0 0 0 0 0 0 0 0 0 0 0 0 0
1.74763 3.1109e-07 1.16352e-07 1.94738e-07 0.625986 0.000169005 0 0 0 0 0 0 0 0 0 0 0 0 0 0 0 0 0 0 0 0 0 0 0 0 0 0 0 0 0 0 0 0 0 0 0 0 0 0 0 0 0 0
1.83733 3.12326e-07 1.16453e-07 1.95873e-07 0.627142 0.000154804 0 0 0 0 0 0 0 0 0 0 0 0 0 0 0 0 0 0 0 0 0 0 0 0 0 0 0 0 0 0 0 0 0 0 0 0 0 0 0 0 0 0
1.93164 3.13584e-07 1.16627e-07 1.96957e-07 0.628083 0.000141793 0 0 0 0 0 0 0 0 0 0 0 0 0 0 0 0 0 0 0 0 0 0 0 0 0 0 0 0 0 0 0 0 0 0 0 0 0 0 0 0 0 0
2.03079 3.14779e-07 1.1679e-07 1.97988e-07 0.628976 0.000129725 0 0 0 0 0 0 0 0 0 0 0 0 0 0 0 0 0 0 0 0 0 0 0 0 0 0 0 0 0 0 0 0 0 0 0 0 0 0 0 0 0 0
2.13503 3.16007e-07 1.16983e-07 1.99023e-07 0.629808 0.000118657 0 0 0 0 0 0 0 0 0 0 0 0 0 0 0 0 0 0 0 0 0 0 0 0 0 0 0 0 0 0 0 0 0 0 0 0 0 0 0 0 0 0
2.24463 3.17287e-07 1.17285e-07 2.00002e-07 0.63035 0.000108569 0 0 0 0 0 0 0 0 0 0 0 0 0 0 0 0 0 0 0 0 0 0 0 0 0 0 0 0 0 0 0 0 0 0 0 0 0 0 0 0 0 0
2.35984 3.18462e-07 1.17568e-07 2.00893e-07 0.630824 9.92926e-05 0 0 0 0 0 0 0 0 0 0 0 0 0 0 0 0 0 0 0 0 0 0 0 0 0 0 0 0 0 0 0 0 0 0 0 0 0 0 0 0 0 0
2.48097 3.19689e-07 1.17863e-07 2.01826e-07 0.631319 9.07218e-05 0 0 0 0 0 0 0 0 0 0 0 0 0 0 0 0 0 0 0 0 0 0 0 0 0 0 0 0 0 0 0 0 0 0 0 0 0 0 0 0 0 0
2.60832 3.21068e-07 1.18324e-07 2.02744e-07 0.631468 8.27967e-05 0 0 0 0 0 0 0 0 0 0 0 0 0 0 0 0 0 0 0 0 0 0 0 0 0 0 0 0 0 0 0 0 0 0 0 0 0 0 0 0 0 0
2.74221 3.2235e-07 1.18846e-07 2.03504e-07 0.631314 7.55862e-05 0 0 0 0 0 0 0 0 0 0 0 0 0 0 0 0 0 0 0 0 0 0 0 0 0 0 0 0 0 0 0 0 0 0 0 0 0 0 0 0 0 0
2.88297 3.23481e-07 1.19269e-07 2.04211e-07 0.631294 6.90729e-05 0 0 0 0 0 0 0 0 0 0 0 0 0 0 0 0 0 0 0 0 0 0 0 0 0 0 0 0 0 0 0 0 0 0 0 0 0 0 0 0 0 0
3.03095 3.2479e-07 1.19757e-07 2.05033e-07 0.631279 6.31538e-05 0 0 0 0 0 0 0 0 0 0 0 0 0 0 0 0 0 0 0 0 0 0 0 0 0 0 0 0 0 0 0 0 0 0 0 0 0 0 0 0 0 0
3.18653 3.26401e-07 1.20513e-07 2.05888e-07 0.630782 5.76567e-05 0 0 0 0 0 0 0 0 0 0 0 0 0 0 0 0 0 0 0 0 0 0 0 0 0 0 0 0 0 0 0 0 0 0 0 0 0 0 0 0 0 0
3.35009 3.27912e-07 1.21404e-07 2.06508e-07 0.629767 5.2603e-05 0 0 0 0 0 0 0 0 0 0 0 0 0 0 0 0 0 0 0 0 0 0 0 0 0 0 0 0 0 0 0 0 0 0 0 0 0 0 0 0 0 0
3.52205 3.29041e-07 1.2214e-07 2.06901e-07 0.628799 4.80102e-05 0 0 0 0 0 0 0 0 0 0 0 0 0 0 0 0 0 0 0 0 0 0 0 0 0 0 0 0 0 0 0 0 0 0 0 0 0 0 0 0 0 0
3.70284 3.30121e-07 1.22736e-07 2.07386e-07 0.62821 4.38066e-05 0 0 0 0 0 0 0 0 0 0 0 0 0 0 0 0 0 0 0 0 0 0 0 0 0 0 0 0 0 0 0 0 0 0 0 0 0 0 0 0 0 0
3.89291 3.317e-07 1.23526e-07 2.08174e-07 0.627597 3.9926e-05 0 0 0 0 0 0 0 0 0 0 0 0 0 0 0 0 0 0 0 0 0 0 0 0 0 0 0 0 0 0 0 0 0 0 0 0 0 0 0 0 0 0
4.09273 3.33783e-07 1.24739e-07 2.09044e-07 0.626288 3.62643e-05 0 0 0 0 0 0 0 0 0 0 0 0 0 0 0 0 0 0 0 0 0 0 0 0 0 0 0 0 0 0 0 0 0 0 0 0 0 0 0 0 0 0
4.30281 3.35824e-07 1.26225e-07 2.09599e-07 0.624133 3.29535e-05 0 0 0 0 0 0 0 0 0 0 0 0 0 0 0 0 0 0 0 0 0 0 0 0 0 0 0 0 0 0 0 0 0 0 0 0 0 0 0 0 0 0
4.52368 3.37198e-07 1.27586e-07 2.09612e-07 0.621629 2.99416e-05 0 0 0 0 0 0 0 0 0 0 0 0 0 0 0 0 0 0 0 0 0 0 0 0 0 0 0 0 0 0 0 0 0 0 0 0 0 0 0 0 0 0
4.75588 3.37937e-07 1.28572e-07 2.09365e-07 0.619538 2.71796e-05 0 0 0 0 0 0 0 0 0 0 0 0 0 0 0 0 0 0 0 0 0 0 0 0 0 0 0 0 0 0 0 0 0 0 0 0 0 0 0 0 0 0
5 3.38701e-07 1.29338e-07 2.09363e-07 0.618135 2.45398e-05 0 0 0 0 0 0 0 0 0 0 0 0 0 0 0 0 0 0 0 0 0 0 0 0 0 0 0 0 0 0 0 0 0 0 0 0 0 0 0 0 0 0
5.25665 3.40235e-07 1.30268e-07 2.09967e-07 0.617123 2.21678e-05 0 0 0 0 0 0 0 0 0 0 0 0 0 0 0 0 0 0 0 0 0 0 0 0 0 0 0 0 0 0 0 0 0 0 0 0 0 0 0 0 0 0
5.52648 3.42809e-07 1.31738e-07 2.11072e-07 0.615711 2.00489e-05 0 0 0 0 0 0 0 0 0 0 0 0 0 0 0 0 0 0 0 0 0 0 0 0 0 0 0 0 0 0 0 0 0 0 0 0 0 0 0 0 0 0
5.81015 3.4598e-07 1.33819e-07 2.12161e-07 0.613218 1.8115e-05 0 0 0 0 0 0 0 0 0 0 0 0 0 0 0 0 0 0 0 0 0 0 0 0 0 0 0 0 0 0 0 0 0 0 0 0 0 0 0 0 0 0
6.10839 3.48822e-07 1.36191e-07 2.1263e-07 0.609567 1.63023e-05 0 0 0 0 0 0 0 0 0 0 0 0 0 0 0 0 0 0 0 0 0 0 0 0 0 0 0 0 0 0 0 0 0 0 0 0 0 0 0 0 0 0
6.42193 3.5074e-07 1.39169e-07 2.11571e-07 0.603212 1.48144e-05 0 0 0 0 0 0 0 0 0 0 0 0 0 0 0 0 0 0 0 0 0 0 0 0 0 0 0 0 0 0 0 0 0 0 0 0 0 0 0 0 0 0
6.75157 3.51203e-07 1.41069e-07 2.10134e-07 0.598325 1.32279e-05 0 0 0 0 0 0 0 0 0 0 0 0 0 0 0 0 0 0 0 0 0 0 0 0 0 0 0 0 0 0 0 0 0 0 0 0 0 0 0 0 0 0
7.09813 3.50435e-07 1.42542e-07 2.07894e-07 0.593244 1.18448e-05 0 0 0 0 0 0 0 0 0 0 0 0 0 0 0 0 0 0 0 0 0 0 0 0 0 0 0 0 0 0 0 0 0 0 0 0 0 0 0 0 0 0
7.46248 3.49048e-07 1.4337e-07 2.05678e-07 0.589254 1.05694e-05 0 0 0 0 0 0 0 0 0 0 0 0 0 0 0 0 0 0 0 0 0 0 0 0 0 0 0 0 0 0 0 0 0 0 0 0 0 0 0 0 1.4013e-45 0
7.84553 3.48075e-07 1.43797e-07 2.04278e-07 0.58688 9.34187e-06 0 0 0 0 0 0 0 0 0 0 0 0 0 0 0 0 0 0 0 0 0 0 0 0 0 0 0 0 0 0 1.4013e-45 0 2.8026e-45 0 7.00649e-45 0 2.10195e-44 0 6.02558e-44 0 1.49939e-43 0
8.24824 3.48913e-07 1.44342e-07 2.04571e-07 0.586311 8.19911e-06 0 0 0 0 0 0 0 0 0 0 0 0 0 0 0 0 0 0 0 0 0 0 0 0 2.8026e-45 0 9.80909e-45 0 3.92364e-44 0 1.35926e-43 0 4.30199e-43 0 1.28359e-42 0 3.48923e-42 0 9.31023e-42 0 2.20144e-41 0
8.67162 3.52622e-07 1.45484e-07 2.07138e-07 0.587423 7.20916e-06 0 0 0 0 0 0 0 0 0 0 0 0 0 0 0 0 0 0 1.4013e-45 0 1.4013e-44 0 8.12753e-44 0 3.86758e-43 0 1.64372e-42 0 6.01998e-42 0 1.98858e-41 0 5.95944e-41 0 1.68583e-40 0 4.36503e-40 0 1.11008e-39 0 2.51692e-39 0
9.11674 3.59097e-07 1.47419e-07 2.11678e-07 0.589473 6.32492e-06 0 0 0 0 0 0 0 0 0 0 0 0 0 0 4.2039e-45 0 4.2039e-44 0 3.5593e-43 0 2.30654e-42 0 1.20442e-41 0 5.34876e-41 0 2.11876e-40 0 7.2849e-40 0 2.27007e-39 0 6.44801e-39 0 1.73374e-38 0 4.28532e-38 0 1.04125e-37 0 2.26837e-37 0
9.5847 3.66687e-07 1.50114e-07 2.16573e-07 0.590621 5.52644e-06 0 0 0 0 0 0 0 0 0 0 1.4013e-45 0 3.78351e-44 0 6.1517e-43 0 6.3717e-42 0 4.91323e-41 0 2.90608e-40 0 1.39966e-39 0 5.77928e-39 0 2.14047e-38 0 6.92893e-38 0 2.04259e-37 0 5.51355e-37 0 1.41259e-36 0 3.34063e-36 0 7.77278e-36 0 1.63014e-35 0
10.0767 3.72906e-07 1.53528e-07 2.19378e-07 0.588294 4.78203e-06 0 0 0 0 0 0 0 0 4.2039e-45 0 2.32616e-43 0 5.73972e-42 0 8.21707e-41 0 7.58493e-40 0 5.29361e-39 0 2.87084e-38 0 1.28053e-37 0 4.9337e-37 0 1.71414e-36 0 5.23955e-36 0 1.46516e-35 0 3.76774e-35 0 9.2197e-35 0 2.09063e-34 0 4.66788e-34 0 9.44198e-34 0
10.5939 3.75291e-07 1.57388e-07 2.17904e-07 0.580625 4.06995e-06 0 0 0 0 0 0 4.2039e-45 0 6.9084e-43 0 3.21948e-41 0 6.80789e-40 0 8.55837e-39 0 7.08756e-38 0 4.49882e-37 0 2.2465e-36 0 9.31498e-36 0 3.3602e-35 0 1.09858e-34 0 3.1797e-34 0 8.45617e-34 0 2.07655e-33 0 4.8641e-33 0 1.05975e-32 0 2.27517e-32 0 4.44652e-32 0
11.1377 3.72209e-07 1.61399e-07 2.10809e-07 0.566374 3.40803e-06 0 0 0 0 0 0 6.40393e-43 0 8.99241e-41 0 3.47287e-39 0 6.32726e-38 0 7.0294e-37 0 5.25047e-36 0 3.04519e-35 0 1.4058e-34 0 5.43803e-34 0 1.84255e-33 0 5.68548e-33 0 1.56239e-32 0 3.96128e-32 0 9.31009e-32 0 2.09202e-31 0 4.38789e-31 0 9.0754e-31 0 1.71658e-30 0
11.7094 3.67657e-07 1.61908e-07 2.05749e-07 0.559623 2.82232e-06 0 0 0 0 7.00649e-44 0 8.09965e-41 0 8.92618e-39 0 2.88404e-37 0 4.56021e-36 0 4.50435e-35 0 3.04983e-34 0 1.62337e-33 0 6.95492e-33 0 2.51841e-32 0 8.03949e-32 0 2.34792e-31 0 6.14145e-31 0 1.48796e-30 0 3.35421e-30 0 7.24495e-30 0 1.46561e-29 0 2.92562e-29 0 5.36417e-29 0
12.3105 3.56018e-07 1.66523e-07 1.89494e-07 0.532261 2.20615e-06 0 0 0 0 1.00137e-41 0 8.18607e-39 0 7.17076e-37 0 1.95528e-35 0 2.7018e-34 0 2.38637e-33 0 1.47172e-32 0 7.21963e-32 0 2.88097e-31 0 9.79688e-31 0 2.95514e-30 0 8.19046e-30 0 2.04412e-29 0 4.7431e-29 0 1.02761e-28 0 2.13768e-28 0 4.17817e-28 0 8.06363e-28 0 1.43536e-27 0
12.9424 3.46473e-07 1.70633e-07 1.7584e-07 0.507514 1.60871e-06 0 0 7.00649e-45 0 1.10458e-39 0 6.50852e-37 0 4.58281e-35 0 1.06336e-33 0 1.29254e-32 0 1.02645e-31 0 5.79228e-31 0 2.62916e-30 0 9.8061e-30 0 3.14118e-29 0 8.97786e-29 0 2.36748e-28 0 5.65057e-28 0 1.25835e-27 0 2.62525e-27 0 5.26934e-27 0 9.96757e-27 0 1.86291e-26 0 3.22399e-26 0
13.6067 3.39981e-07 1.76036e-07 1.63945e-07 0.482218 1.1081e-06 0 0 1.17989e-42 0 9.64346e-38 0 4.16161e-35 0 2.38068e-33 0 4.73783e-32 0 5.09776e-31 0 3.65878e-30 0 1.89739e-29 0 7.99923e-29 0 2.79779e-28 0 8.46695e-28 0 2.299e-27 0 5.7822e-27 0 1.32267e-26 0 2.83259e-26 0 5.70114e-26 0 1.10605e-25 0 2.0281e-25 0 3.67648e-25 0 6.19447e-25 0
14.3051 3.36666e-07 1.81931e-07 1.54735e-07 0.459611 6.74396e-07 1.4013e-45 0 1.42627e-40 0 6.70839e-36 0 2.15275e-33 0 1.01071e-31 0 1.73816e-30 0 1.66538e-29 0 1.08562e-28 0 5.19516e-28 0 2.04165e-27 0 6.71737e-27 0 1.92589e-26 0 4.98038e-26 0 1.19746e-25 0 2.63072e-25 0 5.42822e-25 0 1.05585e-24 0 1.98318e-24 0 3.5304e-24 0 6.2166e-24 0 1.02109e-23 0
