# 1e-05 1 98 : grain size, compostion index, size index
# Heating and cooling timescale: 0.235328 661228
# Ratio of heating to cooling to determine stochastic cutoff: 100
# Equilibrium emission is recorded even for those grains in the stochastic regime.
# Emission spectrum was computed for: 
# Type: IRSF
# Scales: 0.25 0.5 1 1.5 2 2.5 3 3.5 4 4.5 5 5.5 6 6.5 7 7.5 8 8.5 9 9.5 10
# StochasticallyHeated: 0 0 0 0 0 0 0 0 0 0 0 0 0 0 0 0 0 0 0 0 0
# Temperature: -1
# Wavelength  CExt  CAbs  CSca  Albedo G EqEm1 StEm1 EqEm2 StEm2 EqEm3 StEm3 EqEm4 StEm4 EqEm5 StEm5 EqEm6 StEm6 EqEm7 StEm7 EqEm8 StEm8 EqEm9 StEm9 EqEm10 StEm10 EqEm11 StEm11 EqEm12 StEm12 EqEm13 StEm13 EqEm14 StEm14 EqEm15 StEm15 EqEm16 StEm16 EqEm17 StEm17 EqEm18 StEm18 EqEm19 StEm19 EqEm20 StEm20 EqEm21 StEm21
0.05 1.96013e-10 9.83876e-11 9.7625e-11 0.498055 0.205904 0 0 0 0 0 0 0 0 0 0 0 0 0 0 0 0 0 0 0 0 0 0 0 0 0 0 0 0 0 0 0 0 0 0 0 0 0 0 0 0 0 0
0.0525665 2.16652e-10 1.08747e-10 1.07904e-10 0.498055 0.227585 0 0 0 0 0 0 0 0 0 0 0 0 0 0 0 0 0 0 0 0 0 0 0 0 0 0 0 0 0 0 0 0 0 0 0 0 0 0 0 0 0 0
0.0552647 2.39464e-10 1.20198e-10 1.19266e-10 0.498055 0.251549 0 0 0 0 0 0 0 0 0 0 0 0 0 0 0 0 0 0 0 0 0 0 0 0 0 0 0 0 0 0 0 0 0 0 0 0 0 0 0 0 0 0
0.0581015 2.64679e-10 1.32854e-10 1.31824e-10 0.498055 0.278035 0 0 0 0 0 0 0 0 0 0 0 0 0 0 0 0 0 0 0 0 0 0 0 0 0 0 0 0 0 0 0 0 0 0 0 0 0 0 0 0 0 0
0.0610839 2.92548e-10 1.46843e-10 1.45705e-10 0.498055 0.307311 0 0 0 0 0 0 0 0 0 0 0 0 0 0 0 0 0 0 0 0 0 0 0 0 0 0 0 0 0 0 0 0 0 0 0 0 0 0 0 0 0 0
0.0642193 3.23352e-10 1.62305e-10 1.61047e-10 0.498055 0.339669 0 0 0 0 0 0 0 0 0 0 0 0 0 0 0 0 0 0 0 0 0 0 0 0 0 0 0 0 0 0 0 0 0 0 0 0 0 0 0 0 0 0
0.0675157 3.57399e-10 1.79395e-10 1.78004e-10 0.498055 0.375435 0 0 0 0 0 0 0 0 0 0 0 0 0 0 0 0 0 0 0 0 0 0 0 0 0 0 0 0 0 0 0 0 0 0 0 0 0 0 0 0 0 0
0.0709813 3.95031e-10 1.98284e-10 1.96747e-10 0.498055 0.414966 0 0 0 0 0 0 0 0 0 0 0 0 0 0 0 0 0 0 0 0 0 0 0 0 0 0 0 0 0 0 0 0 0 0 0 0 0 0 0 0 0 0
0.0746248 4.36626e-10 2.19163e-10 2.17464e-10 0.498055 0.45866 0 0 0 0 0 0 0 0 0 0 0 0 0 0 0 0 0 0 0 0 0 0 0 0 0 0 0 0 0 0 0 0 0 0 0 0 0 0 0 0 0 0
0.0784553 4.82601e-10 2.42239e-10 2.40362e-10 0.498055 0.506955 0 0 0 0 0 0 0 0 0 0 0 0 0 0 0 0 0 0 0 0 0 0 0 0 0 0 0 0 0 0 0 0 0 0 0 0 0 0 0 0 0 0
0.0824824 5.33416e-10 2.67746e-10 2.65671e-10 0.498055 0.560335 0 0 0 0 0 0 0 0 0 0 0 0 0 0 0 0 0 0 0 0 0 0 0 0 0 0 0 0 0 0 0 0 0 0 0 0 0 0 0 0 0 0
0.0867162 5.89583e-10 2.95938e-10 2.93645e-10 0.498055 0.619336 0 0 0 0 0 0 0 0 0 0 0 0 0 0 0 0 0 0 0 0 0 0 0 0 0 0 0 0 0 0 0 0 0 0 0 0 0 0 0 0 0 0
0.0911674 6.51663e-10 3.27099e-10 3.24564e-10 0.498055 0.684549 0 0 0 0 0 0 0 0 0 0 0 0 0 0 0 0 0 0 0 0 0 0 0 0 0 0 0 0 0 0 0 0 0 0 0 0 0 0 0 0 0 0
0.095847 7.2028e-10 3.61541e-10 3.58739e-10 0.498055 0.756629 0 0 0 0 0 0 0 0 0 0 0 0 0 0 0 0 0 0 0 0 0 0 0 0 0 0 0 0 0 0 0 0 0 0 0 0 0 0 0 0 0 0
0.100767 7.85337e-10 3.94505e-10 3.90832e-10 0.497662 0.823148 0 0 0 0 0 0 0 0 0 0 0 0 0 0 0 0 0 0 0 0 0 0 0 0 0 0 0 0 0 0 0 0 0 0 0 0 0 0 0 0 0 0
0.105939 7.94077e-10 4.00818e-10 3.93259e-10 0.49524 0.823134 0 0 0 0 0 0 0 0 0 0 0 0 0 0 0 0 0 0 0 0 0 0 0 0 0 0 0 0 0 0 0 0 0 0 0 0 0 0 0 0 0 0
0.111377 8.02849e-10 4.07346e-10 3.95503e-10 0.492624 0.824125 0 0 0 0 0 0 0 0 0 0 0 0 0 0 0 0 0 0 0 0 0 0 0 0 0 0 0 0 0 0 0 0 0 0 0 0 0 0 0 0 0 0
0.117094 8.11725e-10 4.13869e-10 3.97856e-10 0.490136 0.82333 0 0 0 0 0 0 0 0 0 0 0 0 0 0 0 0 0 0 0 0 0 0 0 0 0 0 0 0 0 0 0 0 0 0 0 0 0 0 0 0 0 0
0.123105 8.20701e-10 4.20963e-10 3.99738e-10 0.487069 0.821123 0 0 0 0 0 0 0 0 0 0 0 0 0 0 0 0 0 0 0 0 0 0 0 0 0 0 0 0 0 0 0 0 0 0 0 0 0 0 0 0 0 0
0.129424 8.29542e-10 4.28703e-10 4.00838e-10 0.483204 0.817832 0 0 0 0 0 0 0 0 0 0 0 0 0 0 0 0 0 0 0 0 0 0 0 0 0 0 0 0 0 0 0 0 0 0 0 0 0 0 0 0 0 0
0.136067 8.38728e-10 4.36523e-10 4.02204e-10 0.479541 0.813395 0 0 0 0 0 0 0 0 0 0 0 0 0 0 0 0 0 0 0 0 0 0 0 0 0 0 0 0 0 0 0 0 0 0 0 0 0 0 0 0 0 0
0.143051 8.47513e-10 4.4603e-10 4.01483e-10 0.473719 0.807144 0 0 0 0 0 0 0 0 0 0 0 0 0 0 0 0 0 0 0 0 0 0 0 0 0 0 0 0 0 0 0 0 0 0 0 0 0 0 0 0 0 0
0.150394 8.53481e-10 4.56007e-10 3.97474e-10 0.465709 0.805264 0 0 0 0 0 0 0 0 0 0 0 0 0 0 0 0 0 0 0 0 0 0 0 0 0 0 0 0 0 0 0 0 0 0 0 0 0 0 0 0 0 0
0.158114 8.58743e-10 4.57475e-10 4.01268e-10 0.467273 0.798306 0 0 0 0 0 0 0 0 0 0 0 0 0 0 0 0 0 0 0 0 0 0 0 0 0 0 0 0 0 0 0 0 0 0 0 0 0 0 0 0 0 0
0.16623 8.94069e-10 4.31898e-10 4.6217e-10 0.516929 0.739004 0 0 0 0 0 0 0 0 0 0 0 0 0 0 0 0 0 0 0 0 0 0 0 0 0 0 0 0 0 0 0 0 0 0 0 0 0 0 0 0 0 0
0.174762 9.90517e-10 3.84064e-10 6.06453e-10 0.612259 0.629556 0 0 0 0 0 0 0 0 0 0 0 0 0 0 0 0 0 0 0 0 0 0 0 0 0 0 0 0 0 0 0 0 0 0 0 0 0 0 0 0 0 0
0.183733 1.12104e-09 3.14546e-10 8.06499e-10 0.719417 0.525419 0 0 0 0 0 0 0 0 0 0 0 0 0 0 0 0 0 0 0 0 0 0 0 0 0 0 0 0 0 0 0 0 0 0 0 0 0 0 0 0 0 0
0.193164 1.23004e-09 2.61452e-10 9.68592e-10 0.787445 0.513108 0 0 0 0 0 0 0 0 0 0 0 0 0 0 0 0 0 0 0 0 0 0 0 0 0 0 0 0 0 0 0 0 0 0 0 0 0 0 0 0 0 0
0.203079 1.26721e-09 2.48374e-10 1.01884e-09 0.804 0.597855 0 0 0 0 0 0 0 0 0 0 0 0 0 0 0 0 0 0 0 0 0 0 0 0 0 0 0 0 0 0 0 0 0 0 0 0 0 0 0 0 0 0
0.213503 1.23291e-09 2.26375e-10 1.00653e-09 0.816389 0.605837 0 0 0 0 0 0 0 0 0 0 0 0 0 0 0 0 0 0 0 0 0 0 0 0 0 0 0 0 0 0 0 0 0 0 0 0 0 0 0 0 0 0
0.224463 1.18788e-09 2.04183e-10 9.83702e-10 0.828112 0.57565 0 0 0 0 0 0 0 0 0 0 0 0 0 0 0 0 0 0 0 0 0 0 0 0 0 0 0 0 0 0 0 0 0 0 0 0 0 0 0 0 0 0
0.235984 1.14996e-09 1.9551e-10 9.54453e-10 0.829985 0.612054 0 0 0 0 0 0 0 0 0 0 0 0 0 0 0 0 0 0 0 0 0 0 0 0 0 0 0 0 0 0 0 0 0 0 0 0 0 0 0 0 0 0
0.248097 1.09519e-09 1.92193e-10 9.02999e-10 0.824512 0.65354 0 0 0 0 0 0 0 0 0 0 0 0 0 0 0 0 0 0 0 0 0 0 0 0 0 0 0 0 0 0 0 0 0 0 0 0 0 0 0 0 0 0
0.260832 1.01005e-09 1.84251e-10 8.25796e-10 0.817582 0.670515 0 0 0 0 0 0 0 0 0 0 0 0 0 0 0 0 0 0 0 0 0 0 0 0 0 0 0 0 0 0 0 0 0 0 0 0 0 0 0 0 0 0
0.274221 9.14858e-10 1.70125e-10 7.44733e-10 0.814043 0.656196 0 0 0 0 0 0 0 0 0 0 0 0 0 0 0 0 0 0 0 0 0 0 0 0 0 0 0 0 0 0 0 0 0 0 0 0 0 0 0 0 0 0
0.288297 8.34436e-10 1.56146e-10 6.78291e-10 0.812873 0.618022 0 0 0 0 0 0 0 0 0 0 0 0 0 0 0 0 0 0 0 0 0 0 0 0 0 0 0 0 0 0 0 0 0 0 0 0 0 0 0 0 0 0
0.303095 7.7199e-10 1.4633e-10 6.2566e-10 0.810451 0.581562 0 0 0 0 0 0 0 0 0 0 0 0 0 0 0 0 0 0 0 0 0 0 0 0 0 0 0 0 0 0 0 0 0 0 0 0 0 0 0 0 0 0
0.318653 7.18044e-10 1.40261e-10 5.77784e-10 0.804663 0.560968 0 0 0 0 0 0 0 0 0 0 0 0 0 0 0 0 0 0 0 0 0 0 0 0 0 0 0 0 0 0 0 0 0 0 0 0 0 0 0 0 0 0
0.335009 6.62244e-10 1.35514e-10 5.2673e-10 0.795371 0.557819 0 0 0 0 0 0 0 0 0 0 0 0 0 0 0 0 0 0 0 0 0 0 0 0 0 0 0 0 0 0 0 0 0 0 0 0 0 0 0 0 0 0
0.352205 6.00325e-10 1.29828e-10 4.70496e-10 0.783736 0.56829 0 0 0 0 0 0 0 0 0 0 0 0 0 0 0 0 0 0 0 0 0 0 0 0 0 0 0 0 0 0 0 0 0 0 0 0 0 0 0 0 0 0
0.370284 5.34863e-10 1.22244e-10 4.12619e-10 0.771448 0.583281 0 0 0 0 0 0 0 0 0 0 0 0 0 0 0 0 0 0 0 0 0 0 0 0 0 0 0 0 0 0 0 0 0 0 0 0 0 0 0 0 0 0
0.389291 4.70557e-10 1.13049e-10 3.57507e-10 0.759754 0.59004 0 0 0 0 0 0 0 0 0 0 0 0 0 0 0 0 0 0 0 0 0 0 0 0 0 0 0 0 0 0 0 0 0 0 0 0 0 0 0 0 0 0
0.409273 4.12395e-10 1.03381e-10 3.09014e-10 0.749316 0.577887 0 0 0 0 0 0 0 0 0 0 0 0 0 0 0 0 0 0 0 0 0 0 0 0 0 0 0 0 0 0 0 0 0 0 0 0 0 0 0 0 0 0
0.430281 3.61854e-10 9.41678e-11 2.67686e-10 0.739763 0.544317 0 0 0 0 0 0 0 0 0 0 0 0 0 0 0 0 0 0 0 0 0 0 0 0 0 0 0 0 0 0 0 0 0 0 0 0 0 0 0 0 0 0
0.452368 3.18586e-10 8.593e-11 2.32656e-10 0.730277 0.49618 0 0 0 0 0 0 0 0 0 0 0 0 0 0 0 0 0 0 0 0 0 0 0 0 0 0 0 0 0 0 0 0 0 0 0 0 0 0 0 0 0 0
0.475588 2.81179e-10 7.87572e-11 2.02422e-10 0.719904 0.442872 0 0 0 0 0 0 0 0 0 0 0 0 0 0 0 0 0 0 0 0 0 0 0 0 0 0 0 0 0 0 0 0 0 0 0 0 0 0 0 0 0 0
0.5 2.48335e-10 7.254e-11 1.75795e-10 0.707895 0.391207 0 0 0 0 0 0 0 0 0 0 0 0 0 0 0 0 0 0 0 0 0 0 0 0 0 0 0 0 0 0 0 0 0 0 0 0 0 0 0 0 0 0
0.525665 2.191e-10 6.70815e-11 1.52018e-10 0.693831 0.344544 0 0 0 0 0 0 0 0 0 0 0 0 0 0 0 0 0 0 0 0 0 0 0 0 0 0 0 0 0 0 0 0 0 0 0 0 0 0 0 0 0 0
0.552648 1.92897e-10 6.21993e-11 1.30698e-10 0.677552 0.303859 0 0 0 0 0 0 0 0 0 0 0 0 0 0 0 0 0 0 0 0 0 0 0 0 0 0 0 0 0 0 0 0 0 0 0 0 0 0 0 0 0 0
0.581015 1.69297e-10 5.77655e-11 1.11531e-10 0.658792 0.268882 0 0 0 0 0 0 0 0 0 0 0 0 0 0 0 0 0 0 0 0 0 0 0 0 0 0 0 0 0 0 0 0 0 0 0 0 0 0 0 0 0 0
0.610839 1.48232e-10 5.36944e-11 9.45376e-11 0.637768 0.238753 0 0 0 0 0 0 0 0 0 0 0 0 0 0 0 0 0 0 0 0 0 0 0 0 0 0 0 0 0 0 0 0 0 0 0 0 0 0 0 0 0 0
0.642193 1.29588e-10 4.99139e-11 7.96742e-11 0.614826 0.212726 0 0 0 0 0 0 0 0 0 0 0 0 0 0 0 0 0 0 0 0 0 0 0 0 0 0 0 0 0 0 0 0 0 0 0 0 0 0 0 0 0 0
0.675157 1.13184e-10 4.6417e-11 6.67668e-11 0.589897 0.190202 0 0 0 0 0 0 0 0 0 0 0 0 0 0 0 0 0 0 0 0 0 0 0 0 0 0 0 0 0 0 0 0 0 0 0 0 0 0 0 0 0 0
0.709813 9.88558e-11 4.31854e-11 5.56704e-11 0.563148 0.170524 0 0 0 0 0 0 0 0 0 0 0 0 0 0 0 0 0 0 0 0 0 0 0 0 0 0 0 0 0 0 0 0 0 0 0 0 0 0 0 0 0 0
0.746248 8.64397e-11 4.01983e-11 4.62414e-11 0.534956 0.153211 0 0 0 0 0 0 0 0 0 0 0 0 0 0 0 0 0 0 0 0 0 0 0 0 0 0 0 0 0 0 0 0 0 0 0 0 0 0 0 0 0 0
0.784553 7.57018e-11 3.74312e-11 3.82705e-11 0.505543 0.137895 0 0 0 0 0 0 0 0 0 0 0 0 0 0 0 0 0 0 0 0 0 0 0 0 0 0 0 0 0 0 0 0 0 0 0 0 0 0 0 0 0 0
0.824824 6.64726e-11 3.48785e-11 3.1594e-11 0.475294 0.124322 0 0 0 0 0 0 0 0 0 0 0 0 0 0 0 0 0 0 0 0 0 0 0 0 0 0 0 0 0 0 0 0 0 0 0 0 0 0 0 0 0 0
0.867162 5.85396e-11 3.25159e-11 2.60237e-11 0.444548 0.112219 0 0 0 0 0 0 0 0 0 0 0 0 0 0 0 0 0 0 0 0 0 0 0 0 0 0 0 0 0 0 0 0 0 0 0 0 0 0 0 0 0 0
0.911674 5.17498e-11 3.03611e-11 2.13887e-11 0.41331 0.101378 0 0 0 0 0 0 0 0 0 0 0 0 0 0 0 0 0 0 0 0 0 0 0 0 0 0 0 0 0 0 0 0 0 0 0 0 0 0 0 0 0 0
0.95847 4.59297e-11 2.83885e-11 1.75412e-11 0.381914 0.0916438 0 0 0 0 0 0 0 0 0 0 0 0 0 0 0 0 0 0 0 0 0 0 0 0 0 0 0 0 0 0 0 0 0 0 0 0 0 0 0 0 0 0
1.00767 4.09008e-11 2.65679e-11 1.43329e-11 0.35043 0.0828959 0 0 0 0 0 0 0 0 0 0 0 0 0 0 0 0 0 0 0 0 0 0 0 0 0 0 0 0 0 0 0 0 0 0 0 0 0 0 0 0 0 0
1.05939 3.71466e-11 2.54441e-11 1.17024e-11 0.315034 0.0750162 0 0 0 0 0 0 0 0 0 0 0 0 0 0 0 0 0 0 0 0 0 0 0 0 0 0 0 0 0 0 0 0 0 0 0 0 0 0 0 0 0 0
1.11377 3.40581e-11 2.4492e-11 9.56607e-12 0.280875 0.0678998 0 0 0 0 0 0 0 0 0 0 0 0 0 0 0 0 0 0 0 0 0 0 0 0 0 0 0 0 0 0 0 0 0 0 0 0 0 0 0 0 0 0
1.17094 3.15264e-11 2.3693e-11 7.83336e-12 0.24847 0.0614664 0 0 0 0 0 0 0 0 0 0 0 0 0 0 0 0 0 0 0 0 0 0 0 0 0 0 0 0 0 0 0 0 0 0 0 0 0 0 0 0 0 0
1.23105 2.93957e-11 2.29852e-11 6.41052e-12 0.218077 0.0556511 0 0 0 0 0 0 0 0 0 0 0 0 0 0 0 0 0 0 0 0 0 0 0 0 0 0 0 0 0 0 0 0 0 0 0 0 0 0 0 0 0 0
1.29424 2.75278e-11 2.22796e-11 5.24817e-12 0.19065 0.0503927 0 0 0 0 0 0 0 0 0 0 0 0 0 0 0 0 0 0 0 0 0 0 0 0 0 0 0 0 0 0 0 0 0 0 0 0 0 0 0 0 0 0
1.36067 2.58783e-11 2.15628e-11 4.31543e-12 0.166759 0.0456368 0 0 0 0 0 0 0 0 0 0 0 0 0 0 0 0 0 0 0 0 0 0 0 0 0 0 0 0 0 0 0 0 0 0 0 0 0 0 0 0 0 0
1.43051 2.43361e-11 2.08286e-11 3.50749e-12 0.144127 0.041322 0 0 0 0 0 0 0 0 0 0 0 0 0 0 0 0 0 0 0 0 0 0 0 0 0 0 0 0 0 0 0 0 0 0 0 0 0 0 0 0 0 0
1.50394 2.29812e-11 2.01167e-11 2.86456e-12 0.124648 0.0374165 0 0 0 0 0 0 0 0 0 0 0 0 0 0 0 0 0 0 0 0 0 0 0 0 0 0 0 0 0 0 0 0 0 0 0 0 0 0 0 0 0 0
1.58114 2.1792e-11 1.945e-11 2.34209e-12 0.107474 0.0338841 0 0 0 0 0 0 0 0 0 0 0 0 0 0 0 0 0 0 0 0 0 0 0 0 0 0 0 0 0 0 0 0 0 0 0 0 0 0 0 0 0 0
1.6623 2.07644e-11 1.88496e-11 1.91474e-12 0.0922128 0.0306786 0 0 0 0 0 0 0 0 0 0 0 0 0 0 0 0 0 0 0 0 0 0 0 0 0 0 0 0 0 0 0 0 0 0 0 0 0 0 0 0 0 0
1.74763 1.99016e-11 1.83365e-11 1.56518e-12 0.0786458 0.0277733 0 0 0 0 0 0 0 0 0 0 0 0 0 0 0 0 0 0 0 0 0 0 0 0 0 0 0 0 0 0 0 0 0 0 0 0 0 0 0 0 0 0
1.83733 1.92136e-11 1.79346e-11 1.27894e-12 0.0665643 0.0251389 0 0 0 0 0 0 0 0 0 0 0 0 0 0 0 0 0 0 0 0 0 0 0 0 0 0 0 0 0 0 0 0 0 0 0 0 0 0 0 0 0 0
1.93164 1.86971e-11 1.76525e-11 1.04465e-12 0.0558725 0.0227561 0 0 0 0 0 0 0 0 0 0 0 0 0 0 0 0 0 0 0 0 0 0 0 0 0 0 0 0 0 0 0 0 0 0 0 0 0 0 0 0 0 0
2.03079 1.83405e-11 1.74867e-11 8.53815e-13 0.0465535 0.0205977 0 0 0 0 0 0 0 0 0 0 0 0 0 0 0 0 0 0 0 0 0 0 0 0 0 0 0 0 0 0 0 0 0 0 0 0 0 0 0 0 0 0
2.13503 1.81084e-11 1.74098e-11 6.9854e-13 0.0385755 0.0186396 0 0 0 0 0 0 0 0 0 0 0 0 0 0 0 0 0 0 0 0 0 0 0 0 0 0 0 0 0 0 0 0 0 0 0 0 0 0 0 0 0 0
2.24463 1.79342e-11 1.73622e-11 5.72056e-13 0.0318975 0.0168641 0 0 0 0 0 0 0 0 0 0 0 0 0 0 0 0 0 0 0 0 0 0 0 0 0 0 0 0 0 0 0 0 0 0 0 0 0 0 0 0 0 0
2.35984 1.77954e-11 1.73266e-11 4.68766e-13 0.026342 0.0152586 0 0 0 0 0 0 0 0 0 0 0 0 0 0 0 0 0 0 0 0 0 0 0 0 0 0 0 0 0 0 0 0 0 0 0 0 0 0 0 0 0 0
2.48097 1.77094e-11 1.73251e-11 3.84281e-13 0.0216993 0.0138024 0 0 0 0 0 0 0 0 0 0 0 0 0 0 0 0 0 0 0 0 0 0 0 0 0 0 0 0 0 0 0 0 0 0 0 0 0 0 0 0 0 0
2.60832 1.76743e-11 1.7359e-11 3.15236e-13 0.0178358 0.0124832 0 0 0 0 0 0 0 0 0 0 0 0 0 0 0 0 0 0 0 0 0 0 0 0 0 0 0 0 0 0 0 0 0 0 0 0 0 0 0 0 0 0
2.74221 1.77097e-11 1.74509e-11 2.58804e-13 0.0146137 0.0112883 0 0 0 0 0 0 0 0 0 0 0 0 0 0 0 0 0 0 0 0 0 0 0 0 0 0 0 0 0 0 0 0 0 0 0 0 0 0 0 0 0 0
2.88297 1.78147e-11 1.76018e-11 2.12841e-13 0.0119475 0.0102055 0 0 0 0 0 0 0 0 0 0 0 0 0 0 0 0 0 0 0 0 0 0 0 0 0 0 0 0 0 0 0 0 0 0 0 0 0 0 0 0 0 0
3.03095 1.79835e-11 1.78078e-11 1.75722e-13 0.00977129 0.00922558 0 0 0 0 0 0 0 0 0 0 0 0 0 0 0 0 0 0 0 0 0 0 0 0 0 0 0 0 0 0 0 0 0 0 0 0 0 0 0 0 0 0
3.18653 1.79977e-11 1.78523e-11 1.45432e-13 0.00808058 0.0083378 0 0 0 0 0 0 0 0 0 0 0 0 0 0 0 0 0 0 0 0 0 0 0 0 0 0 0 0 0 0 0 0 0 0 0 0 0 0 0 0 0 0
3.35009 1.83794e-11 1.82605e-11 1.18862e-13 0.00646712 0.00753315 0 0 0 0 0 0 0 0 0 0 0 0 0 0 0 0 0 0 0 0 0 0 0 0 0 0 0 0 0 0 0 0 0 0 0 0 0 0 0 0 0 0
3.52205 1.82751e-11 1.81717e-11 1.03441e-13 0.00566022 0.00680433 0 0 0 0 0 0 0 0 0 0 0 0 0 0 0 0 0 0 0 0 0 0 0 0 0 0 0 0 0 0 0 0 0 0 0 0 0 0 0 0 0 0
3.70284 1.70156e-11 1.69315e-11 8.41279e-14 0.00494416 0.00614483 0 0 0 0 0 0 0 0 0 0 0 0 0 0 0 0 0 0 0 0 0 0 0 0 0 0 0 0 0 0 0 0 0 0 0 0 0 0 0 0 0 0
3.89291 1.66281e-11 1.65591e-11 6.89155e-14 0.00414453 0.00554685 0 0 0 0 0 0 0 0 0 0 0 0 0 0 0 0 0 0 0 0 0 0 0 0 0 0 0 0 0 0 0 0 0 0 0 0 0 0 0 0 0 0
4.09273 1.632e-11 1.62635e-11 5.64962e-14 0.00346178 0.00500431 0 0 0 0 0 0 0 0 0 0 0 0 0 0 0 0 0 0 0 0 0 0 0 0 0 0 0 0 0 0 0 0 0 0 0 0 0 0 0 0 0 0
4.30281 1.60918e-11 1.60455e-11 4.63347e-14 0.00287939 0.00451248 0 0 0 0 0 0 0 0 0 0 0 0 0 0 0 0 0 0 0 0 0 0 0 0 0 0 0 0 0 0 0 0 0 0 0 0 0 0 0 0 0 0
4.52368 1.59492e-11 1.59112e-11 3.80417e-14 0.00238518 0.00406723 0 0 0 0 0 0 0 0 0 0 0 0 0 0 0 0 0 0 0 0 0 0 0 0 0 0 0 0 0 0 0 0 0 0 0 0 0 0 0 0 0 0
4.75588 1.58704e-11 1.58391e-11 3.12858e-14 0.00197133 0.00366315 0 0 0 0 0 0 0 0 0 0 0 0 0 0 0 0 0 0 0 0 0 0 0 0 0 0 0 0 0 0 0 0 0 0 0 0 0 0 0 0 0 0
5 1.58085e-11 1.57827e-11 2.57831e-14 0.00163096 0.00329563 0 0 0 0 0 0 0 0 0 0 0 0 0 0 0 0 0 0 0 0 0 0 0 0 0 0 0 0 0 0 0 0 0 0 0 0 0 0 0 0 0 0
5.25665 1.57276e-11 1.57063e-11 2.12715e-14 0.00135249 0.00296154 0 0 0 0 0 0 0 0 0 0 0 0 0 0 0 0 0 0 0 0 0 0 0 0 0 0 0 0 0 0 0 0 0 0 0 0 0 0 0 0 0 0
5.52648 1.56272e-11 1.56097e-11 1.75485e-14 0.00112294 0.00265908 0 0 0 0 0 0 0 0 0 0 0 0 0 0 0 0 0 0 0 0 0 0 0 0 0 0 0 0 0 0 0 0 0 0 0 0 0 0 0 0 0 0
5.81015 1.54971e-11 1.54827e-11 1.44618e-14 0.000933193 0.00238331 0 0 0 0 0 0 0 0 0 0 0 0 0 0 0 0 0 0 0 0 0 0 0 0 0 0 0 0 0 0 0 0 0 0 0 0 0 0 0 0 1.4013e-45 0
6.10839 1.53539e-11 1.5342e-11 1.18925e-14 0.000774558 0.00213261 0 0 0 0 0 0 0 0 0 0 0 0 0 0 0 0 0 0 0 0 0 0 0 0 0 0 0 0 0 0 1.4013e-45 0 2.8026e-45 0 7.00649e-45 0 1.82169e-44 0 4.48416e-44 0 1.05097e-43 0
6.42193 1.51934e-11 1.51837e-11 9.7447e-15 0.000641376 0.00190385 0 0 0 0 0 0 0 0 0 0 0 0 0 0 0 0 0 0 0 0 0 0 0 0 2.8026e-45 0 8.40779e-45 0 3.22299e-44 0 9.94922e-44 0 2.85865e-43 0 7.81925e-43 0 1.9478e-42 0 4.66072e-42 0 1.04873e-41 0
6.75157 1.50755e-11 1.50676e-11 7.92203e-15 0.00052549 0.00169299 0 0 0 0 0 0 0 0 0 0 0 0 0 0 0 0 0 0 2.8026e-45 0 1.26117e-44 0 6.44597e-44 0 2.73253e-43 0 1.00893e-42 0 3.33509e-42 0 9.96603e-42 0 2.70759e-41 0 7.03942e-41 0 1.67742e-40 0 3.84682e-40 0 8.32008e-40 0
7.09813 1.48225e-11 1.48161e-11 6.43645e-15 0.000434234 0.00149442 0 0 0 0 0 0 0 0 0 0 0 0 0 0 4.2039e-45 0 3.64338e-44 0 2.55036e-43 0 1.4013e-42 0 6.41655e-42 0 2.53901e-41 0 8.77633e-41 0 2.7376e-40 0 7.7554e-40 0 2.00659e-39 0 4.97918e-39 0 1.13724e-38 0 2.50444e-38 0 5.21651e-38 0
7.46248 1.46169e-11 1.46118e-11 5.10039e-15 0.000348937 0.00130113 0 0 0 0 0 0 0 0 0 0 1.4013e-45 0 3.36312e-44 0 4.24593e-43 0 3.71484e-42 0 2.34451e-41 0 1.18827e-40 0 5.05049e-40 0 1.86867e-39 0 6.07959e-39 0 1.79394e-38 0 4.83017e-38 0 1.19305e-37 0 2.83197e-37 0 6.21256e-37 0 1.3164e-36 0 2.64545e-36 0
7.84553 1.44022e-11 1.43984e-11 3.85964e-15 0.00026799 0.00111677 0 0 0 0 0 0 0 0 4.2039e-45 0 1.75162e-43 0 3.37713e-42 0 3.76501e-41 0 2.96205e-40 0 1.70857e-39 0 8.00003e-39 0 3.16829e-38 0 1.09972e-37 0 3.37761e-37 0 9.45368e-37 0 2.42523e-36 0 5.7316e-36 0 1.30429e-35 0 2.75359e-35 0 5.62465e-35 0 1.09246e-34 0
8.24824 1.604e-11 1.60371e-11 2.83871e-15 0.000176977 0.000960071 0 0 0 0 0 0 4.2039e-45 0 5.25487e-43 0 1.8123e-41 0 3.01854e-40 0 2.99156e-39 0 2.12807e-38 0 1.12686e-37 0 4.8932e-37 0 1.81194e-36 0 5.91851e-36 0 1.72086e-35 0 4.58051e-35 0 1.12225e-34 0 2.54317e-34 0 5.55954e-34 0 1.13167e-33 0 2.23239e-33 0 4.19764e-33 0
8.67162 1.94707e-11 1.94682e-11 2.46094e-15 0.000126392 0.000835582 0 0 0 0 0 0 5.8294e-43 0 5.56007e-41 0 1.61524e-39 0 2.34506e-38 0 2.07788e-37 0 1.34309e-36 0 6.55613e-36 0 2.64993e-35 0 9.20504e-35 0 2.8379e-34 0 7.83247e-34 0 1.9875e-33 0 4.66103e-33 0 1.0149e-32 0 2.13551e-32 0 4.19866e-32 0 8.01227e-32 0 1.46084e-31 0
9.11674 2.67161e-11 2.67131e-11 2.92715e-15 0.000109565 0.000712869 0 0 0 0 1.06499e-43 0 6.92816e-41 0 5.28828e-39 0 1.30325e-37 0 1.66041e-36 0 1.32259e-35 0 7.80438e-35 0 3.52584e-34 0 1.33117e-33 0 4.35132e-33 0 1.26975e-32 0 3.33499e-32 0 8.08645e-32 0 1.81911e-31 0 3.81328e-31 0 7.73758e-31 0 1.4719e-30 0 2.72159e-30 0 4.81872e-30 0
9.5847 3.25794e-11 3.25754e-11 4.06208e-15 0.000124682 0.000637709 0 0 0 0 1.23188e-41 0 5.81241e-39 0 3.59029e-37 0 7.5665e-36 0 8.51378e-35 0 6.12816e-34 0 3.31592e-33 0 1.39172e-32 0 4.9244e-32 0 1.51924e-31 0 4.20742e-31 0 1.05418e-30 0 2.44793e-30 0 5.29308e-30 0 1.07018e-29 0 2.09777e-29 0 3.86719e-29 0 6.93913e-29 0 1.19482e-28 0
10.0767 3.15561e-11 3.15516e-11 4.472e-15 0.000141716 0.000605325 0 0 1.4013e-44 0 8.90845e-40 0 3.11195e-37 0 1.57171e-35 0 2.85435e-34 0 2.8537e-33 0 1.86537e-32 0 9.29474e-32 0 3.63723e-31 0 1.20998e-30 0 3.53314e-30 0 9.31004e-30 0 2.23036e-29 0 4.97044e-29 0 1.03503e-28 0 2.02195e-28 0 3.83532e-28 0 6.86232e-28 0 1.1967e-27 0 2.00659e-27 0
10.5939 2.68753e-11 2.68713e-11 3.9709e-15 0.000147753 0.000595114 0 0 1.20792e-42 0 4.53314e-38 0 1.18976e-35 0 4.96175e-34 0 7.82155e-33 0 6.98837e-32 0 4.16795e-31 0 1.92018e-30 0 7.02983e-30 0 2.20529e-29 0 6.11122e-29 0 1.53594e-28 0 3.52592e-28 0 7.55614e-28 0 1.51812e-27 0 2.87028e-27 0 5.27692e-27 0 9.17726e-27 0 1.55752e-26 0 2.54653e-26 0
11.1377 2.24547e-11 2.24513e-11 3.33763e-15 0.000148639 0.000609457 1.4013e-45 0 8.16116e-41 0 1.83082e-36 0 3.66097e-34 0 1.27253e-32 0 1.75329e-31 0 1.40767e-30 0 7.69452e-30 0 3.29011e-29 0 1.13057e-28 0 3.35409e-28 0 8.8435e-28 0 2.12485e-27 0 4.68389e-27 0 9.67102e-27 0 1.87795e-26 0 3.44189e-26 0 6.14245e-26 0 1.03978e-25 0 1.71967e-25 0 2.74495e-25 0
11.7094 1.80305e-11 1.80279e-11 2.60967e-15 0.000144736 0.000613179 9.24857e-44 0 4.22316e-39 0 5.809e-35 0 8.96832e-33 0 2.62146e-31 0 3.17766e-30 0 2.30455e-29 0 1.15945e-28 0 4.61817e-28 0 1.49411e-27 0 4.2034e-27 0 1.05705e-26 0 2.43338e-26 0 5.16094e-26 0 1.02854e-25 0 1.93357e-25 0 3.44055e-25 0 5.96886e-25 0 9.84756e-25 0 1.58915e-24 0 2.47936e-24 0
12.3105 1.44789e-11 1.44769e-11 1.94431e-15 0.000134286 0.00061002 6.474e-42 0 1.76162e-37 0 1.52167e-33 0 1.83685e-31 0 4.55342e-30 0 4.88649e-29 0 3.2171e-28 0 1.49579e-27 0 5.5691e-27 0 1.70138e-26 0 4.5508e-26 0 1.09402e-25 0 2.41804e-25 0 4.94356e-25 0 9.52598e-25 0 1.73646e-24 0 3.00409e-24 0 5.07334e-24 0 8.168e-24 0 1.28767e-23 0 1.96584e-23 0
