# 1.2589e-05 1 102 : grain size, compostion index, size index
# Heating and cooling timescale: 0.114285 919037
# Ratio of heating to cooling to determine stochastic cutoff: 100
# Equilibrium emission is recorded even for those grains in the stochastic regime.
# Emission spectrum was computed for: 
# Type: IRSF
# Scales: 0.25 0.5 1 1.5 2 2.5 3 3.5 4 4.5 5 5.5 6 6.5 7 7.5 8 8.5 9 9.5 10
# StochasticallyHeated: 0 0 0 0 0 0 0 0 0 0 0 0 0 0 0 0 0 0 0 0 0
# Temperature: -1
# Wavelength  CExt  CAbs  CSca  Albedo G EqEm1 StEm1 EqEm2 StEm2 EqEm3 StEm3 EqEm4 StEm4 EqEm5 StEm5 EqEm6 StEm6 EqEm7 StEm7 EqEm8 StEm8 EqEm9 StEm9 EqEm10 StEm10 EqEm11 StEm11 EqEm12 StEm12 EqEm13 StEm13 EqEm14 StEm14 EqEm15 StEm15 EqEm16 StEm16 EqEm17 StEm17 EqEm18 StEm18 EqEm19 StEm19 EqEm20 StEm20 EqEm21 StEm21
0.05 3.0454e-10 1.48357e-10 1.56183e-10 0.512848 0.208689 0 0 0 0 0 0 0 0 0 0 0 0 0 0 0 0 0 0 0 0 0 0 0 0 0 0 0 0 0 0 0 0 0 0 0 0 0 0 0 0 0 0
0.0525665 3.36606e-10 1.63978e-10 1.72628e-10 0.512848 0.230663 0 0 0 0 0 0 0 0 0 0 0 0 0 0 0 0 0 0 0 0 0 0 0 0 0 0 0 0 0 0 0 0 0 0 0 0 0 0 0 0 0 0
0.0552647 3.72049e-10 1.81245e-10 1.90805e-10 0.512848 0.254951 0 0 0 0 0 0 0 0 0 0 0 0 0 0 0 0 0 0 0 0 0 0 0 0 0 0 0 0 0 0 0 0 0 0 0 0 0 0 0 0 0 0
0.0581015 4.11224e-10 2.00329e-10 2.10896e-10 0.512848 0.281796 0 0 0 0 0 0 0 0 0 0 0 0 0 0 0 0 0 0 0 0 0 0 0 0 0 0 0 0 0 0 0 0 0 0 0 0 0 0 0 0 0 0
0.0610839 4.54524e-10 2.21422e-10 2.33102e-10 0.512848 0.311468 0 0 0 0 0 0 0 0 0 0 0 0 0 0 0 0 0 0 0 0 0 0 0 0 0 0 0 0 0 0 0 0 0 0 0 0 0 0 0 0 0 0
0.0642193 5.02383e-10 2.44737e-10 2.57646e-10 0.512848 0.344264 0 0 0 0 0 0 0 0 0 0 0 0 0 0 0 0 0 0 0 0 0 0 0 0 0 0 0 0 0 0 0 0 0 0 0 0 0 0 0 0 0 0
0.0675157 5.55282e-10 2.70507e-10 2.84775e-10 0.512848 0.380513 0 0 0 0 0 0 0 0 0 0 0 0 0 0 0 0 0 0 0 0 0 0 0 0 0 0 0 0 0 0 0 0 0 0 0 0 0 0 0 0 0 0
0.0709813 6.1375e-10 2.9899e-10 3.14761e-10 0.512848 0.42058 0 0 0 0 0 0 0 0 0 0 0 0 0 0 0 0 0 0 0 0 0 0 0 0 0 0 0 0 0 0 0 0 0 0 0 0 0 0 0 0 0 0
0.0746248 6.78375e-10 3.30472e-10 3.47904e-10 0.512848 0.464865 0 0 0 0 0 0 0 0 0 0 0 0 0 0 0 0 0 0 0 0 0 0 0 0 0 0 0 0 0 0 0 0 0 0 0 0 0 0 0 0 0 0
0.0784553 7.49805e-10 3.65269e-10 3.84536e-10 0.512848 0.513813 0 0 0 0 0 0 0 0 0 0 0 0 0 0 0 0 0 0 0 0 0 0 0 0 0 0 0 0 0 0 0 0 0 0 0 0 0 0 0 0 0 0
0.0824824 8.28756e-10 4.0373e-10 4.25026e-10 0.512848 0.567915 0 0 0 0 0 0 0 0 0 0 0 0 0 0 0 0 0 0 0 0 0 0 0 0 0 0 0 0 0 0 0 0 0 0 0 0 0 0 0 0 0 0
0.0867162 9.1602e-10 4.46241e-10 4.69779e-10 0.512848 0.627714 0 0 0 0 0 0 0 0 0 0 0 0 0 0 0 0 0 0 0 0 0 0 0 0 0 0 0 0 0 0 0 0 0 0 0 0 0 0 0 0 0 0
0.0911674 1.01247e-09 4.93228e-10 5.19245e-10 0.512848 0.693809 0 0 0 0 0 0 0 0 0 0 0 0 0 0 0 0 0 0 0 0 0 0 0 0 0 0 0 0 0 0 0 0 0 0 0 0 0 0 0 0 0 0
0.095847 1.11908e-09 5.45162e-10 5.73919e-10 0.512848 0.766863 0 0 0 0 0 0 0 0 0 0 0 0 0 0 0 0 0 0 0 0 0 0 0 0 0 0 0 0 0 0 0 0 0 0 0 0 0 0 0 0 0 0
0.100767 1.21986e-09 5.94751e-10 6.2511e-10 0.512443 0.83443 0 0 0 0 0 0 0 0 0 0 0 0 0 0 0 0 0 0 0 0 0 0 0 0 0 0 0 0 0 0 0 0 0 0 0 0 0 0 0 0 0 0
0.105939 1.23132e-09 6.03448e-10 6.27874e-10 0.509918 0.835423 0 0 0 0 0 0 0 0 0 0 0 0 0 0 0 0 0 0 0 0 0 0 0 0 0 0 0 0 0 0 0 0 0 0 0 0 0 0 0 0 0 0
0.111377 1.24267e-09 6.12416e-10 6.30258e-10 0.507179 0.837356 0 0 0 0 0 0 0 0 0 0 0 0 0 0 0 0 0 0 0 0 0 0 0 0 0 0 0 0 0 0 0 0 0 0 0 0 0 0 0 0 0 0
0.117094 1.25409e-09 6.21399e-10 6.32694e-10 0.504503 0.837588 0 0 0 0 0 0 0 0 0 0 0 0 0 0 0 0 0 0 0 0 0 0 0 0 0 0 0 0 0 0 0 0 0 0 0 0 0 0 0 0 0 0
0.123105 1.26538e-09 6.31153e-10 6.34224e-10 0.501213 0.836606 0 0 0 0 0 0 0 0 0 0 0 0 0 0 0 0 0 0 0 0 0 0 0 0 0 0 0 0 0 0 0 0 0 0 0 0 0 0 0 0 0 0
0.129424 1.27622e-09 6.4163e-10 6.34593e-10 0.497243 0.834486 0 0 0 0 0 0 0 0 0 0 0 0 0 0 0 0 0 0 0 0 0 0 0 0 0 0 0 0 0 0 0 0 0 0 0 0 0 0 0 0 0 0
0.136067 1.28791e-09 6.51957e-10 6.35951e-10 0.493786 0.831164 0 0 0 0 0 0 0 0 0 0 0 0 0 0 0 0 0 0 0 0 0 0 0 0 0 0 0 0 0 0 0 0 0 0 0 0 0 0 0 0 0 0
0.143051 1.30044e-09 6.65051e-10 6.35392e-10 0.488597 0.825783 0 0 0 0 0 0 0 0 0 0 0 0 0 0 0 0 0 0 0 0 0 0 0 0 0 0 0 0 0 0 0 0 0 0 0 0 0 0 0 0 0 0
0.150394 1.31485e-09 6.81875e-10 6.32976e-10 0.481405 0.824075 0 0 0 0 0 0 0 0 0 0 0 0 0 0 0 0 0 0 0 0 0 0 0 0 0 0 0 0 0 0 0 0 0 0 0 0 0 0 0 0 0 0
0.158114 1.32406e-09 6.9589e-10 6.28167e-10 0.474426 0.830889 0 0 0 0 0 0 0 0 0 0 0 0 0 0 0 0 0 0 0 0 0 0 0 0 0 0 0 0 0 0 0 0 0 0 0 0 0 0 0 0 0 0
0.16623 1.30379e-09 6.85148e-10 6.18643e-10 0.474496 0.832977 0 0 0 0 0 0 0 0 0 0 0 0 0 0 0 0 0 0 0 0 0 0 0 0 0 0 0 0 0 0 0 0 0 0 0 0 0 0 0 0 0 0
0.174762 1.28344e-09 6.33332e-10 6.50103e-10 0.506534 0.798926 0 0 0 0 0 0 0 0 0 0 0 0 0 0 0 0 0 0 0 0 0 0 0 0 0 0 0 0 0 0 0 0 0 0 0 0 0 0 0 0 0 0
0.183733 1.35573e-09 5.53592e-10 8.02137e-10 0.591665 0.641188 0 0 0 0 0 0 0 0 0 0 0 0 0 0 0 0 0 0 0 0 0 0 0 0 0 0 0 0 0 0 0 0 0 0 0 0 0 0 0 0 0 0
0.193164 1.54047e-09 4.75333e-10 1.06513e-09 0.691436 0.47609 0 0 0 0 0 0 0 0 0 0 0 0 0 0 0 0 0 0 0 0 0 0 0 0 0 0 0 0 0 0 0 0 0 0 0 0 0 0 0 0 0 0
0.203079 1.71562e-09 4.42776e-10 1.27284e-09 0.741915 0.456368 0 0 0 0 0 0 0 0 0 0 0 0 0 0 0 0 0 0 0 0 0 0 0 0 0 0 0 0 0 0 0 0 0 0 0 0 0 0 0 0 0 0
0.213503 1.84401e-09 4.17801e-10 1.4262e-09 0.773427 0.477389 0 0 0 0 0 0 0 0 0 0 0 0 0 0 0 0 0 0 0 0 0 0 0 0 0 0 0 0 0 0 0 0 0 0 0 0 0 0 0 0 0 0
0.224463 1.91368e-09 3.91155e-10 1.52252e-09 0.7956 0.505229 0 0 0 0 0 0 0 0 0 0 0 0 0 0 0 0 0 0 0 0 0 0 0 0 0 0 0 0 0 0 0 0 0 0 0 0 0 0 0 0 0 0
0.235984 1.95962e-09 3.82848e-10 1.57677e-09 0.804632 0.60832 0 0 0 0 0 0 0 0 0 0 0 0 0 0 0 0 0 0 0 0 0 0 0 0 0 0 0 0 0 0 0 0 0 0 0 0 0 0 0 0 0 0
0.248097 1.9559e-09 3.73915e-10 1.58199e-09 0.808827 0.642286 0 0 0 0 0 0 0 0 0 0 0 0 0 0 0 0 0 0 0 0 0 0 0 0 0 0 0 0 0 0 0 0 0 0 0 0 0 0 0 0 0 0
0.260832 1.89386e-09 3.50463e-10 1.5434e-09 0.814948 0.631707 0 0 0 0 0 0 0 0 0 0 0 0 0 0 0 0 0 0 0 0 0 0 0 0 0 0 0 0 0 0 0 0 0 0 0 0 0 0 0 0 0 0
0.274221 1.8205e-09 3.24842e-10 1.49566e-09 0.821564 0.624225 0 0 0 0 0 0 0 0 0 0 0 0 0 0 0 0 0 0 0 0 0 0 0 0 0 0 0 0 0 0 0 0 0 0 0 0 0 0 0 0 0 0
0.288297 1.76276e-09 3.11335e-10 1.45143e-09 0.823382 0.644541 0 0 0 0 0 0 0 0 0 0 0 0 0 0 0 0 0 0 0 0 0 0 0 0 0 0 0 0 0 0 0 0 0 0 0 0 0 0 0 0 0 0
0.303095 1.69547e-09 3.06359e-10 1.38912e-09 0.819308 0.668095 0 0 0 0 0 0 0 0 0 0 0 0 0 0 0 0 0 0 0 0 0 0 0 0 0 0 0 0 0 0 0 0 0 0 0 0 0 0 0 0 0 0
0.318653 1.59233e-09 2.97682e-10 1.29465e-09 0.813052 0.680344 0 0 0 0 0 0 0 0 0 0 0 0 0 0 0 0 0 0 0 0 0 0 0 0 0 0 0 0 0 0 0 0 0 0 0 0 0 0 0 0 0 0
0.335009 1.462e-09 2.79453e-10 1.18254e-09 0.808855 0.669214 0 0 0 0 0 0 0 0 0 0 0 0 0 0 0 0 0 0 0 0 0 0 0 0 0 0 0 0 0 0 0 0 0 0 0 0 0 0 0 0 0 0
0.352205 1.33814e-09 2.5746e-10 1.08068e-09 0.807599 0.637176 0 0 0 0 0 0 0 0 0 0 0 0 0 0 0 0 0 0 0 0 0 0 0 0 0 0 0 0 0 0 0 0 0 0 0 0 0 0 0 0 0 0
0.370284 1.23856e-09 2.3934e-10 9.99217e-10 0.806759 0.602407 0 0 0 0 0 0 0 0 0 0 0 0 0 0 0 0 0 0 0 0 0 0 0 0 0 0 0 0 0 0 0 0 0 0 0 0 0 0 0 0 0 0
0.389291 1.15645e-09 2.273e-10 9.29148e-10 0.80345 0.577379 0 0 0 0 0 0 0 0 0 0 0 0 0 0 0 0 0 0 0 0 0 0 0 0 0 0 0 0 0 0 0 0 0 0 0 0 0 0 0 0 0 0
0.409273 1.07769e-09 2.19061e-10 8.58628e-10 0.796731 0.567012 0 0 0 0 0 0 0 0 0 0 0 0 0 0 0 0 0 0 0 0 0 0 0 0 0 0 0 0 0 0 0 0 0 0 0 0 0 0 0 0 0 0
0.430281 9.91084e-10 2.11087e-10 7.79997e-10 0.787014 0.57095 0 0 0 0 0 0 0 0 0 0 0 0 0 0 0 0 0 0 0 0 0 0 0 0 0 0 0 0 0 0 0 0 0 0 0 0 0 0 0 0 0 0
0.452368 8.95152e-10 2.00797e-10 6.94355e-10 0.775684 0.582647 0 0 0 0 0 0 0 0 0 0 0 0 0 0 0 0 0 0 0 0 0 0 0 0 0 0 0 0 0 0 0 0 0 0 0 0 0 0 0 0 0 0
0.475588 7.95859e-10 1.8765e-10 6.0821e-10 0.764217 0.591337 0 0 0 0 0 0 0 0 0 0 0 0 0 0 0 0 0 0 0 0 0 0 0 0 0 0 0 0 0 0 0 0 0 0 0 0 0 0 0 0 0 0
0.5 7.01182e-10 1.72734e-10 5.28449e-10 0.753654 0.585999 0 0 0 0 0 0 0 0 0 0 0 0 0 0 0 0 0 0 0 0 0 0 0 0 0 0 0 0 0 0 0 0 0 0 0 0 0 0 0 0 0 0
0.525665 6.16625e-10 1.57725e-10 4.589e-10 0.744213 0.561419 0 0 0 0 0 0 0 0 0 0 0 0 0 0 0 0 0 0 0 0 0 0 0 0 0 0 0 0 0 0 0 0 0 0 0 0 0 0 0 0 0 0
0.552648 5.434e-10 1.43802e-10 3.99597e-10 0.735365 0.520416 0 0 0 0 0 0 0 0 0 0 0 0 0 0 0 0 0 0 0 0 0 0 0 0 0 0 0 0 0 0 0 0 0 0 0 0 0 0 0 0 0 0
0.581015 4.79862e-10 1.31475e-10 3.48387e-10 0.726014 0.470801 0 0 0 0 0 0 0 0 0 0 0 0 0 0 0 0 0 0 0 0 0 0 0 0 0 0 0 0 0 0 0 0 0 0 0 0 0 0 0 0 0 0
0.610839 4.24301e-10 1.20761e-10 3.0354e-10 0.715389 0.419357 0 0 0 0 0 0 0 0 0 0 0 0 0 0 0 0 0 0 0 0 0 0 0 0 0 0 0 0 0 0 0 0 0 0 0 0 0 0 0 0 0 0
0.642193 3.7505e-10 1.11379e-10 2.63671e-10 0.70303 0.370702 0 0 0 0 0 0 0 0 0 0 0 0 0 0 0 0 0 0 0 0 0 0 0 0 0 0 0 0 0 0 0 0 0 0 0 0 0 0 0 0 0 0
0.675157 3.30817e-10 1.03095e-10 2.27722e-10 0.688362 0.327211 0 0 0 0 0 0 0 0 0 0 0 0 0 0 0 0 0 0 0 0 0 0 0 0 0 0 0 0 0 0 0 0 0 0 0 0 0 0 0 0 0 0
0.709813 2.90943e-10 9.56531e-11 1.9529e-10 0.671231 0.289245 0 0 0 0 0 0 0 0 0 0 0 0 0 0 0 0 0 0 0 0 0 0 0 0 0 0 0 0 0 0 0 0 0 0 0 0 0 0 0 0 0 0
0.746248 2.55202e-10 8.88837e-11 1.66318e-10 0.651712 0.256402 0 0 0 0 0 0 0 0 0 0 0 0 0 0 0 0 0 0 0 0 0 0 0 0 0 0 0 0 0 0 0 0 0 0 0 0 0 0 0 0 0 0
0.784553 2.23285e-10 8.26412e-11 1.40644e-10 0.629884 0.228032 0 0 0 0 0 0 0 0 0 0 0 0 0 0 0 0 0 0 0 0 0 0 0 0 0 0 0 0 0 0 0 0 0 0 0 0 0 0 0 0 0 0
0.824824 1.95089e-10 7.68702e-11 1.18219e-10 0.605974 0.203533 0 0 0 0 0 0 0 0 0 0 0 0 0 0 0 0 0 0 0 0 0 0 0 0 0 0 0 0 0 0 0 0 0 0 0 0 0 0 0 0 0 0
0.867162 1.70331e-10 7.15036e-11 9.88277e-11 0.580209 0.182204 0 0 0 0 0 0 0 0 0 0 0 0 0 0 0 0 0 0 0 0 0 0 0 0 0 0 0 0 0 0 0 0 0 0 0 0 0 0 0 0 0 0
0.911674 1.48775e-10 6.65724e-11 8.22023e-11 0.552529 0.163503 0 0 0 0 0 0 0 0 0 0 0 0 0 0 0 0 0 0 0 0 0 0 0 0 0 0 0 0 0 0 0 0 0 0 0 0 0 0 0 0 0 0
0.95847 1.3009e-10 6.20337e-11 6.80561e-11 0.523147 0.147018 0 0 0 0 0 0 0 0 0 0 0 0 0 0 0 0 0 0 0 0 0 0 0 0 0 0 0 0 0 0 0 0 0 0 0 0 0 0 0 0 0 0
1.00767 1.13839e-10 5.7821e-11 5.6018e-11 0.492081 0.132431 0 0 0 0 0 0 0 0 0 0 0 0 0 0 0 0 0 0 0 0 0 0 0 0 0 0 0 0 0 0 0 0 0 0 0 0 0 0 0 0 0 0
1.05939 1.01117e-10 5.51253e-11 4.59917e-11 0.454837 0.119456 0 0 0 0 0 0 0 0 0 0 0 0 0 0 0 0 0 0 0 0 0 0 0 0 0 0 0 0 0 0 0 0 0 0 0 0 0 0 0 0 0 0
1.11377 9.05689e-11 5.28149e-11 3.77541e-11 0.416855 0.107857 0 0 0 0 0 0 0 0 0 0 0 0 0 0 0 0 0 0 0 0 0 0 0 0 0 0 0 0 0 0 0 0 0 0 0 0 0 0 0 0 0 0
1.17094 8.18728e-11 5.08555e-11 3.10173e-11 0.378848 0.0974558 0 0 0 0 0 0 0 0 0 0 0 0 0 0 0 0 0 0 0 0 0 0 0 0 0 0 0 0 0 0 0 0 0 0 0 0 0 0 0 0 0 0
1.23105 7.45521e-11 4.91057e-11 2.54464e-11 0.341324 0.0881146 0 0 0 0 0 0 0 0 0 0 0 0 0 0 0 0 0 0 0 0 0 0 0 0 0 0 0 0 0 0 0 0 0 0 0 0 0 0 0 0 0 0
1.29424 6.82525e-11 4.73806e-11 2.08718e-11 0.305803 0.0797104 0 0 0 0 0 0 0 0 0 0 0 0 0 0 0 0 0 0 0 0 0 0 0 0 0 0 0 0 0 0 0 0 0 0 0 0 0 0 0 0 0 0
1.36067 6.28492e-11 4.56606e-11 1.71886e-11 0.27349 0.0721389 0 0 0 0 0 0 0 0 0 0 0 0 0 0 0 0 0 0 0 0 0 0 0 0 0 0 0 0 0 0 0 0 0 0 0 0 0 0 0 0 0 0
1.43051 5.78903e-11 4.39078e-11 1.39825e-11 0.241534 0.0652892 0 0 0 0 0 0 0 0 0 0 0 0 0 0 0 0 0 0 0 0 0 0 0 0 0 0 0 0 0 0 0 0 0 0 0 0 0 0 0 0 0 0
1.50394 5.36574e-11 4.22304e-11 1.1427e-11 0.212963 0.0591031 0 0 0 0 0 0 0 0 0 0 0 0 0 0 0 0 0 0 0 0 0 0 0 0 0 0 0 0 0 0 0 0 0 0 0 0 0 0 0 0 0 0
1.58114 5.00189e-11 4.06712e-11 9.34763e-12 0.186882 0.0535168 0 0 0 0 0 0 0 0 0 0 0 0 0 0 0 0 0 0 0 0 0 0 0 0 0 0 0 0 0 0 0 0 0 0 0 0 0 0 0 0 0 0
1.6623 4.69139e-11 3.92697e-11 7.64425e-12 0.162942 0.0484532 0 0 0 0 0 0 0 0 0 0 0 0 0 0 0 0 0 0 0 0 0 0 0 0 0 0 0 0 0 0 0 0 0 0 0 0 0 0 0 0 0 0
1.74763 4.43167e-11 3.80671e-11 6.24963e-12 0.141022 0.0438673 0 0 0 0 0 0 0 0 0 0 0 0 0 0 0 0 0 0 0 0 0 0 0 0 0 0 0 0 0 0 0 0 0 0 0 0 0 0 0 0 0 0
1.83733 4.22173e-11 3.71104e-11 5.10684e-12 0.120966 0.039711 0 0 0 0 0 0 0 0 0 0 0 0 0 0 0 0 0 0 0 0 0 0 0 0 0 0 0 0 0 0 0 0 0 0 0 0 0 0 0 0 0 0
1.93164 4.05847e-11 3.64136e-11 4.17108e-12 0.102775 0.0359527 0 0 0 0 0 0 0 0 0 0 0 0 0 0 0 0 0 0 0 0 0 0 0 0 0 0 0 0 0 0 0 0 0 0 0 0 0 0 0 0 0 0
2.03079 3.93758e-11 3.59671e-11 3.40872e-12 0.0865689 0.0325488 0 0 0 0 0 0 0 0 0 0 0 0 0 0 0 0 0 0 0 0 0 0 0 0 0 0 0 0 0 0 0 0 0 0 0 0 0 0 0 0 0 0
2.13503 3.85017e-11 3.57133e-11 2.78848e-12 0.0724248 0.0294605 0 0 0 0 0 0 0 0 0 0 0 0 0 0 0 0 0 0 0 0 0 0 0 0 0 0 0 0 0 0 0 0 0 0 0 0 0 0 0 0 0 0
2.24463 3.78124e-11 3.55292e-11 2.28323e-12 0.0603832 0.02666 0 0 0 0 0 0 0 0 0 0 0 0 0 0 0 0 0 0 0 0 0 0 0 0 0 0 0 0 0 0 0 0 0 0 0 0 0 0 0 0 0 0
2.35984 3.72482e-11 3.53775e-11 1.87069e-12 0.0502222 0.024127 0 0 0 0 0 0 0 0 0 0 0 0 0 0 0 0 0 0 0 0 0 0 0 0 0 0 0 0 0 0 0 0 0 0 0 0 0 0 0 0 0 0
2.48097 3.68349e-11 3.53015e-11 1.53333e-12 0.0416272 0.0218291 0 0 0 0 0 0 0 0 0 0 0 0 0 0 0 0 0 0 0 0 0 0 0 0 0 0 0 0 0 0 0 0 0 0 0 0 0 0 0 0 0 0
2.60832 3.65623e-11 3.53047e-11 1.25757e-12 0.0343952 0.0197467 0 0 0 0 0 0 0 0 0 0 0 0 0 0 0 0 0 0 0 0 0 0 0 0 0 0 0 0 0 0 0 0 0 0 0 0 0 0 0 0 0 0
2.74221 3.64619e-11 3.54296e-11 1.03231e-12 0.028312 0.0178604 0 0 0 0 0 0 0 0 0 0 0 0 0 0 0 0 0 0 0 0 0 0 0 0 0 0 0 0 0 0 0 0 0 0 0 0 0 0 0 0 0 0
2.88297 3.65288e-11 3.56799e-11 8.48853e-13 0.0232379 0.0161502 0 0 0 0 0 0 0 0 0 0 0 0 0 0 0 0 0 0 0 0 0 0 0 0 0 0 0 0 0 0 0 0 0 0 0 0 0 0 0 0 0 0
3.03095 3.6747e-11 3.60462e-11 7.0075e-13 0.0190696 0.0146021 0 0 0 0 0 0 0 0 0 0 0 0 0 0 0 0 0 0 0 0 0 0 0 0 0 0 0 0 0 0 0 0 0 0 0 0 0 0 0 0 0 0
3.18653 3.66693e-11 3.60894e-11 5.79914e-13 0.0158147 0.0131993 0 0 0 0 0 0 0 0 0 0 0 0 0 0 0 0 0 0 0 0 0 0 0 0 0 0 0 0 0 0 0 0 0 0 0 0 0 0 0 0 0 0
3.35009 3.73424e-11 3.68685e-11 4.73855e-13 0.0126895 0.0119274 0 0 0 0 0 0 0 0 0 0 0 0 0 0 0 0 0 0 0 0 0 0 0 0 0 0 0 0 0 0 0 0 0 0 0 0 0 0 0 0 0 0
3.52205 3.70765e-11 3.6664e-11 4.12472e-13 0.0111249 0.0107752 0 0 0 0 0 0 0 0 0 0 0 0 0 0 0 0 0 0 0 0 0 0 0 0 0 0 0 0 0 0 0 0 0 0 0 0 0 0 0 0 0 0
3.70284 3.44615e-11 3.41261e-11 3.35411e-13 0.00973293 0.00973211 0 0 0 0 0 0 0 0 0 0 0 0 0 0 0 0 0 0 0 0 0 0 0 0 0 0 0 0 0 0 0 0 0 0 0 0 0 0 0 0 0 0
3.89291 3.36185e-11 3.33438e-11 2.74728e-13 0.00817194 0.00878619 0 0 0 0 0 0 0 0 0 0 0 0 0 0 0 0 0 0 0 0 0 0 0 0 0 0 0 0 0 0 0 0 0 0 0 0 0 0 0 0 0 0
4.09273 3.2946e-11 3.27208e-11 2.25188e-13 0.00683508 0.00792778 0 0 0 0 0 0 0 0 0 0 0 0 0 0 0 0 0 0 0 0 0 0 0 0 0 0 0 0 0 0 0 0 0 0 0 0 0 0 0 0 0 0
4.30281 3.24418e-11 3.22571e-11 1.84673e-13 0.00569243 0.00714945 0 0 0 0 0 0 0 0 0 0 0 0 0 0 0 0 0 0 0 0 0 0 0 0 0 0 0 0 0 0 0 0 0 0 0 0 0 0 0 0 0 0
4.52368 3.21162e-11 3.19646e-11 1.51595e-13 0.0047202 0.00644468 0 0 0 0 0 0 0 0 0 0 0 0 0 0 0 0 0 0 0 0 0 0 0 0 0 0 0 0 0 0 0 0 0 0 0 0 0 0 0 0 0 0
4.75588 3.19224e-11 3.17978e-11 1.24664e-13 0.00390522 0.00580498 0 0 0 0 0 0 0 0 0 0 0 0 0 0 0 0 0 0 0 0 0 0 0 0 0 0 0 0 0 0 0 0 0 0 0 0 0 0 0 0 0 0
5 3.17708e-11 3.16681e-11 1.0273e-13 0.00323349 0.00522303 0 0 0 0 0 0 0 0 0 0 0 0 0 0 0 0 0 0 0 0 0 0 0 0 0 0 0 0 0 0 0 0 0 0 0 0 0 0 0 0 0 0
5.25665 3.15822e-11 3.14975e-11 8.47482e-14 0.00268341 0.00469397 0 0 0 0 0 0 0 0 0 0 0 0 0 0 0 0 0 0 0 0 0 0 0 0 0 0 0 0 0 0 0 0 0 0 0 0 0 0 0 0 0 0
5.52648 3.1359e-11 3.12891e-11 6.99105e-14 0.00222936 0.0042149 0 0 0 0 0 0 0 0 0 0 0 0 0 0 0 0 0 0 0 0 0 0 0 0 0 0 0 0 0 0 0 0 0 0 0 0 0 0 0 0 0 0
5.81015 3.10778e-11 3.10202e-11 5.76084e-14 0.00185368 0.00377807 0 0 0 0 0 0 0 0 0 0 0 0 0 0 0 0 0 0 0 0 0 0 0 0 0 0 0 0 0 0 0 0 0 0 0 0 0 0 0 0 0 0
6.10839 3.07739e-11 3.07265e-11 4.73729e-14 0.00153939 0.0033809 0 0 0 0 0 0 0 0 0 0 0 0 0 0 0 0 0 0 0 0 0 0 0 0 0 0 0 0 0 0 0 0 1.4013e-45 0 4.2039e-45 0 1.26117e-44 0 3.36312e-44 0 7.84727e-44 0
6.42193 3.0437e-11 3.03982e-11 3.88139e-14 0.00127522 0.00301843 0 0 0 0 0 0 0 0 0 0 0 0 0 0 0 0 0 0 0 0 0 0 0 0 1.4013e-45 0 7.00649e-45 0 2.38221e-44 0 7.42688e-44 0 2.158e-43 0 5.87144e-43 0 1.49098e-42 0 3.63076e-42 0 8.30129e-42 0
6.75157 3.01861e-11 3.01545e-11 3.15517e-14 0.00104524 0.00268432 0 0 0 0 0 0 0 0 0 0 0 0 0 0 0 0 0 0 1.4013e-45 0 9.80909e-45 0 4.90454e-44 0 2.07392e-43 0 7.6651e-43 0 2.5952e-42 0 7.73377e-42 0 2.14371e-41 0 5.5476e-41 0 1.34525e-40 0 3.13646e-40 0 6.8878e-40 0
7.09813 2.96686e-11 2.96429e-11 2.56332e-14 0.000863985 0.00236966 0 0 0 0 0 0 0 0 0 0 0 0 0 0 2.8026e-45 0 2.66247e-44 0 1.9478e-43 0 1.0818e-42 0 5.10353e-42 0 2.02263e-41 0 6.99094e-41 0 2.23071e-40 0 6.30172e-40 0 1.66178e-39 0 4.10552e-39 0 9.53406e-39 0 2.13288e-38 0 4.50742e-38 0
7.46248 2.92436e-11 2.92233e-11 2.03108e-14 0.000694537 0.00206339 0 0 0 0 0 0 0 0 0 0 1.4013e-45 0 2.52234e-44 0 3.237e-43 0 2.87687e-42 0 1.88335e-41 0 9.60506e-41 0 4.20049e-40 0 1.55649e-39 0 5.06358e-39 0 1.52675e-38 0 4.09978e-38 0 1.03113e-37 0 2.43743e-37 0 5.43221e-37 0 1.1684e-36 0 2.38061e-36 0
7.84553 2.88018e-11 2.87865e-11 1.53676e-14 0.000533562 0.00177127 0 0 0 0 0 0 0 0 2.8026e-45 0 1.33123e-43 0 2.64565e-42 0 3.00887e-41 0 2.40192e-40 0 1.43453e-39 0 6.75669e-39 0 2.74947e-38 0 9.55698e-38 0 2.93508e-37 0 8.38547e-37 0 2.14573e-36 0 5.15909e-36 0 1.16936e-35 0 2.50611e-35 0 5.19249e-35 0 1.02183e-34 0
8.24824 3.20604e-11 3.20491e-11 1.13004e-14 0.000352471 0.00152292 0 0 0 0 0 0 2.8026e-45 0 4.02173e-43 0 1.44502e-41 0 2.47417e-40 0 2.49912e-39 0 1.80261e-38 0 9.86635e-38 0 4.30845e-37 0 1.6371e-36 0 5.35465e-36 0 1.55682e-35 0 4.22558e-35 0 1.03279e-34 0 2.37907e-34 0 5.18122e-34 0 1.06984e-33 0 2.13919e-33 0 4.07286e-33 0
8.67162 3.89023e-11 3.88925e-11 9.79503e-15 0.000251785 0.0013255 0 0 0 0 0 0 4.40008e-43 0 4.46033e-41 0 1.34645e-39 0 2.00695e-38 0 1.81074e-37 0 1.18597e-36 0 5.97425e-36 0 2.42768e-35 0 8.64254e-35 0 2.6679e-34 0 7.36284e-34 0 1.90336e-33 0 4.45346e-33 0 9.84915e-33 0 2.065e-32 0 4.11561e-32 0 7.95556e-32 0 1.4678e-31 0
9.11674 5.33673e-11 5.33556e-11 1.16502e-14 0.000218303 0.00113083 0 0 0 0 7.9874e-44 0 5.48538e-41 0 4.4347e-39 0 1.13353e-37 0 1.48078e-36 0 1.19996e-35 0 7.17022e-35 0 3.33778e-34 0 1.2666e-33 0 4.23802e-33 0 1.2382e-32 0 3.25193e-32 0 8.02561e-32 0 1.80148e-31 0 3.83267e-31 0 7.75041e-31 0 1.49354e-30 0 2.79561e-30 0 5.00595e-30 0
9.5847 6.50941e-11 6.50779e-11 1.61726e-14 0.000248449 0.00101137 0 0 0 0 9.6003e-42 0 4.81564e-39 0 3.14174e-37 0 6.85511e-36 0 7.89918e-35 0 5.77954e-34 0 3.16486e-33 0 1.36669e-32 0 4.85927e-32 0 1.5328e-31 0 4.24991e-31 0 1.06477e-30 0 2.51442e-30 0 5.42556e-30 0 1.11252e-29 0 2.1737e-29 0 4.05678e-29 0 7.36461e-29 0 1.28176e-28 0
10.0767 6.30738e-11 6.3056e-11 1.78123e-14 0.000282405 0.000959799 0 0 9.80909e-45 0 7.27141e-40 0 2.69249e-37 0 1.43244e-35 0 2.68877e-34 0 2.74974e-33 0 1.82559e-32 0 9.20047e-32 0 3.69918e-31 0 1.23626e-30 0 3.68695e-30 0 9.72605e-30 0 2.32991e-29 0 5.27594e-29 0 1.09648e-28 0 2.17088e-28 0 4.10512e-28 0 7.4315e-28 0 1.31039e-27 0 2.21977e-27 0
10.5939 5.37297e-11 5.37139e-11 1.58196e-14 0.000294429 0.000943434 0 0 9.41673e-43 0 3.86629e-38 0 1.07256e-35 0 4.69982e-34 0 7.64506e-33 0 6.97941e-32 0 4.22467e-31 0 1.96745e-30 0 7.39089e-30 0 2.32872e-29 0 6.58422e-29 0 1.65655e-28 0 3.80262e-28 0 8.27397e-28 0 1.65921e-27 0 3.17728e-27 0 5.8242e-27 0 1.02424e-26 0 1.75671e-26 0 2.90022e-26 0
11.1377 4.4894e-11 4.48807e-11 1.32975e-14 0.000296198 0.000966139 1.4013e-45 0 6.65743e-41 0 1.62788e-36 0 3.43136e-34 0 1.25018e-32 0 1.77473e-31 0 1.45438e-30 0 8.06254e-30 0 3.48308e-29 0 1.22657e-28 0 3.65408e-28 0 9.82034e-28 0 2.36191e-27 0 5.20622e-27 0 1.09061e-26 0 2.11399e-26 0 3.92176e-26 0 6.97929e-26 0 1.19401e-25 0 1.99465e-25 0 3.21341e-25 0
11.7094 3.60455e-11 3.60351e-11 1.0397e-14 0.000288442 0.000972097 7.00649e-44 0 3.59878e-39 0 5.37303e-35 0 8.72177e-33 0 2.66607e-31 0 3.3249e-30 0 2.45878e-29 0 1.25372e-28 0 5.04272e-28 0 1.66994e-27 0 4.7167e-27 0 1.20788e-26 0 2.78326e-26 0 5.90272e-26 0 1.19267e-25 0 2.23831e-25 0 4.02897e-25 0 6.97112e-25 0 1.16175e-24 0 1.89274e-24 0 2.97906e-24 0
12.3105 2.89414e-11 2.89337e-11 7.74544e-15 0.000267625 0.000967192 5.14977e-42 0 1.56479e-37 0 1.46125e-33 0 1.85008e-31 0 4.78564e-30 0 5.27643e-29 0 3.53881e-28 0 1.66646e-27 0 6.26249e-27 0 1.9561e-26 0 5.25187e-26 0 1.28458e-25 0 2.84177e-25 0 5.80962e-25 0 1.13423e-24 0 2.0642e-24 0 3.61047e-24 0 6.082e-24 0 9.88615e-24 0 1.57273e-23 0 2.42118e-23 0
12.9424 2.6295e-11 2.62893e-11 5.63078e-15 0.000214139 0.000925401 3.40918e-40 0 6.25901e-36 0 3.7405e-32 0 3.73891e-30 0 8.25123e-29 0 8.09141e-28 0 4.94524e-27 0 2.15908e-26 0 7.60589e-26 0 2.24721e-25 0 5.74943e-25 0 1.34619e-24 0 2.86483e-24 0 5.6558e-24 0 1.06871e-23 0 1.88893e-23 0 3.21493e-23 0 5.27956e-23 0 8.38065e-23 0 1.30335e-22 0 1.96464e-22 0
