# 1.7783e-06 1 68 : grain size, compostion index, size index
# Heating and cooling timescale: 39.802 17756.3
# Ratio of heating to cooling to determine stochastic cutoff: 100
# Equilibrium emission is recorded even for those grains in the stochastic regime.
# Emission spectrum was computed for: 
# Type: IRSF
# Scales: 0.25 0.5 1 1.5 2 2.5 3 3.5 4 4.5 5 5.5 6 6.5 7 7.5 8 8.5 9 9.5 10
# StochasticallyHeated: 1 1 1 1 1 0 0 0 0 0 0 0 0 0 0 0 0 0 0 0 0
# Temperature: -1
# Wavelength  CExt  CAbs  CSca  Albedo G EqEm1 StEm1 EqEm2 StEm2 EqEm3 StEm3 EqEm4 StEm4 EqEm5 StEm5 EqEm6 StEm6 EqEm7 StEm7 EqEm8 StEm8 EqEm9 StEm9 EqEm10 StEm10 EqEm11 StEm11 EqEm12 StEm12 EqEm13 StEm13 EqEm14 StEm14 EqEm15 StEm15 EqEm16 StEm16 EqEm17 StEm17 EqEm18 StEm18 EqEm19 StEm19 EqEm20 StEm20 EqEm21 StEm21
0.05 4.77133e-12 3.55401e-12 1.21733e-12 0.255133 0.0656135 0 0 0 0 0 0 0 0 0 0 0 0 0 0 0 0 0 0 0 0 0 0 0 0 0 0 0 0 0 0 0 0 0 0 0 0 0 0 0 0 0 0
0.0525665 5.27373e-12 3.92823e-12 1.3455e-12 0.255133 0.0725223 0 0 0 0 0 0 0 0 0 0 0 0 0 0 0 0 0 0 0 0 0 0 0 0 0 0 0 0 0 0 0 0 0 0 0 0 0 0 0 0 0 0
0.0552647 5.82903e-12 4.34185e-12 1.48718e-12 0.255133 0.0801585 0 0 0 0 0 0 0 0 0 0 0 0 0 0 0 0 0 0 0 0 0 0 0 0 0 0 0 0 0 0 0 0 0 0 0 0 0 0 0 0 0 0
0.0581015 6.4428e-12 4.79902e-12 1.64377e-12 0.255133 0.0885988 0 0 0 0 0 0 0 0 0 0 0 0 0 0 0 0 0 0 0 0 0 0 0 0 0 0 0 0 0 0 0 0 0 0 0 0 0 0 0 0 0 0
0.0610839 7.12119e-12 5.30434e-12 1.81685e-12 0.255133 0.0979278 0 0 0 0 0 0 0 0 0 0 0 0 0 0 0 0 0 0 0 0 0 0 0 0 0 0 0 0 0 0 0 0 0 0 0 0 0 0 0 0 0 0
0.0642193 7.87102e-12 5.86286e-12 2.00816e-12 0.255133 0.108239 0 0 0 0 0 0 0 0 0 0 0 0 0 0 0 0 0 0 0 0 0 0 0 0 0 0 0 0 0 0 0 0 0 0 0 0 0 0 0 0 0 0
0.0675157 8.6998e-12 6.48019e-12 2.21961e-12 0.255133 0.119636 0 0 0 0 0 0 0 0 0 0 0 0 0 0 0 0 0 0 0 0 0 0 0 0 0 0 0 0 0 0 0 0 0 0 0 0 0 0 0 0 0 0
0.0709813 9.61584e-12 7.16252e-12 2.45332e-12 0.255133 0.132233 0 0 0 0 0 0 0 0 0 0 0 0 0 0 0 0 0 0 0 0 0 0 0 0 0 0 0 0 0 0 0 0 0 0 0 0 0 0 0 0 0 0
0.0746248 1.06283e-11 7.9167e-12 2.71164e-12 0.255133 0.146157 0 0 0 0 0 0 0 0 0 0 0 0 0 0 0 0 0 0 0 0 0 0 0 0 0 0 0 0 0 0 0 0 0 0 0 0 0 0 0 0 0 0
0.0784553 1.17475e-11 8.75029e-12 2.99717e-12 0.255133 0.161546 0 0 0 0 0 0 0 0 0 0 0 0 0 0 0 0 0 0 0 0 0 0 0 0 0 0 0 0 0 0 0 0 0 0 0 0 0 0 0 0 0 0
0.0824824 1.29844e-11 9.67165e-12 3.31275e-12 0.255133 0.178556 0 0 0 0 0 0 0 0 0 0 0 0 0 0 0 0 0 0 0 0 0 0 0 0 0 0 0 0 0 0 0 0 0 0 0 0 0 0 0 0 0 0
0.0867162 1.43516e-11 1.069e-11 3.66157e-12 0.255133 0.197358 0 0 0 0 0 0 0 0 0 0 0 0 0 0 0 0 0 0 0 0 0 0 0 0 0 0 0 0 0 0 0 0 0 0 0 0 0 0 0 0 0 0
0.0911674 1.58628e-11 1.18156e-11 4.04712e-12 0.255133 0.218139 0 0 0 0 0 0 0 0 0 0 0 0 0 0 0 0 0 0 0 0 0 0 0 0 0 0 0 0 0 0 0 0 0 0 0 0 0 0 0 0 0 0
0.095847 1.7533e-11 1.30598e-11 4.47326e-12 0.255133 0.241107 0 0 0 0 0 0 0 0 0 0 0 0 0 0 0 0 0 0 0 0 0 0 0 0 0 0 0 0 0 0 0 0 0 0 0 0 0 0 0 0 0 0
0.100767 1.90427e-11 1.41919e-11 4.85083e-12 0.254734 0.259446 0 0 0 0 0 0 0 0 0 0 0 0 0 0 0 0 0 0 0 0 0 0 0 0 0 0 0 0 0 0 0 0 0 0 0 0 0 0 0 0 0 0
0.105939 1.86879e-11 1.39649e-11 4.72296e-12 0.252728 0.243963 0 0 0 0 0 0 0 0 0 0 0 0 0 0 0 0 0 0 0 0 0 0 0 0 0 0 0 0 0 0 0 0 0 0 0 0 0 0 0 0 0 0
0.111377 1.80617e-11 1.35318e-11 4.52993e-12 0.250803 0.228255 0 0 0 0 0 0 0 0 0 0 0 0 0 0 0 0 0 0 0 0 0 0 0 0 0 0 0 0 0 0 0 0 0 0 0 0 0 0 0 0 0 0
0.117094 1.71708e-11 1.28816e-11 4.28919e-12 0.249796 0.212244 0 0 0 0 0 0 0 0 0 0 0 0 0 0 0 0 0 0 0 0 0 0 0 0 0 0 0 0 0 0 0 0 0 0 0 0 0 0 0 0 0 0
0.123105 1.58431e-11 1.18824e-11 3.9607e-12 0.249995 0.196695 0 0 0 0 0 0 0 0 0 0 0 0 0 0 0 0 0 0 0 0 0 0 0 0 0 0 0 0 0 0 0 0 0 0 0 0 0 0 0 0 0 0
0.129424 1.41365e-11 1.06042e-11 3.53233e-12 0.249873 0.182136 0 0 0 0 0 0 0 0 0 0 0 0 0 0 0 0 0 0 0 0 0 0 0 0 0 0 0 0 0 0 0 0 0 0 0 0 0 0 0 0 0 0
0.136067 1.23271e-11 9.18063e-12 3.14642e-12 0.255245 0.169134 0 0 0 0 0 0 0 0 0 0 0 0 0 0 0 0 0 0 0 0 0 0 0 0 0 0 0 0 0 0 0 0 0 0 0 0 0 0 0 0 0 0
0.143051 1.00115e-11 7.31453e-12 2.69698e-12 0.269388 0.159388 0 0 0 0 0 0 0 0 0 0 0 0 0 0 0 0 0 0 0 0 0 0 0 0 0 0 0 0 0 0 0 0 0 0 0 0 0 0 0 0 0 0
0.150394 7.41793e-12 5.24035e-12 2.17758e-12 0.293557 0.151595 0 0 0 0 0 0 0 0 0 0 0 0 0 0 0 0 0 0 0 0 0 0 0 0 0 0 0 0 0 0 0 0 0 0 0 0 0 0 0 0 0 0
0.158114 5.08487e-12 3.42611e-12 1.65876e-12 0.326215 0.137242 0 0 0 0 0 0 0 0 0 0 0 0 0 0 0 0 0 0 0 0 0 0 0 0 0 0 0 0 0 0 0 0 0 0 0 0 0 0 0 0 0 0
0.16623 3.38507e-12 2.16651e-12 1.21855e-12 0.359979 0.1201 0 0 0 0 0 0 0 0 0 0 0 0 0 0 0 0 0 0 0 0 0 0 0 0 0 0 0 0 0 0 0 0 0 0 0 0 0 0 0 0 0 0
0.174762 2.38465e-12 1.48972e-12 8.94928e-13 0.375287 0.104613 0 0 0 0 0 0 0 0 0 0 0 0 0 0 0 0 0 0 0 0 0 0 0 0 0 0 0 0 0 0 0 0 0 0 0 0 0 0 0 0 0 0
0.183733 1.68607e-12 1.02714e-12 6.58929e-13 0.390809 0.0914928 0 0 0 0 0 0 0 0 0 0 0 0 0 0 0 0 0 0 0 0 0 0 0 0 0 0 0 0 0 0 0 0 0 0 0 0 0 0 0 0 0 0
0.193164 1.24414e-12 7.54367e-13 4.89768e-13 0.393662 0.0805411 0 0 0 0 0 0 0 0 0 0 0 0 0 0 0 0 0 0 0 0 0 0 0 0 0 0 0 0 0 0 0 0 0 0 0 0 0 0 0 0 0 0
0.203079 1.04848e-12 6.79346e-13 3.69137e-13 0.352068 0.0712774 0 0 0 0 0 0 0 0 0 0 0 0 0 0 0 0 0 0 0 0 0 0 0 0 0 0 0 0 0 0 0 0 0 0 0 0 0 0 0 0 0 0
0.213503 9.20919e-13 6.37377e-13 2.83542e-13 0.30789 0.0633117 0 0 0 0 0 0 0 0 0 0 0 0 0 0 0 0 0 0 0 0 0 0 0 0 0 0 0 0 0 0 0 0 0 0 0 0 0 0 0 0 0 0
0.224463 8.14285e-13 5.92277e-13 2.22008e-13 0.272642 0.0564563 0 0 0 0 0 0 0 0 0 0 0 0 0 0 0 0 0 0 0 0 0 0 0 0 0 0 0 0 0 0 0 0 0 0 0 0 0 0 0 0 0 0
0.235984 7.32134e-13 5.57079e-13 1.75055e-13 0.239103 0.0505449 0 0 0 0 0 0 0 0 0 0 0 0 0 0 0 0 0 0 0 0 0 0 0 0 0 0 0 0 0 0 0 0 0 0 0 0 0 0 0 0 0 0
0.248097 6.65324e-13 5.26491e-13 1.38834e-13 0.208671 0.0453875 0 0 0 0 0 0 0 0 0 0 0 0 0 0 0 0 0 0 0 0 0 0 0 0 0 0 0 0 0 0 0 0 0 0 0 0 0 0 0 0 0 0
0.260832 6.11198e-13 5.00339e-13 1.10859e-13 0.181379 0.0408271 0 0 0 0 0 0 0 0 0 0 0 0 0 0 0 0 0 0 0 0 0 0 0 0 0 0 0 0 0 0 0 0 0 0 0 0 0 0 0 0 0 0
0.274221 5.644e-13 4.75531e-13 8.88697e-14 0.157459 0.0367645 0 0 0 0 0 0 0 0 0 0 0 0 0 0 0 0 0 0 0 0 0 0 0 0 0 0 0 0 0 0 0 0 0 0 0 0 0 0 0 0 0 0
0.288297 5.23182e-13 4.51669e-13 7.15134e-14 0.136689 0.0331421 0 0 0 0 0 0 0 0 0 0 0 0 0 0 0 0 0 0 0 0 0 0 0 0 0 0 0 0 0 0 0 0 0 0 0 0 0 0 0 0 0 0
0.303095 4.86502e-13 4.2881e-13 5.76923e-14 0.118586 0.0298994 0 0 0 0 0 0 0 0 0 0 0 0 0 0 0 0 0 0 0 0 0 0 0 0 0 0 0 0 0 0 0 0 0 0 0 0 0 0 0 0 0 0
0.318653 4.53564e-13 4.069e-13 4.66642e-14 0.102883 0.0269855 0 0 0 0 0 0 0 0 0 0 0 0 0 0 0 0 0 0 0 0 0 0 0 0 0 0 0 0 0 0 0 0 0 0 0 0 0 0 0 0 0 0
0.335009 4.23813e-13 3.8599e-13 3.78228e-14 0.0892441 0.0243656 0 0 0 0 0 0 0 0 0 0 0 0 0 0 0 0 0 0 0 0 0 0 0 0 0 0 0 0 0 0 0 0 0 0 0 0 0 0 0 0 0 0
0.352205 3.96818e-13 3.6611e-13 3.07076e-14 0.0773846 0.0220085 0 0 0 0 0 0 0 0 0 0 0 0 0 0 0 0 0 0 0 0 0 0 0 0 0 0 0 0 0 0 0 0 0 0 0 0 0 0 0 0 0 0
0.370284 3.72179e-13 3.472e-13 2.49793e-14 0.0671164 0.0198856 0 0 0 0 0 0 0 0 0 0 0 0 0 0 0 0 0 0 0 0 0 0 0 0 0 0 0 0 0 0 0 0 0 0 0 0 0 0 0 0 0 0
0.389291 3.49594e-13 3.29257e-13 2.03376e-14 0.0581748 0.0179723 0 0 0 0 0 0 0 0 0 0 0 0 0 0 0 0 0 0 0 0 0 0 0 0 0 0 0 0 0 0 0 0 0 0 0 0 0 0 0 0 0 0
0.409273 3.28797e-13 3.12216e-13 1.65811e-14 0.0504297 0.0162457 0 0 0 0 0 0 0 0 0 0 0 0 0 0 0 0 0 0 0 0 0 0 0 0 0 0 0 0 0 0 0 0 0 0 0 0 0 0 0 0 0 0
0.430281 3.09627e-13 2.96098e-13 1.35294e-14 0.0436957 0.0146862 0 0 0 0 0 0 0 0 0 0 0 0 0 0 0 0 0 0 0 0 0 0 0 0 0 0 0 0 0 0 0 0 0 0 0 0 0 0 0 0 0 0
0.452368 2.9187e-13 2.80823e-13 1.1047e-14 0.0378489 0.0132816 0 0 0 0 0 0 0 0 0 0 0 0 0 0 0 0 0 0 0 0 0 0 0 0 0 0 0 0 0 0 0 0 0 0 0 0 0 0 0 0 0 0
0.475588 2.75372e-13 2.66346e-13 9.02552e-15 0.0327758 0.0120114 0 0 0 0 0 0 0 0 0 0 0 0 0 0 0 0 0 0 0 0 0 0 0 0 0 0 0 0 0 0 0 0 0 0 0 0 0 0 0 0 0 0
0.5 2.60011e-13 2.52632e-13 7.37867e-15 0.0283783 0.0108628 0 0 0 0 0 0 0 0 0 0 0 0 0 0 0 0 0 0 0 0 0 0 0 0 0 0 0 0 0 0 0 0 0 0 0 0 0 0 0 0 0 0
0.525665 2.45683e-13 2.39646e-13 6.03667e-15 0.024571 0.00982448 0 0 0 0 0 0 0 0 0 0 0 0 0 0 0 0 0 0 0 0 0 0 0 0 0 0 0 0 0 0 0 0 0 0 0 0 0 0 0 0 0 0
0.552648 2.32271e-13 2.2733e-13 4.94166e-15 0.0212754 0.00888655 0 0 0 0 0 0 0 0 0 0 0 0 0 0 0 0 0 0 0 0 0 0 0 0 0 0 0 0 0 0 0 0 0 0 0 0 0 0 0 0 0 0
0.581015 2.19759e-13 2.15714e-13 4.04411e-15 0.0184025 0.00804008 0 0 0 0 0 0 0 0 0 0 0 0 0 0 0 0 0 0 0 0 0 0 0 0 0 0 0 0 0 0 0 0 0 0 0 0 0 0 0 0 0 0
0.610839 2.08025e-13 2.04714e-13 3.31031e-15 0.0159131 0.00727355 0 0 0 0 0 0 0 0 0 0 0 0 0 0 0 0 0 0 0 0 0 0 0 0 0 0 0 0 0 0 0 0 0 0 0 0 0 0 0 0 0 0
0.642193 1.96922e-13 1.9421e-13 2.71121e-15 0.013768 0.00657949 0 0 0 0 0 0 0 0 0 0 0 0 0 0 0 0 0 0 0 0 0 0 0 0 0 0 0 0 0 0 0 0 0 0 0 0 0 0 0 0 0 0
0.675157 1.86534e-13 1.84313e-13 2.22059e-15 0.0119045 0.00595311 0 0 0 0 0 0 0 0 0 0 0 0 0 0 0 0 0 0 0 0 0 0 0 0 0 0 0 0 0 0 0 0 0 0 0 0 0 0 0 0 0 0
0.709813 1.76817e-13 1.74999e-13 1.81848e-15 0.0102845 0.00538644 0 0 0 0 0 0 0 0 0 0 0 0 0 0 0 0 0 0 0 0 0 0 0 0 0 0 0 0 0 0 0 0 0 0 0 0 0 0 0 0 0 0
0.746248 1.67691e-13 1.66202e-13 1.48941e-15 0.00888185 0.00487333 0 0 0 0 0 0 0 0 0 0 0 0 0 0 0 0 0 0 0 0 0 0 0 0 0 0 0 0 0 0 0 0 0 0 0 0 0 0 0 0 0 0
0.784553 1.59088e-13 1.57868e-13 1.21964e-15 0.00766649 0.00440871 0 0 0 0 0 0 0 0 0 0 0 0 0 0 0 0 0 0 0 0 0 0 0 0 0 0 0 0 0 0 0 0 0 0 0 0 0 0 0 0 0 0
0.824824 1.50989e-13 1.4999e-13 9.98842e-16 0.00661531 0.0039893 0 0 0 0 0 0 0 0 0 0 0 0 0 0 0 0 0 0 0 0 0 0 0 0 0 0 0 0 0 0 0 0 0 0 0 0 0 0 0 0 0 0
0.867162 1.43307e-13 1.42489e-13 8.17921e-16 0.00570746 0.00360991 0 0 0 0 0 0 0 0 0 0 0 0 0 0 0 0 0 0 0 0 0 0 0 0 0 0 0 0 0 0 0 0 0 0 0 0 0 0 0 0 0 0
0.911674 1.36151e-13 1.35481e-13 6.6948e-16 0.00491719 0.0032664 0 0 0 0 0 0 0 0 0 0 0 0 0 0 0 0 0 0 0 0 0 0 0 0 0 0 0 0 0 0 0 0 0 0 0 0 0 0 0 0 0 0
0.95847 1.29461e-13 1.28914e-13 5.47541e-16 0.00422939 0.00295543 0 0 0 0 0 0 0 0 0 0 0 0 0 0 0 0 0 0 0 0 0 0 0 0 0 0 0 0 0 0 0 0 0 0 0 0 0 0 0 0 0 0
1.00767 1.2315e-13 1.22703e-13 4.46709e-16 0.00362737 0.0026743 0 0 0 0 0 0 0 0 0 0 0 0 0 0 0 0 0 0 0 0 0 0 0 0 0 0 0 0 0 0 0 0 0 0 0 0 0 0 0 0 0 0
1.05939 1.19784e-13 1.19419e-13 3.64521e-16 0.00304316 0.00242 0 0 0 0 0 0 0 0 0 0 0 0 0 0 0 0 0 0 0 0 0 0 0 0 0 0 0 0 0 0 0 0 0 0 0 0 0 0 0 0 0 0
1.11377 1.1697e-13 1.16673e-13 2.97892e-16 0.00254673 0.00218969 0 0 0 0 0 0 0 0 0 0 0 0 0 0 0 0 0 0 0 0 0 0 0 0 0 0 0 0 0 0 0 0 0 0 0 0 0 0 0 0 0 0
1.17094 1.1467e-13 1.14426e-13 2.43948e-16 0.00212739 0.00198113 0 0 0 0 0 0 0 0 0 0 0 0 0 0 0 0 0 0 0 0 0 0 0 0 0 0 0 0 0 0 0 0 0 0 0 0 0 0 0 0 0 0
1.23105 1.12649e-13 1.12449e-13 1.99702e-16 0.00177278 0.00179245 0 0 0 0 0 0 0 0 0 0 0 0 0 0 0 0 0 0 0 0 0 0 0 0 0 0 0 0 0 0 0 0 0 0 0 0 0 0 0 0 0 0
1.29424 1.10456e-13 1.10292e-13 1.63569e-16 0.00148086 0.00162178 0 0 0 0 0 0 0 0 0 0 0 0 0 0 0 0 0 0 0 0 0 0 0 0 0 0 0 0 0 0 0 0 0 0 0 0 0 0 0 0 0 0
1.36067 1.08028e-13 1.07894e-13 1.34545e-16 0.00124546 0.00146747 0 0 0 0 0 0 0 0 0 0 0 0 0 0 0 0 0 0 0 0 0 0 0 0 0 0 0 0 0 0 0 0 0 0 0 0 0 0 0 0 0 0
1.43051 1.0543e-13 1.05321e-13 1.09469e-16 0.00103831 0.00132754 0 0 0 0 0 0 0 0 0 0 0 0 0 0 0 0 0 0 0 0 0 0 0 0 0 0 0 0 0 0 0 0 0 0 0 0 0 0 0 0 0 0
1.50394 1.02774e-13 1.02684e-13 8.94763e-17 0.000870617 0.001201 0 0 0 0 0 0 0 0 0 0 0 0 0 0 0 0 0 0 0 0 0 0 0 0 0 0 0 0 0 0 0 0 0 0 0 0 0 0 0 0 0 0
1.58114 1.00215e-13 1.00142e-13 7.32134e-17 0.000730563 0.00108666 0 0 0 0 0 0 0 0 0 0 0 0 0 0 0 0 0 0 0 0 0 0 0 0 0 0 0 0 0 0 0 0 0 0 0 0 0 0 0 0 0 0
1.6623 9.78763e-14 9.78164e-14 5.99023e-17 0.000612021 0.000983013 0 0 0 0 0 0 0 0 0 0 0 0 0 0 0 0 0 0 0 0 0 0 0 0 0 0 0 0 0 0 0 0 0 0 0 0 0 0 0 0 0 0
1.74763 9.5899e-14 9.585e-14 4.9005e-17 0.000511006 0.000889186 0 0 0 0 0 0 0 0 0 0 0 0 0 0 0 0 0 0 0 0 0 0 0 0 0 0 0 0 0 0 0 0 0 0 0 0 0 0 0 0 0 0
1.83733 9.44154e-14 9.43753e-14 4.00744e-17 0.000424448 0.000804207 0 0 0 0 0 0 0 0 0 0 0 0 0 0 0 0 0 0 0 0 0 0 0 0 0 0 0 0 0 0 0 0 0 0 0 0 0 0 0 0 0 0
1.93164 9.34938e-14 9.34611e-14 3.27582e-17 0.000350378 0.000727436 0 0 0 0 0 0 0 0 0 0 0 0 0 0 0 0 0 0 0 0 0 0 0 0 0 0 0 0 0 0 0 0 0 0 0 0 0 0 0 0 0 0
2.03079 9.31276e-14 9.31008e-14 2.67935e-17 0.000287708 0.000657977 0 0 0 0 0 0 0 0 0 0 0 0 0 0 0 0 0 0 0 0 0 0 0 0 0 0 0 0 0 0 0 0 0 0 0 0 0 0 0 0 0 0
2.13503 9.31849e-14 9.3163e-14 2.19358e-17 0.0002354 0.000595034 0 0 0 0 0 0 0 0 0 0 0 0 0 0 0 0 0 0 0 0 0 0 0 0 0 0 0 0 0 0 0 0 0 0 0 0 0 0 0 0 0 0
2.24463 9.33546e-14 9.33366e-14 1.79748e-17 0.000192543 0.000538022 0 0 0 0 0 0 0 0 0 0 0 0 0 0 0 0 0 0 0 0 0 0 0 0 0 0 0 0 0 0 0 0 0 0 0 0 0 0 0 0 0 0
2.35984 9.35533e-14 9.35385e-14 1.47375e-17 0.000157531 0.000486523 0 0 0 0 0 0 0 0 0 0 0 0 0 0 0 0 0 0 0 0 0 0 0 0 0 0 0 0 0 0 0 0 0 0 0 0 0 0 0 0 0 0
2.48097 9.3898e-14 9.38859e-14 1.20879e-17 0.000128735 0.000439857 0 0 0 0 0 0 0 0 0 0 0 0 0 0 0 0 0 0 0 0 0 0 0 0 0 0 0 0 0 0 0 0 0 0 0 0 0 0 0 0 0 0
2.60832 9.44072e-14 9.43973e-14 9.92037e-18 0.000105081 0.000397618 0 0 0 0 0 0 0 0 0 0 0 0 0 0 0 0 0 0 0 0 0 0 0 0 0 0 0 0 0 0 0 0 0 0 0 0 0 0 0 0 0 0
2.74221 9.5203e-14 9.51948e-14 8.14811e-18 8.55867e-05 0.000359399 0 0 0 0 0 0 0 0 0 0 0 0 0 0 0 0 0 0 0 0 0 0 0 0 0 0 0 0 0 0 0 0 0 0 0 0 0 0 0 0 0 0
2.88297 9.62994e-14 9.62927e-14 6.70353e-18 6.96114e-05 0.000324788 0 0 0 0 0 0 0 0 0 0 0 0 0 0 0 0 0 0 0 0 0 0 0 0 0 0 0 0 0 0 0 0 0 0 0 0 0 0 0 0 0 0
3.03095 9.76731e-14 9.76675e-14 5.53637e-18 5.66826e-05 0.000293489 0 0 0 0 0 0 0 0 0 0 0 0 0 0 0 0 0 0 0 0 0 0 0 0 0 0 0 0 0 0 0 0 0 0 0 0 0 0 0 0 0 0
3.18653 9.8133e-14 9.81284e-14 4.58331e-18 4.67051e-05 0.000265154 0 0 0 0 0 0 0 0 0 0 0 0 0 0 0 0 0 0 0 0 0 0 0 0 0 0 0 0 0 0 0 0 0 0 0 0 0 0 0 0 0 0
3.35009 1.00609e-13 1.00606e-13 3.74738e-18 3.72468e-05 0.000239486 0 0 0 0 0 0 0 0 0 0 0 0 0 0 0 0 0 0 0 0 0 0 0 0 0 0 0 0 0 0 0 0 0 0 0 0 0 0 0 0 0 0
3.52205 1.00245e-13 1.00242e-13 3.26061e-18 3.25263e-05 0.000216252 0 0 0 0 0 0 0 0 0 0 0 0 0 0 0 0 0 0 0 0 0 0 0 0 0 0 0 0 0 0 0 0 0 0 0 0 0 0 0 0 0 0
3.70284 9.3571e-14 9.35683e-14 2.65254e-18 2.83479e-05 0.00019524 0 0 0 0 0 0 0 0 0 0 0 0 0 0 0 0 0 0 0 0 0 0 0 0 0 0 0 0 0 0 0 0 0 0 0 0 0 0 0 0 0 0
3.89291 9.16635e-14 9.16614e-14 2.17354e-18 2.37121e-05 0.000176196 0 0 0 0 0 0 0 0 0 0 0 0 0 0 0 0 0 0 0 0 0 0 0 0 0 0 0 0 0 0 0 0 0 0 0 0 0 0 0 0 0 0
4.09273 9.01632e-14 9.01614e-14 1.78223e-18 1.97668e-05 0.000158927 0 0 0 0 0 0 0 0 0 0 0 0 0 0 0 0 0 0 0 0 0 0 0 0 0 0 0 0 0 0 0 0 0 0 0 0 0 0 0 0 0 0
4.30281 8.9078e-14 8.90765e-14 1.46202e-18 1.64128e-05 0.000143277 0 0 0 0 0 0 0 0 0 0 0 0 0 0 0 0 0 0 0 0 0 0 0 0 0 0 0 0 0 0 0 0 0 0 0 0 0 0 0 0 0 0
4.52368 8.84422e-14 8.8441e-14 1.2006e-18 1.3575e-05 0.000129115 0 0 0 0 0 0 0 0 0 0 0 0 0 0 0 0 0 0 0 0 0 0 0 0 0 0 0 0 0 0 0 0 0 0 0 0 0 0 0 0 0 0
4.75588 8.81355e-14 8.81345e-14 9.87592e-19 1.12054e-05 0.000116268 0 0 0 0 0 0 0 0 0 0 0 0 0 0 0 0 0 0 0 0 0 0 0 0 0 0 0 0 0 0 0 0 0 0 0 0 0 0 0 0 0 0
5 8.79151e-14 8.79142e-14 8.14005e-19 9.259e-06 0.000104585 0 0 0 0 0 0 0 0 0 0 0 0 0 0 0 0 0 0 0 0 0 0 0 0 0 0 0 0 0 0 0 0 0 0 0 0 0 0 0 0 0 0
5.25665 8.75658e-14 8.75651e-14 6.71679e-19 7.67057e-06 9.39689e-05 0 0 0 0 0 0 0 0 0 0 0 0 0 0 0 0 0 0 0 0 0 0 0 0 0 0 0 0 0 0 0 0 0 0 0 0 0 0 0 0 0 0
5.52648 8.70986e-14 8.70981e-14 5.54208e-19 6.36299e-06 8.43598e-05 0 0 0 0 0 0 0 0 0 0 0 0 0 0 0 0 0 0 0 0 0 0 0 0 0 0 0 0 0 0 0 0 0 0 0 0 0 0 0 0 1.4013e-45 0
5.81015 8.64553e-14 8.64549e-14 4.56768e-19 5.28329e-06 7.56012e-05 0 0 0 0 0 0 0 0 0 0 0 0 0 0 0 0 0 0 0 0 0 0 0 0 0 0 0 0 0 0 1.4013e-45 0 2.8026e-45 0 8.40779e-45 0 2.24208e-44 0 5.1848e-44 0 1.14906e-43 0
6.10839 8.5729e-14 8.57286e-14 3.75681e-19 4.3822e-06 6.76404e-05 0 0 0 0 0 0 0 0 0 0 0 0 0 0 0 0 0 0 0 0 0 0 1.4013e-45 0 2.8026e-45 0 1.12104e-44 0 3.78351e-44 0 1.12104e-43 0 3.0268e-43 0 7.77721e-43 0 1.88615e-42 0 4.23472e-42 0 9.01175e-42 0
6.42193 8.48986e-14 8.48982e-14 3.07862e-19 3.62623e-06 6.03775e-05 0 0 0 0 0 0 0 2.8026e-45 0 4.06377e-44 0 0 0 0 0 0 0 0 2.8026e-45 0 1.68156e-44 0 7.42688e-44 0 2.9147e-43 0 9.94922e-43 0 3.08566e-42 0 8.75251e-42 0 2.23689e-41 0 5.49743e-41 0 1.2765e-40 0 2.75501e-40 0 5.65069e-40 0
6.75157 8.43001e-14 8.42999e-14 2.50316e-19 2.96934e-06 5.36841e-05 0 0 0 0 0 4.2039e-45 0 1.42932e-43 0 1.98704e-42 0 0 0 0 5.60519e-45 0 4.34403e-44 0 2.71852e-43 0 1.4083e-42 0 5.78876e-42 0 2.13978e-41 0 6.87547e-41 0 2.01805e-40 0 5.44082e-40 0 1.32832e-39 0 3.12435e-39 0 6.96232e-39 0 1.44725e-38 0 2.86609e-38 0
7.09813 8.29399e-14 8.29397e-14 2.03399e-19 2.45236e-06 4.73812e-05 0 0 0 0 0 1.9478e-43 0 6.37731e-42 0 8.19928e-41 2.8026e-45 0 4.06377e-44 0 4.45613e-43 0 3.4514e-42 0 1.95944e-41 0 9.3639e-41 0 3.59308e-40 0 1.24605e-39 0 3.78187e-39 0 1.05318e-38 0 2.70524e-38 0 6.32293e-38 0 1.42639e-37 0 3.05663e-37 0 6.13078e-37 0 1.17429e-36 0
7.46248 8.1838e-14 8.18379e-14 1.61202e-19 1.96977e-06 4.1246e-05 0 0 0 3.22299e-44 0 8.18498e-42 0 2.41689e-40 5.60519e-45 2.87244e-39 1.97583e-43 0 3.19076e-42 0 3.10766e-41 0 2.17508e-40 0 1.13434e-39 0 5.02241e-39 0 1.80472e-38 0 5.88994e-38 0 1.69332e-37 0 4.48559e-37 0 1.10032e-36 0 2.46734e-36 0 5.34933e-36 0 1.10444e-35 0 2.1412e-35 0 3.97316e-35 0
7.84553 8.06927e-14 8.06926e-14 1.22017e-19 1.51211e-06 3.53937e-05 0 8.40779e-45 0 1.36066e-42 0 2.91686e-40 5.60519e-45 7.78509e-39 4.91856e-43 8.56989e-38 1.41573e-41 0 1.99129e-40 0 1.73531e-39 0 1.10449e-38 0 5.31386e-38 0 2.18791e-37 0 7.38595e-37 0 2.27524e-36 0 6.21246e-36 0 1.56923e-35 0 3.68434e-35 0 7.94231e-35 0 1.65809e-34 0 3.3043e-34 0 6.20236e-34 0 1.11667e-33 0
8.24824 8.9943e-14 8.99429e-14 8.97702e-20 9.98079e-07 3.04222e-05 0 3.60134e-43 0 5.46464e-41 1.4013e-45 1.00335e-38 5.00264e-43 2.42663e-37 3.75422e-41 2.47906e-36 9.16746e-40 0 1.13329e-38 0 8.8854e-38 0 5.16675e-37 0 2.30227e-36 0 8.84641e-36 0 2.81414e-35 0 8.20559e-35 0 2.13328e-34 0 5.15019e-34 0 1.15984e-33 0 2.40823e-33 0 4.85012e-33 0 9.34551e-33 0 1.70109e-32 0 2.97598e-32 0
8.67162 1.09245e-13 1.09245e-13 7.78393e-20 7.12519e-07 2.64761e-05 0 1.56077e-41 0 2.04655e-39 8.96831e-44 3.23134e-37 4.12472e-41 7.09921e-36 2.50846e-39 6.74367e-35 5.24054e-38 0 5.72991e-37 0 4.06273e-36 0 2.16786e-35 0 8.98018e-35 0 3.23112e-34 0 9.71392e-34 0 2.68823e-33 0 6.6703e-33 0 1.54252e-32 0 3.33882e-32 0 6.68962e-32 0 1.302e-31 0 2.4297e-31 0 4.29514e-31 0 7.31173e-31 0
9.11674 1.49951e-13 1.49951e-13 9.25912e-20 6.17476e-07 2.25885e-05 0 6.54444e-40 0 7.45826e-38 9.12245e-42 1.01654e-35 3.09172e-39 2.03363e-34 1.53856e-37 1.79958e-33 2.77101e-36 0 2.69583e-35 0 1.73712e-34 0 8.54155e-34 0 3.30107e-33 0 1.11577e-32 0 3.17888e-32 0 8.37072e-32 0 1.98688e-31 0 4.41044e-31 0 9.19327e-31 0 1.7805e-30 0 3.35453e-30 0 6.07219e-30 0 1.04397e-29 0 1.73162e-29 0
9.5847 1.82788e-13 1.82787e-13 1.28425e-19 7.02589e-07 2.02148e-05 0 2.10265e-38 1.96182e-44 2.09073e-36 6.55777e-40 2.46901e-34 1.67239e-37 4.50832e-33 6.87704e-36 3.7232e-32 1.07553e-34 0 9.36349e-34 0 5.50896e-33 0 2.50614e-32 0 9.06687e-32 0 2.8877e-31 0 7.81723e-31 0 1.96341e-30 0 4.46778e-30 0 9.53879e-30 0 1.91826e-29 0 3.59719e-29 0 6.57084e-29 0 1.15545e-28 0 1.93467e-28 0 3.13068e-28 0
10.0767 1.76931e-13 1.76931e-13 1.4129e-19 7.98562e-07 1.91951e-05 0 4.65525e-37 1.47557e-42 4.05384e-35 3.03055e-38 4.16292e-33 5.89663e-36 6.95389e-32 2.02238e-34 5.36911e-31 2.76554e-33 0 2.16625e-32 0 1.16886e-31 0 4.93827e-31 0 1.67788e-30 0 5.05002e-30 0 1.3022e-29 0 3.12686e-29 0 6.83525e-29 0 1.40629e-28 0 2.73321e-28 0 4.97048e-28 0 8.81619e-28 0 1.50815e-27 0 2.46245e-27 0 3.89219e-27 0
10.5939 1.50637e-13 1.50637e-13 1.25421e-19 8.32607e-07 1.88769e-05 1.4013e-45 7.91089e-36 7.96554e-41 6.055e-34 1.00758e-36 5.42602e-32 1.51565e-34 8.3103e-31 4.37424e-33 6.00921e-30 5.26451e-32 0 3.72942e-31 0 1.85334e-30 0 7.29814e-30 0 2.33595e-29 0 6.66242e-29 0 1.64033e-28 0 3.77387e-28 0 7.94055e-28 0 1.57715e-27 0 2.96744e-27 0 5.24113e-27 0 9.03975e-27 0 1.50638e-26 0 2.4014e-26 0 3.71179e-26 0
11.1377 1.25852e-13 1.25852e-13 1.05403e-19 8.37513e-07 1.93325e-05 1.35926e-43 1.15735e-34 3.40439e-39 7.81344e-33 2.71533e-35 6.13096e-31 3.19769e-33 8.62812e-30 7.83143e-32 5.85297e-29 8.34727e-31 0 5.3742e-30 0 2.46962e-29 0 9.09546e-29 0 2.75048e-28 0 7.45338e-28 0 1.75609e-27 0 3.87915e-27 0 7.87094e-27 0 1.51181e-26 0 2.75806e-26 0 4.7379e-26 0 7.95718e-26 0 1.29333e-25 0 2.01535e-25 0 3.04955e-25 0
