# 3.022e-05 0 69 : grain size, compostion index, size index
# Heating and cooling timescale: 0.00505822 41128.8
# Ratio of heating to cooling to determine stochastic cutoff: 100
# Equilibrium emission is recorded even for those grains in the stochastic regime.
# Emission spectrum was computed for: 
# Type: ISRF
# Scales: 0.25 0.5 1 1.5 2 2.5 3 3.5 4 4.5 5 5.5 6 6.5 7 7.5 8 8.5 9 9.5 10
# StochasticallyHeated: 0 0 0 0 0 0 0 0 0 0 0 0 0 0 0 0 0 0 0 0 0
# Temperature: -1
# Wavelength  CExt  CAbs  CSca  Albedo G EqEm1 StEm1 EqEm2 StEm2 EqEm3 StEm3 EqEm4 StEm4 EqEm5 StEm5 EqEm6 StEm6 EqEm7 StEm7 EqEm8 StEm8 EqEm9 StEm9 EqEm10 StEm10 EqEm11 StEm11 EqEm12 StEm12 EqEm13 StEm13 EqEm14 StEm14 EqEm15 StEm15 EqEm16 StEm16 EqEm17 StEm17 EqEm18 StEm18 EqEm19 StEm19 EqEm20 StEm20 EqEm21 StEm21
0.05 5.82321e-09 2.56245e-09 3.26076e-09 0.559959 0.963895 0 0 0 0 0 0 0 0 0 0 0 0 0 0 0 0 0 0 0 0 0 0 0 0 0 0 0 0 0 0 0 0 0 0 0 0 0 0 0 0 0 0
0.0525665 5.84575e-09 2.56487e-09 3.28088e-09 0.561242 0.960575 0 0 0 0 0 0 0 0 0 0 0 0 0 0 0 0 0 0 0 0 0 0 0 0 0 0 0 0 0 0 0 0 0 0 0 0 0 0 0 0 0 0
0.0552647 5.86984e-09 2.56756e-09 3.30228e-09 0.562585 0.95677 0 0 0 0 0 0 0 0 0 0 0 0 0 0 0 0 0 0 0 0 0 0 0 0 0 0 0 0 0 0 0 0 0 0 0 0 0 0 0 0 0 0
0.0581015 5.89604e-09 2.57088e-09 3.32515e-09 0.563964 0.952458 0 0 0 0 0 0 0 0 0 0 0 0 0 0 0 0 0 0 0 0 0 0 0 0 0 0 0 0 0 0 0 0 0 0 0 0 0 0 0 0 0 0
0.0610839 5.92435e-09 2.57484e-09 3.34951e-09 0.56538 0.947594 0 0 0 0 0 0 0 0 0 0 0 0 0 0 0 0 0 0 0 0 0 0 0 0 0 0 0 0 0 0 0 0 0 0 0 0 0 0 0 0 0 0
0.0642193 5.95507e-09 2.57971e-09 3.37536e-09 0.566804 0.942194 0 0 0 0 0 0 0 0 0 0 0 0 0 0 0 0 0 0 0 0 0 0 0 0 0 0 0 0 0 0 0 0 0 0 0 0 0 0 0 0 0 0
0.0675157 5.98877e-09 2.58631e-09 3.40246e-09 0.56814 0.936316 0 0 0 0 0 0 0 0 0 0 0 0 0 0 0 0 0 0 0 0 0 0 0 0 0 0 0 0 0 0 0 0 0 0 0 0 0 0 0 0 0 0
0.0709813 6.0256e-09 2.59529e-09 3.43031e-09 0.56929 0.930059 0 0 0 0 0 0 0 0 0 0 0 0 0 0 0 0 0 0 0 0 0 0 0 0 0 0 0 0 0 0 0 0 0 0 0 0 0 0 0 0 0 0
0.0746248 6.06696e-09 2.60936e-09 3.45761e-09 0.569907 0.923757 0 0 0 0 0 0 0 0 0 0 0 0 0 0 0 0 0 0 0 0 0 0 0 0 0 0 0 0 0 0 0 0 0 0 0 0 0 0 0 0 0 0
0.0784553 6.11317e-09 2.63449e-09 3.47867e-09 0.569046 0.918251 0 0 0 0 0 0 0 0 0 0 0 0 0 0 0 0 0 0 0 0 0 0 0 0 0 0 0 0 0 0 0 0 0 0 0 0 0 0 0 0 0 0
0.0824824 6.15605e-09 2.67254e-09 3.48351e-09 0.565868 0.914929 0 0 0 0 0 0 0 0 0 0 0 0 0 0 0 0 0 0 0 0 0 0 0 0 0 0 0 0 0 0 0 0 0 0 0 0 0 0 0 0 0 0
0.0867162 6.18353e-09 2.71624e-09 3.46729e-09 0.56073 0.912291 0 0 0 0 0 0 0 0 0 0 0 0 0 0 0 0 0 0 0 0 0 0 0 0 0 0 0 0 0 0 0 0 0 0 0 0 0 0 0 0 0 0
0.0911674 6.21238e-09 2.76233e-09 3.45006e-09 0.555352 0.91066 0 0 0 0 0 0 0 0 0 0 0 0 0 0 0 0 0 0 0 0 0 0 0 0 0 0 0 0 0 0 0 0 0 0 0 0 0 0 0 0 0 0
0.095847 6.27014e-09 2.81656e-09 3.45358e-09 0.550798 0.914189 0 0 0 0 0 0 0 0 0 0 0 0 0 0 0 0 0 0 0 0 0 0 0 0 0 0 0 0 0 0 0 0 0 0 0 0 0 0 0 0 0 0
0.100767 6.30579e-09 2.86855e-09 3.43723e-09 0.545092 0.916961 0 0 0 0 0 0 0 0 0 0 0 0 0 0 0 0 0 0 0 0 0 0 0 0 0 0 0 0 0 0 0 0 0 0 0 0 0 0 0 0 0 0
0.105939 6.33144e-09 2.91545e-09 3.41599e-09 0.539528 0.91885 0 0 0 0 0 0 0 0 0 0 0 0 0 0 0 0 0 0 0 0 0 0 0 0 0 0 0 0 0 0 0 0 0 0 0 0 0 0 0 0 0 0
0.111377 6.35559e-09 2.95726e-09 3.39833e-09 0.5347 0.920217 0 0 0 0 0 0 0 0 0 0 0 0 0 0 0 0 0 0 0 0 0 0 0 0 0 0 0 0 0 0 0 0 0 0 0 0 0 0 0 0 0 0
0.117094 6.37715e-09 2.99307e-09 3.38407e-09 0.530656 0.920746 0 0 0 0 0 0 0 0 0 0 0 0 0 0 0 0 0 0 0 0 0 0 0 0 0 0 0 0 0 0 0 0 0 0 0 0 0 0 0 0 0 0
0.123105 6.39597e-09 3.02052e-09 3.37545e-09 0.527746 0.919921 0 0 0 0 0 0 0 0 0 0 0 0 0 0 0 0 0 0 0 0 0 0 0 0 0 0 0 0 0 0 0 0 0 0 0 0 0 0 0 0 0 0
0.129424 6.41361e-09 3.0404e-09 3.37321e-09 0.525945 0.917508 0 0 0 0 0 0 0 0 0 0 0 0 0 0 0 0 0 0 0 0 0 0 0 0 0 0 0 0 0 0 0 0 0 0 0 0 0 0 0 0 0 0
0.136067 6.43094e-09 3.05247e-09 3.37847e-09 0.525347 0.913434 0 0 0 0 0 0 0 0 0 0 0 0 0 0 0 0 0 0 0 0 0 0 0 0 0 0 0 0 0 0 0 0 0 0 0 0 0 0 0 0 0 0
0.143051 6.44955e-09 3.05872e-09 3.39083e-09 0.525747 0.907896 0 0 0 0 0 0 0 0 0 0 0 0 0 0 0 0 0 0 0 0 0 0 0 0 0 0 0 0 0 0 0 0 0 0 0 0 0 0 0 0 0 0
0.150394 6.47124e-09 3.06145e-09 3.40979e-09 0.526915 0.901303 0 0 0 0 0 0 0 0 0 0 0 0 0 0 0 0 0 0 0 0 0 0 0 0 0 0 0 0 0 0 0 0 0 0 0 0 0 0 0 0 0 0
0.158114 6.49817e-09 3.06321e-09 3.43496e-09 0.528605 0.893989 0 0 0 0 0 0 0 0 0 0 0 0 0 0 0 0 0 0 0 0 0 0 0 0 0 0 0 0 0 0 0 0 0 0 0 0 0 0 0 0 0 0
0.16623 6.53214e-09 3.0662e-09 3.46593e-09 0.530597 0.886312 0 0 0 0 0 0 0 0 0 0 0 0 0 0 0 0 0 0 0 0 0 0 0 0 0 0 0 0 0 0 0 0 0 0 0 0 0 0 0 0 0 0
0.174762 6.57477e-09 3.07262e-09 3.50215e-09 0.532665 0.878468 0 0 0 0 0 0 0 0 0 0 0 0 0 0 0 0 0 0 0 0 0 0 0 0 0 0 0 0 0 0 0 0 0 0 0 0 0 0 0 0 0 0
0.183733 6.62674e-09 3.08356e-09 3.54319e-09 0.53468 0.870575 0 0 0 0 0 0 0 0 0 0 0 0 0 0 0 0 0 0 0 0 0 0 0 0 0 0 0 0 0 0 0 0 0 0 0 0 0 0 0 0 0 0
0.193164 6.68728e-09 3.0998e-09 3.58748e-09 0.536463 0.862735 0 0 0 0 0 0 0 0 0 0 0 0 0 0 0 0 0 0 0 0 0 0 0 0 0 0 0 0 0 0 0 0 0 0 0 0 0 0 0 0 0 0
0.203079 6.75559e-09 3.12208e-09 3.63351e-09 0.537853 0.855049 0 0 0 0 0 0 0 0 0 0 0 0 0 0 0 0 0 0 0 0 0 0 0 0 0 0 0 0 0 0 0 0 0 0 0 0 0 0 0 0 0 0
0.213503 6.82984e-09 3.15021e-09 3.67963e-09 0.538758 0.847579 0 0 0 0 0 0 0 0 0 0 0 0 0 0 0 0 0 0 0 0 0 0 0 0 0 0 0 0 0 0 0 0 0 0 0 0 0 0 0 0 0 0
0.224463 6.90756e-09 3.18394e-09 3.72362e-09 0.539065 0.840519 0 0 0 0 0 0 0 0 0 0 0 0 0 0 0 0 0 0 0 0 0 0 0 0 0 0 0 0 0 0 0 0 0 0 0 0 0 0 0 0 0 0
0.235984 6.98741e-09 3.22174e-09 3.76566e-09 0.538921 0.834015 0 0 0 0 0 0 0 0 0 0 0 0 0 0 0 0 0 0 0 0 0 0 0 0 0 0 0 0 0 0 0 0 0 0 0 0 0 0 0 0 0 0
0.248097 7.07169e-09 3.26285e-09 3.80884e-09 0.538604 0.828433 0 0 0 0 0 0 0 0 0 0 0 0 0 0 0 0 0 0 0 0 0 0 0 0 0 0 0 0 0 0 0 0 0 0 0 0 0 0 0 0 0 0
0.260832 7.16455e-09 3.30517e-09 3.85938e-09 0.538677 0.824451 0 0 0 0 0 0 0 0 0 0 0 0 0 0 0 0 0 0 0 0 0 0 0 0 0 0 0 0 0 0 0 0 0 0 0 0 0 0 0 0 0 0
0.274221 7.27211e-09 3.34751e-09 3.9246e-09 0.539679 0.822517 0 0 0 0 0 0 0 0 0 0 0 0 0 0 0 0 0 0 0 0 0 0 0 0 0 0 0 0 0 0 0 0 0 0 0 0 0 0 0 0 0 0
0.288297 7.38933e-09 3.38986e-09 3.99947e-09 0.541249 0.822413 0 0 0 0 0 0 0 0 0 0 0 0 0 0 0 0 0 0 0 0 0 0 0 0 0 0 0 0 0 0 0 0 0 0 0 0 0 0 0 0 0 0
0.303095 7.48182e-09 3.42556e-09 4.05626e-09 0.542149 0.822488 0 0 0 0 0 0 0 0 0 0 0 0 0 0 0 0 0 0 0 0 0 0 0 0 0 0 0 0 0 0 0 0 0 0 0 0 0 0 0 0 0 0
0.318653 7.51874e-09 3.46603e-09 4.05271e-09 0.539015 0.818693 0 0 0 0 0 0 0 0 0 0 0 0 0 0 0 0 0 0 0 0 0 0 0 0 0 0 0 0 0 0 0 0 0 0 0 0 0 0 0 0 0 0
0.335009 7.41037e-09 3.47659e-09 3.93378e-09 0.530848 0.806167 0 0 0 0 0 0 0 0 0 0 0 0 0 0 0 0 0 0 0 0 0 0 0 0 0 0 0 0 0 0 0 0 0 0 0 0 0 0 0 0 0 0
0.352205 7.22179e-09 3.49037e-09 3.73142e-09 0.516689 0.784345 0 0 0 0 0 0 0 0 0 0 0 0 0 0 0 0 0 0 0 0 0 0 0 0 0 0 0 0 0 0 0 0 0 0 0 0 0 0 0 0 0 0
0.370284 6.99382e-09 3.5186e-09 3.47522e-09 0.496899 0.748659 0 0 0 0 0 0 0 0 0 0 0 0 0 0 0 0 0 0 0 0 0 0 0 0 0 0 0 0 0 0 0 0 0 0 0 0 0 0 0 0 0 0
0.389291 6.68873e-09 3.42301e-09 3.26573e-09 0.488243 0.702893 0 0 0 0 0 0 0 0 0 0 0 0 0 0 0 0 0 0 0 0 0 0 0 0 0 0 0 0 0 0 0 0 0 0 0 0 0 0 0 0 0 0
0.409273 6.79005e-09 3.45047e-09 3.33958e-09 0.491834 0.669857 0 0 0 0 0 0 0 0 0 0 0 0 0 0 0 0 0 0 0 0 0 0 0 0 0 0 0 0 0 0 0 0 0 0 0 0 0 0 0 0 0 0
0.430281 6.93777e-09 3.41892e-09 3.51885e-09 0.507202 0.64035 0 0 0 0 0 0 0 0 0 0 0 0 0 0 0 0 0 0 0 0 0 0 0 0 0 0 0 0 0 0 0 0 0 0 0 0 0 0 0 0 0 0
0.452368 7.13477e-09 3.24132e-09 3.89345e-09 0.545701 0.636216 0 0 0 0 0 0 0 0 0 0 0 0 0 0 0 0 0 0 0 0 0 0 0 0 0 0 0 0 0 0 0 0 0 0 0 0 0 0 0 0 0 0
0.475588 7.9664e-09 3.21918e-09 4.74722e-09 0.595905 0.658705 0 0 0 0 0 0 0 0 0 0 0 0 0 0 0 0 0 0 0 0 0 0 0 0 0 0 0 0 0 0 0 0 0 0 0 0 0 0 0 0 0 0
0.5 8.78531e-09 3.20723e-09 5.57809e-09 0.634933 0.669631 0 0 0 0 0 0 0 0 0 0 0 0 0 0 0 0 0 0 0 0 0 0 0 0 0 0 0 0 0 0 0 0 0 0 0 0 0 0 0 0 0 0
0.525665 9.21559e-09 3.05556e-09 6.16003e-09 0.668436 0.675626 0 0 0 0 0 0 0 0 0 0 0 0 0 0 0 0 0 0 0 0 0 0 0 0 0 0 0 0 0 0 0 0 0 0 0 0 0 0 0 0 0 0
0.552648 9.88841e-09 2.93582e-09 6.95259e-09 0.703105 0.691713 0 0 0 0 0 0 0 0 0 0 0 0 0 0 0 0 0 0 0 0 0 0 0 0 0 0 0 0 0 0 0 0 0 0 0 0 0 0 0 0 0 0
0.581015 1.07546e-08 2.91048e-09 7.84413e-09 0.729374 0.708208 0 0 0 0 0 0 0 0 0 0 0 0 0 0 0 0 0 0 0 0 0 0 0 0 0 0 0 0 0 0 0 0 0 0 0 0 0 0 0 0 0 0
0.610839 1.13169e-08 2.91309e-09 8.40378e-09 0.742589 0.714919 0 0 0 0 0 0 0 0 0 0 0 0 0 0 0 0 0 0 0 0 0 0 0 0 0 0 0 0 0 0 0 0 0 0 0 0 0 0 0 0 0 0
0.642193 1.14456e-08 2.85231e-09 8.59331e-09 0.750794 0.709439 0 0 0 0 0 0 0 0 0 0 0 0 0 0 0 0 0 0 0 0 0 0 0 0 0 0 0 0 0 0 0 0 0 0 0 0 0 0 0 0 0 0
0.675157 1.14402e-08 2.71688e-09 8.72329e-09 0.762514 0.698054 0 0 0 0 0 0 0 0 0 0 0 0 0 0 0 0 0 0 0 0 0 0 0 0 0 0 0 0 0 0 0 0 0 0 0 0 0 0 0 0 0 0
0.709813 1.15126e-08 2.5967e-09 8.91591e-09 0.774447 0.691768 0 0 0 0 0 0 0 0 0 0 0 0 0 0 0 0 0 0 0 0 0 0 0 0 0 0 0 0 0 0 0 0 0 0 0 0 0 0 0 0 0 0
0.746248 1.16224e-08 2.56657e-09 9.05587e-09 0.779171 0.693991 0 0 0 0 0 0 0 0 0 0 0 0 0 0 0 0 0 0 0 0 0 0 0 0 0 0 0 0 0 0 0 0 0 0 0 0 0 0 0 0 0 0
0.784553 1.16102e-08 2.60638e-09 9.00384e-09 0.77551 0.698829 0 0 0 0 0 0 0 0 0 0 0 0 0 0 0 0 0 0 0 0 0 0 0 0 0 0 0 0 0 0 0 0 0 0 0 0 0 0 0 0 0 0
0.824824 1.13494e-08 2.62801e-09 8.72143e-09 0.768446 0.6967 0 0 0 0 0 0 0 0 0 0 0 0 0 0 0 0 0 0 0 0 0 0 0 0 0 0 0 0 0 0 0 0 0 0 0 0 0 0 0 0 0 0
0.867162 1.08419e-08 2.55486e-09 8.28701e-09 0.764352 0.680674 0 0 0 0 0 0 0 0 0 0 0 0 0 0 0 0 0 0 0 0 0 0 0 0 0 0 0 0 0 0 0 0 0 0 0 0 0 0 0 0 0 0
0.911674 1.02195e-08 2.39261e-09 7.82689e-09 0.765878 0.651607 0 0 0 0 0 0 0 0 0 0 0 0 0 0 0 0 0 0 0 0 0 0 0 0 0 0 0 0 0 0 0 0 0 0 0 0 0 0 0 0 0 0
0.95847 9.63644e-09 2.21505e-09 7.4214e-09 0.770138 0.617553 0 0 0 0 0 0 0 0 0 0 0 0 0 0 0 0 0 0 0 0 0 0 0 0 0 0 0 0 0 0 0 0 0 0 0 0 0 0 0 0 0 0
1.00767 9.16527e-09 2.09257e-09 7.0727e-09 0.771685 0.587631 0 0 0 0 0 0 0 0 0 0 0 0 0 0 0 0 0 0 0 0 0 0 0 0 0 0 0 0 0 0 0 0 0 0 0 0 0 0 0 0 0 0
1.05939 8.78378e-09 2.05025e-09 6.73353e-09 0.766587 0.567081 0 0 0 0 0 0 0 0 0 0 0 0 0 0 0 0 0 0 0 0 0 0 0 0 0 0 0 0 0 0 0 0 0 0 0 0 0 0 0 0 0 0
1.11377 8.41852e-09 2.07013e-09 6.34839e-09 0.754098 0.556408 0 0 0 0 0 0 0 0 0 0 0 0 0 0 0 0 0 0 0 0 0 0 0 0 0 0 0 0 0 0 0 0 0 0 0 0 0 0 0 0 0 0
1.17094 7.99025e-09 2.1092e-09 5.88105e-09 0.736028 0.552447 0 0 0 0 0 0 0 0 0 0 0 0 0 0 0 0 0 0 0 0 0 0 0 0 0 0 0 0 0 0 0 0 0 0 0 0 0 0 0 0 0 0
1.23105 7.45135e-09 2.11995e-09 5.33139e-09 0.715494 0.549724 0 0 0 0 0 0 0 0 0 0 0 0 0 0 0 0 0 0 0 0 0 0 0 0 0 0 0 0 0 0 0 0 0 0 0 0 0 0 0 0 0 0
1.29424 6.80693e-09 2.07206e-09 4.73487e-09 0.695595 0.54231 0 0 0 0 0 0 0 0 0 0 0 0 0 0 0 0 0 0 0 0 0 0 0 0 0 0 0 0 0 0 0 0 0 0 0 0 0 0 0 0 0 0
1.36067 6.10324e-09 1.96357e-09 4.13967e-09 0.678274 0.525989 0 0 0 0 0 0 0 0 0 0 0 0 0 0 0 0 0 0 0 0 0 0 0 0 0 0 0 0 0 0 0 0 0 0 0 0 0 0 0 0 0 0
1.43051 5.39862e-09 1.8141e-09 3.58453e-09 0.66397 0.499809 0 0 0 0 0 0 0 0 0 0 0 0 0 0 0 0 0 0 0 0 0 0 0 0 0 0 0 0 0 0 0 0 0 0 0 0 0 0 0 0 0 0
1.50394 4.73674e-09 1.64895e-09 3.08779e-09 0.651881 0.465804 0 0 0 0 0 0 0 0 0 0 0 0 0 0 0 0 0 0 0 0 0 0 0 0 0 0 0 0 0 0 0 0 0 0 0 0 0 0 0 0 0 0
1.58114 4.13821e-09 1.48739e-09 2.65083e-09 0.640573 0.427445 0 0 0 0 0 0 0 0 0 0 0 0 0 0 0 0 0 0 0 0 0 0 0 0 0 0 0 0 0 0 0 0 0 0 0 0 0 0 0 0 0 0
1.6623 3.60831e-09 1.3398e-09 2.26851e-09 0.62869 0.38806 0 0 0 0 0 0 0 0 0 0 0 0 0 0 0 0 0 0 0 0 0 0 0 0 0 0 0 0 0 0 0 0 0 0 0 0 0 0 0 0 0 0
1.74763 3.14368e-09 1.20961e-09 1.93407e-09 0.615224 0.350036 0 0 0 0 0 0 0 0 0 0 0 0 0 0 0 0 0 0 0 0 0 0 0 0 0 0 0 0 0 0 0 0 0 0 0 0 0 0 0 0 0 0
1.83733 2.7381e-09 1.09634e-09 1.64177e-09 0.5996 0.314705 0 0 0 0 0 0 0 0 0 0 0 0 0 0 0 0 0 0 0 0 0 0 0 0 0 0 0 0 0 0 0 0 0 0 0 0 0 0 0 0 0 0
1.93164 2.3852e-09 9.97926e-10 1.38727e-09 0.581617 0.282632 0 0 0 0 0 0 0 0 0 0 0 0 0 0 0 0 0 0 0 0 0 0 0 0 0 0 0 0 0 0 0 0 0 0 0 0 0 0 0 0 0 0
2.03079 2.07918e-09 9.12057e-10 1.16713e-09 0.561339 0.253919 0 0 0 0 0 0 0 0 0 0 0 0 0 0 0 0 0 0 0 0 0 0 0 0 0 0 0 0 0 0 0 0 0 0 0 0 0 0 0 0 0 0
2.13503 1.81426e-09 8.36403e-10 9.77857e-10 0.538984 0.228343 0 0 0 0 0 0 0 0 0 0 0 0 0 0 0 0 0 0 0 0 0 0 0 0 0 0 0 0 0 0 0 0 0 0 0 0 0 0 0 0 0 0
2.24463 1.58546e-09 7.69227e-10 8.16237e-10 0.514826 0.205614 0 0 0 0 0 0 0 0 0 0 0 0 0 0 0 0 0 0 0 0 0 0 0 0 0 0 0 0 0 0 0 0 0 0 0 0 0 0 0 0 0 0
2.35984 1.38823e-09 7.09137e-10 6.79096e-10 0.48918 0.185409 0 0 0 0 0 0 0 0 0 0 0 0 0 0 0 0 0 0 0 0 0 0 0 0 0 0 0 0 0 0 0 0 0 0 0 0 0 0 0 0 0 0
2.48097 1.21853e-09 6.5506e-10 5.63471e-10 0.462418 0.167414 0 0 0 0 0 0 0 0 0 0 0 0 0 0 0 0 0 0 0 0 0 0 0 0 0 0 0 0 0 0 0 0 0 0 0 0 0 0 0 0 0 0
2.60832 1.07258e-09 6.06152e-10 4.6643e-10 0.434866 0.151362 0 0 0 0 0 0 0 0 0 0 0 0 0 0 0 0 0 0 0 0 0 0 0 0 0 0 0 0 0 0 0 0 0 0 0 0 0 0 0 0 0 0
2.74221 9.47185e-10 5.61845e-10 3.8534e-10 0.406827 0.136993 0 0 0 0 0 0 0 0 0 0 0 0 0 0 0 0 0 0 0 0 0 0 0 0 0 0 0 0 0 0 0 0 0 0 0 0 0 0 0 0 0 0
2.88297 8.39421e-10 5.21645e-10 3.17775e-10 0.378565 0.124108 0 0 0 0 0 0 0 0 0 0 0 0 0 0 0 0 0 0 0 0 0 0 0 0 0 0 0 0 0 0 0 0 0 0 0 0 0 0 0 0 0 0
3.03095 7.46694e-10 4.85309e-10 2.61385e-10 0.350057 0.112506 0 0 0 0 0 0 0 0 0 0 0 0 0 0 0 0 0 0 0 0 0 0 0 0 0 0 0 0 0 0 0 0 0 0 0 0 0 0 0 0 0 0
3.18653 6.68499e-10 4.54308e-10 2.14191e-10 0.320406 0.102064 0 0 0 0 0 0 0 0 0 0 0 0 0 0 0 0 0 0 0 0 0 0 0 0 0 0 0 0 0 0 0 0 0 0 0 0 0 0 0 0 0 0
3.35009 6.34582e-10 4.59699e-10 1.74883e-10 0.275588 0.0927249 0 0 0 0 0 0 0 0 0 0 0 0 0 0 0 0 0 0 0 0 0 0 0 0 0 0 0 0 0 0 0 0 0 0 0 0 0 0 0 0 0 0
3.52205 5.72236e-10 4.20151e-10 1.52085e-10 0.265774 0.0844029 0 0 0 0 0 0 0 0 0 0 0 0 0 0 0 0 0 0 0 0 0 0 0 0 0 0 0 0 0 0 0 0 0 0 0 0 0 0 0 0 0 0
3.70284 4.85445e-10 3.63157e-10 1.22288e-10 0.251909 0.0765542 0 0 0 0 0 0 0 0 0 0 0 0 0 0 0 0 0 0 0 0 0 0 0 0 0 0 0 0 0 0 0 0 0 0 0 0 0 0 0 0 0 0
3.89291 4.39202e-10 3.3906e-10 1.00142e-10 0.22801 0.0695671 0 0 0 0 0 0 0 0 0 0 0 0 0 0 0 0 0 0 0 0 0 0 0 0 0 0 0 0 0 0 0 0 0 0 0 0 0 0 0 0 0 0
4.09273 3.99289e-10 3.17074e-10 8.22156e-11 0.205905 0.0632422 0 0 0 0 0 0 0 0 0 0 0 0 0 0 0 0 0 0 0 0 0 0 0 0 0 0 0 0 0 0 0 0 0 0 0 0 0 0 0 0 0 0
4.30281 3.64318e-10 2.96779e-10 6.75394e-11 0.185386 0.057503 0 0 0 0 0 0 0 0 0 0 0 0 0 0 0 0 0 0 0 0 0 0 0 0 0 0 0 0 0 0 0 0 0 0 0 0 0 0 0 0 0 0
4.52368 3.33527e-10 2.78019e-10 5.55078e-11 0.166427 0.0522932 0 0 0 0 0 0 0 0 0 0 0 0 0 0 0 0 0 0 0 0 0 0 0 0 0 0 0 0 0 0 0 0 0 0 0 0 0 0 0 0 0 0
4.75588 3.06288e-10 2.6067e-10 4.56184e-11 0.148939 0.0475587 0 0 0 0 0 0 0 0 0 0 0 0 0 0 0 0 0 0 0 0 0 0 0 0 0 0 0 0 0 0 0 0 0 0 0 0 0 0 0 0 0 0
5 2.82108e-10 2.44611e-10 3.74961e-11 0.132914 0.0432539 0 0 0 0 0 0 0 0 0 0 0 0 0 0 0 0 0 0 0 0 0 0 0 0 0 0 0 0 0 0 0 0 0 0 0 0 0 0 0 0 0 0
5.25665 2.60565e-10 2.29748e-10 3.08179e-11 0.118273 0.0393365 0 0 0 0 0 0 0 0 0 0 0 0 0 0 0 0 0 0 0 0 0 0 0 0 0 0 0 0 0 0 0 0 0 0 0 0 0 0 0 0 0 0
5.52648 2.41349e-10 2.16024e-10 2.53252e-11 0.104932 0.0357681 0 0 0 0 0 0 0 0 0 0 0 0 0 0 0 0 0 0 0 0 0 0 0 0 0 0 0 0 0 0 0 0 0 0 1.4013e-45 0 4.2039e-45 0 1.4013e-44 0 4.2039e-44 0
5.81015 2.24373e-10 2.03573e-10 2.07997e-11 0.0927014 0.0325057 0 0 0 0 0 0 0 0 0 0 0 0 0 0 0 0 0 0 0 0 0 0 0 0 0 0 1.4013e-45 0 4.2039e-45 0 1.54143e-44 0 5.88545e-44 0 1.96182e-43 0 6.12367e-43 0 1.78385e-42 0 4.8527e-42 0
6.10839 2.12168e-10 1.95105e-10 1.70627e-11 0.0804209 0.0294882 0 0 0 0 0 0 0 0 0 0 0 0 0 0 0 0 0 0 0 0 0 0 4.2039e-45 0 2.24208e-44 0 1.12104e-43 0 5.01665e-43 0 1.95341e-42 0 6.6884e-42 0 2.12339e-41 0 6.27572e-41 0 1.73345e-40 0 4.4907e-40 0
6.42193 1.97484e-10 1.83338e-10 1.41453e-11 0.0716278 0.027036 0 0 0 0 0 0 0 0 0 0 0 0 0 0 0 0 1.4013e-45 0 8.40779e-45 0 7.14662e-44 0 4.69435e-43 0 2.63024e-42 0 1.20217e-41 0 5.00656e-41 0 1.82642e-40 0 5.88969e-40 0 1.76718e-39 0 4.95371e-39 0 1.30208e-38 0 3.22e-38 0
6.75157 1.84942e-10 1.73365e-10 1.15772e-11 0.0625991 0.0245325 0 0 0 0 0 0 0 0 0 0 0 0 0 0 7.00649e-45 0 9.94922e-44 0 1.02015e-42 0 7.73657e-42 0 4.67011e-41 0 2.40272e-40 0 1.01949e-39 0 3.95995e-39 0 1.35617e-38 0 4.13027e-38 0 1.17455e-37 0 3.13085e-37 0 7.85015e-37 0 1.85737e-36 0
7.09813 1.75597e-10 1.66045e-10 9.55186e-12 0.0543964 0.0222682 0 0 0 0 0 0 0 0 0 0 1.4013e-45 0 3.92364e-44 0 8.28167e-43 0 1.05868e-41 0 9.74155e-41 0 6.68908e-40 0 3.69848e-39 0 1.75658e-38 0 6.94544e-38 0 2.52484e-37 0 8.1425e-37 0 2.34859e-36 0 6.34654e-36 0 1.61265e-35 0 3.86602e-35 0 8.77048e-35 0
7.46248 1.64819e-10 1.56972e-10 7.84735e-12 0.0476119 0.020194 0 0 0 0 0 0 0 0 1.4013e-45 0 1.23314e-43 0 4.3132e-42 0 7.76978e-41 0 8.77081e-40 0 7.24173e-39 0 4.52612e-38 0 2.30209e-37 0 1.01328e-36 0 3.74639e-36 0 1.27873e-35 0 3.89471e-35 0 1.06675e-34 0 2.74609e-34 0 6.66722e-34 0 1.53154e-33 0 3.33824e-33 0
7.84553 1.59559e-10 1.53021e-10 6.53817e-12 0.0409765 0.0185829 0 0 0 0 0 0 0 0 1.70958e-43 0 1.29018e-41 0 3.7931e-40 0 5.93278e-39 0 5.94967e-38 0 4.43133e-37 0 2.53256e-36 0 1.18978e-35 0 4.87137e-35 0 1.68969e-34 0 5.43179e-34 0 1.56683e-33 0 4.0855e-33 0 1.00426e-32 0 2.3349e-32 0 5.15013e-32 0 1.08065e-31 0
8.24824 1.42046e-10 1.36676e-10 5.37027e-12 0.0378066 0.0169241 0 0 0 0 0 0 6.30584e-44 0 1.59244e-41 0 9.72168e-40 0 2.42318e-38 0 3.3139e-37 0 2.96955e-36 0 2.00519e-35 0 1.05249e-34 0 4.58482e-34 0 1.75233e-33 0 5.72006e-33 0 1.7369e-32 0 4.75764e-32 0 1.18384e-31 0 2.78499e-31 0 6.21377e-31 0 1.31866e-30 0 2.66861e-30 0
8.67162 1.35074e-10 1.30646e-10 4.42865e-12 0.0327868 0.015423 0 0 0 0 2.8026e-45 0 6.52304e-42 0 1.24868e-39 0 6.23643e-38 0 1.32859e-36 0 1.59913e-35 0 1.28747e-34 0 7.91959e-34 0 3.83363e-33 0 1.55421e-32 0 5.56383e-32 0 1.71425e-31 0 4.93056e-31 0 1.28572e-30 0 3.05998e-30 0 6.90414e-30 0 1.48124e-29 0 3.03002e-29 0 5.92449e-29 0
9.11674 1.23488e-10 1.19852e-10 3.63549e-12 0.02944 0.0140176 0 0 0 0 2.63444e-43 0 5.0537e-40 0 7.48551e-38 0 3.08872e-36 0 5.66726e-35 0 6.04103e-34 0 4.39276e-33 0 2.47277e-32 0 1.10828e-31 0 4.19633e-31 0 1.41154e-30 0 4.11653e-30 0 1.12448e-29 0 2.79821e-29 0 6.38361e-29 0 1.38421e-28 0 2.86109e-28 0 5.65169e-28 0 1.06946e-27 0
9.5847 1.15753e-10 1.12766e-10 2.98619e-12 0.025798 0.0127339 0 0 0 0 2.41332e-41 0 3.19454e-38 0 3.70717e-36 0 1.27562e-34 0 2.03059e-33 0 1.92833e-32 0 1.27274e-31 0 6.58484e-31 0 2.74287e-30 0 9.73181e-30 0 3.08528e-29 0 8.53961e-29 0 2.22102e-28 0 5.28626e-28 0 1.15837e-27 0 2.41864e-27 0 4.82509e-27 0 9.2197e-27 0 1.69114e-26 0
10.0767 1.08855e-10 1.064e-10 2.45491e-12 0.0225522 0.0115748 0 0 4.2039e-45 0 1.748e-39 0 1.62896e-36 0 1.49879e-34 0 4.33903e-33 0 6.0341e-32 0 5.13385e-31 0 3.0902e-30 0 1.47551e-29 0 5.73256e-29 0 1.91198e-28 0 5.72953e-28 0 1.50895e-27 0 3.7456e-27 0 8.54537e-27 0 1.80217e-26 0 3.63003e-26 0 7.00163e-26 0 1.29623e-25 0 2.30824e-25 0
10.5939 1.0252e-10 1.00502e-10 2.01865e-12 0.0196902 0.0105233 0 0 4.17587e-43 0 1.01294e-37 0 6.76049e-35 0 4.98801e-33 0 1.22522e-31 0 1.49837e-30 0 1.14829e-29 0 6.3319e-29 0 2.80117e-28 0 1.01852e-27 0 3.20304e-27 0 9.0976e-27 0 2.28533e-26 0 5.42648e-26 0 1.18915e-25 0 2.41813e-25 0 4.70703e-25 0 8.7924e-25 0 1.57954e-24 0 2.7346e-24 0
11.1377 9.68912e-11 9.52309e-11 1.66028e-12 0.0171355 0.0095669 0 0 3.59391e-41 0 4.75779e-36 0 2.31153e-33 0 1.38244e-31 0 2.9044e-30 0 3.14317e-29 0 2.18082e-28 0 1.10637e-27 0 4.55172e-27 0 1.55393e-26 0 4.62095e-26 0 1.24727e-25 0 2.99539e-25 0 6.81843e-25 0 1.43804e-24 0 2.82463e-24 0 5.32238e-24 0 9.6431e-24 0 1.68351e-23 0 2.83755e-23 0
11.7094 9.12075e-11 8.98406e-11 1.36687e-12 0.0149863 0.00870534 7.00649e-45 0 2.44047e-39 0 1.81653e-34 0 6.52486e-32 0 3.19574e-30 0 5.78648e-29 0 5.57477e-28 0 3.51888e-27 0 1.64912e-26 0 6.33191e-26 0 2.0359e-25 0 5.74047e-25 0 1.47612e-24 0 3.39654e-24 0 7.42723e-24 0 1.51039e-23 0 2.87055e-23 0 5.24417e-23 0 9.22966e-23 0 1.56809e-22 0 2.57649e-22 0
12.3105 8.60673e-11 8.49429e-11 1.12434e-12 0.0130635 0.00791517 6.48801e-43 0 1.33155e-37 0 5.73146e-33 0 1.54466e-30 0 6.25635e-29 0 9.83448e-28 0 8.48262e-27 0 4.89373e-26 0 2.12683e-25 0 7.64697e-25 0 2.32245e-24 0 6.22525e-24 0 1.52864e-23 0 3.37715e-23 0 7.10805e-23 0 1.39624e-22 0 2.57171e-22 0 4.562e-22 0 7.81049e-22 0 1.29308e-21 0 2.07373e-21 0
