# 0.000732202 0 95 : grain size, compostion index, size index
# Heating and cooling timescale: 5.371e-06 1.19528e+16
# Ratio of heating to cooling to determine stochastic cutoff: 100
# Equilibrium emission is recorded even for those grains in the stochastic regime.
# Emission spectrum was computed for: 
# Type: ISRF
# Scales: 0.25 0.5 1 1.5 2 2.5 3 3.5 4 4.5 5 5.5 6 6.5 7 7.5 8 8.5 9 9.5 10
# StochasticallyHeated: 0 0 0 0 0 0 0 0 0 0 0 0 0 0 0 0 0 0 0 0 0
# Temperature: -1
# Wavelength  CExt  CAbs  CSca  Albedo G EqEm1 StEm1 EqEm2 StEm2 EqEm3 StEm3 EqEm4 StEm4 EqEm5 StEm5 EqEm6 StEm6 EqEm7 StEm7 EqEm8 StEm8 EqEm9 StEm9 EqEm10 StEm10 EqEm11 StEm11 EqEm12 StEm12 EqEm13 StEm13 EqEm14 StEm14 EqEm15 StEm15 EqEm16 StEm16 EqEm17 StEm17 EqEm18 StEm18 EqEm19 StEm19 EqEm20 StEm20 EqEm21 StEm21
0.05 3.38953e-06 1.59714e-06 1.79238e-06 0.528801 0.989911 0 0 0 0 0 0 0 0 0 0 0 0 0 0 0 0 0 0 0 0 0 0 0 0 0 0 0 0 0 0 0 0 0 0 0 0 0 0 0 0 0 0
0.0525665 3.3927e-06 1.56692e-06 1.82579e-06 0.538151 0.983276 0 0 0 0 0 0 0 0 0 0 0 0 0 0 0 0 0 0 0 0 0 0 0 0 0 0 0 0 0 0 0 0 0 0 0 0 0 0 0 0 0 0
0.0552647 3.39487e-06 1.55755e-06 1.83732e-06 0.541205 0.979681 0 0 0 0 0 0 0 0 0 0 0 0 0 0 0 0 0 0 0 0 0 0 0 0 0 0 0 0 0 0 0 0 0 0 0 0 0 0 0 0 0 0
0.0581015 3.3967e-06 1.55332e-06 1.84339e-06 0.542699 0.977191 0 0 0 0 0 0 0 0 0 0 0 0 0 0 0 0 0 0 0 0 0 0 0 0 0 0 0 0 0 0 0 0 0 0 0 0 0 0 0 0 0 0
0.0610839 3.39835e-06 1.55115e-06 1.8472e-06 0.543558 0.975335 0 0 0 0 0 0 0 0 0 0 0 0 0 0 0 0 0 0 0 0 0 0 0 0 0 0 0 0 0 0 0 0 0 0 0 0 0 0 0 0 0 0
0.0642193 3.3999e-06 1.54923e-06 1.85066e-06 0.544329 0.973708 0 0 0 0 0 0 0 0 0 0 0 0 0 0 0 0 0 0 0 0 0 0 0 0 0 0 0 0 0 0 0 0 0 0 0 0 0 0 0 0 0 0
0.0675157 3.40142e-06 1.54653e-06 1.85489e-06 0.545329 0.971999 0 0 0 0 0 0 0 0 0 0 0 0 0 0 0 0 0 0 0 0 0 0 0 0 0 0 0 0 0 0 0 0 0 0 0 0 0 0 0 0 0 0
0.0709813 3.40299e-06 1.54284e-06 1.86015e-06 0.546621 0.970036 0 0 0 0 0 0 0 0 0 0 0 0 0 0 0 0 0 0 0 0 0 0 0 0 0 0 0 0 0 0 0 0 0 0 0 0 0 0 0 0 0 0
0.0746248 3.40462e-06 1.53853e-06 1.86609e-06 0.548106 0.967814 0 0 0 0 0 0 0 0 0 0 0 0 0 0 0 0 0 0 0 0 0 0 0 0 0 0 0 0 0 0 0 0 0 0 0 0 0 0 0 0 0 0
0.0784553 3.40632e-06 1.53421e-06 1.87211e-06 0.5496 0.965495 0 0 0 0 0 0 0 0 0 0 0 0 0 0 0 0 0 0 0 0 0 0 0 0 0 0 0 0 0 0 0 0 0 0 0 0 0 0 0 0 0 0
0.0824824 3.4081e-06 1.53004e-06 1.87805e-06 0.551056 0.963137 0 0 0 0 0 0 0 0 0 0 0 0 0 0 0 0 0 0 0 0 0 0 0 0 0 0 0 0 0 0 0 0 0 0 0 0 0 0 0 0 0 0
0.0867162 3.40993e-06 1.52595e-06 1.88398e-06 0.552497 0.960731 0 0 0 0 0 0 0 0 0 0 0 0 0 0 0 0 0 0 0 0 0 0 0 0 0 0 0 0 0 0 0 0 0 0 0 0 0 0 0 0 0 0
0.0911674 3.41183e-06 1.52191e-06 1.88992e-06 0.55393 0.958265 0 0 0 0 0 0 0 0 0 0 0 0 0 0 0 0 0 0 0 0 0 0 0 0 0 0 0 0 0 0 0 0 0 0 0 0 0 0 0 0 0 0
0.095847 3.4138e-06 1.51799e-06 1.89582e-06 0.555339 0.955747 0 0 0 0 0 0 0 0 0 0 0 0 0 0 0 0 0 0 0 0 0 0 0 0 0 0 0 0 0 0 0 0 0 0 0 0 0 0 0 0 0 0
0.100767 3.41588e-06 1.51437e-06 1.90151e-06 0.556668 0.953234 0 0 0 0 0 0 0 0 0 0 0 0 0 0 0 0 0 0 0 0 0 0 0 0 0 0 0 0 0 0 0 0 0 0 0 0 0 0 0 0 0 0
0.105939 3.41805e-06 1.51178e-06 1.90626e-06 0.557705 0.950932 0 0 0 0 0 0 0 0 0 0 0 0 0 0 0 0 0 0 0 0 0 0 0 0 0 0 0 0 0 0 0 0 0 0 0 0 0 0 0 0 0 0
0.111377 3.42025e-06 1.51084e-06 1.9094e-06 0.558265 0.949214 0 0 0 0 0 0 0 0 0 0 0 0 0 0 0 0 0 0 0 0 0 0 0 0 0 0 0 0 0 0 0 0 0 0 0 0 0 0 0 0 0 0
0.117094 3.42241e-06 1.51101e-06 1.9114e-06 0.558496 0.948048 0 0 0 0 0 0 0 0 0 0 0 0 0 0 0 0 0 0 0 0 0 0 0 0 0 0 0 0 0 0 0 0 0 0 0 0 0 0 0 0 0 0
0.123105 3.42463e-06 1.51046e-06 1.91417e-06 0.558942 0.946671 0 0 0 0 0 0 0 0 0 0 0 0 0 0 0 0 0 0 0 0 0 0 0 0 0 0 0 0 0 0 0 0 0 0 0 0 0 0 0 0 0 0
0.129424 3.42697e-06 1.51101e-06 1.91596e-06 0.559082 0.945594 0 0 0 0 0 0 0 0 0 0 0 0 0 0 0 0 0 0 0 0 0 0 0 0 0 0 0 0 0 0 0 0 0 0 0 0 0 0 0 0 0 0
0.136067 3.4292e-06 1.51429e-06 1.91491e-06 0.558413 0.945716 0 0 0 0 0 0 0 0 0 0 0 0 0 0 0 0 0 0 0 0 0 0 0 0 0 0 0 0 0 0 0 0 0 0 0 0 0 0 0 0 0 0
0.143051 3.43142e-06 1.516e-06 1.91543e-06 0.558202 0.945437 0 0 0 0 0 0 0 0 0 0 0 0 0 0 0 0 0 0 0 0 0 0 0 0 0 0 0 0 0 0 0 0 0 0 0 0 0 0 0 0 0 0
0.150394 3.43382e-06 1.52096e-06 1.91286e-06 0.557065 0.946116 0 0 0 0 0 0 0 0 0 0 0 0 0 0 0 0 0 0 0 0 0 0 0 0 0 0 0 0 0 0 0 0 0 0 0 0 0 0 0 0 0 0
0.158114 3.43534e-06 1.53399e-06 1.90135e-06 0.553468 0.950734 0 0 0 0 0 0 0 0 0 0 0 0 0 0 0 0 0 0 0 0 0 0 0 0 0 0 0 0 0 0 0 0 0 0 0 0 0 0 0 0 0 0
0.16623 3.43629e-06 1.53561e-06 1.90068e-06 0.553121 0.952201 0 0 0 0 0 0 0 0 0 0 0 0 0 0 0 0 0 0 0 0 0 0 0 0 0 0 0 0 0 0 0 0 0 0 0 0 0 0 0 0 0 0
0.174762 3.43796e-06 1.52463e-06 1.91333e-06 0.556531 0.948822 0 0 0 0 0 0 0 0 0 0 0 0 0 0 0 0 0 0 0 0 0 0 0 0 0 0 0 0 0 0 0 0 0 0 0 0 0 0 0 0 0 0
0.183733 3.44031e-06 1.50747e-06 1.93285e-06 0.561823 0.942751 0 0 0 0 0 0 0 0 0 0 0 0 0 0 0 0 0 0 0 0 0 0 0 0 0 0 0 0 0 0 0 0 0 0 0 0 0 0 0 0 0 0
0.193164 3.44347e-06 1.48236e-06 1.96111e-06 0.569516 0.933144 0 0 0 0 0 0 0 0 0 0 0 0 0 0 0 0 0 0 0 0 0 0 0 0 0 0 0 0 0 0 0 0 0 0 0 0 0 0 0 0 0 0
0.203079 3.44767e-06 1.45652e-06 1.99115e-06 0.577534 0.921737 0 0 0 0 0 0 0 0 0 0 0 0 0 0 0 0 0 0 0 0 0 0 0 0 0 0 0 0 0 0 0 0 0 0 0 0 0 0 0 0 0 0
0.213503 3.45196e-06 1.43703e-06 2.01493e-06 0.583706 0.912222 0 0 0 0 0 0 0 0 0 0 0 0 0 0 0 0 0 0 0 0 0 0 0 0 0 0 0 0 0 0 0 0 0 0 0 0 0 0 0 0 0 0
0.224463 3.45633e-06 1.42051e-06 2.03582e-06 0.589013 0.903674 0 0 0 0 0 0 0 0 0 0 0 0 0 0 0 0 0 0 0 0 0 0 0 0 0 0 0 0 0 0 0 0 0 0 0 0 0 0 0 0 0 0
0.235984 3.46082e-06 1.40384e-06 2.05699e-06 0.594363 0.895085 0 0 0 0 0 0 0 0 0 0 0 0 0 0 0 0 0 0 0 0 0 0 0 0 0 0 0 0 0 0 0 0 0 0 0 0 0 0 0 0 0 0
0.248097 3.46585e-06 1.38418e-06 2.08168e-06 0.600625 0.884921 0 0 0 0 0 0 0 0 0 0 0 0 0 0 0 0 0 0 0 0 0 0 0 0 0 0 0 0 0 0 0 0 0 0 0 0 0 0 0 0 0 0
0.260832 3.47116e-06 1.3695e-06 2.10166e-06 0.605464 0.876292 0 0 0 0 0 0 0 0 0 0 0 0 0 0 0 0 0 0 0 0 0 0 0 0 0 0 0 0 0 0 0 0 0 0 0 0 0 0 0 0 0 0
0.274221 3.47661e-06 1.35855e-06 2.11806e-06 0.609232 0.869046 0 0 0 0 0 0 0 0 0 0 0 0 0 0 0 0 0 0 0 0 0 0 0 0 0 0 0 0 0 0 0 0 0 0 0 0 0 0 0 0 0 0
0.288297 3.48205e-06 1.3504e-06 2.13165e-06 0.612183 0.863061 0 0 0 0 0 0 0 0 0 0 0 0 0 0 0 0 0 0 0 0 0 0 0 0 0 0 0 0 0 0 0 0 0 0 0 0 0 0 0 0 0 0
0.303095 3.48767e-06 1.34412e-06 2.14355e-06 0.614607 0.85776 0 0 0 0 0 0 0 0 0 0 0 0 0 0 0 0 0 0 0 0 0 0 0 0 0 0 0 0 0 0 0 0 0 0 0 0 0 0 0 0 0 0
0.318653 3.49335e-06 1.33938e-06 2.15397e-06 0.616592 0.853181 0 0 0 0 0 0 0 0 0 0 0 0 0 0 0 0 0 0 0 0 0 0 0 0 0 0 0 0 0 0 0 0 0 0 0 0 0 0 0 0 0 0
0.335009 3.49915e-06 1.33555e-06 2.1636e-06 0.618321 0.84901 0 0 0 0 0 0 0 0 0 0 0 0 0 0 0 0 0 0 0 0 0 0 0 0 0 0 0 0 0 0 0 0 0 0 0 0 0 0 0 0 0 0
0.352205 3.50508e-06 1.33261e-06 2.17247e-06 0.619806 0.845214 0 0 0 0 0 0 0 0 0 0 0 0 0 0 0 0 0 0 0 0 0 0 0 0 0 0 0 0 0 0 0 0 0 0 0 0 0 0 0 0 0 0
0.370284 3.51117e-06 1.3298e-06 2.18138e-06 0.621267 0.841498 0 0 0 0 0 0 0 0 0 0 0 0 0 0 0 0 0 0 0 0 0 0 0 0 0 0 0 0 0 0 0 0 0 0 0 0 0 0 0 0 0 0
0.389291 3.51744e-06 1.32732e-06 2.19012e-06 0.622647 0.837925 0 0 0 0 0 0 0 0 0 0 0 0 0 0 0 0 0 0 0 0 0 0 0 0 0 0 0 0 0 0 0 0 0 0 0 0 0 0 0 0 0 0
0.409273 3.52389e-06 1.32471e-06 2.19918e-06 0.624078 0.834304 0 0 0 0 0 0 0 0 0 0 0 0 0 0 0 0 0 0 0 0 0 0 0 0 0 0 0 0 0 0 0 0 0 0 0 0 0 0 0 0 0 0
0.430281 3.53056e-06 1.32214e-06 2.20842e-06 0.625515 0.830662 0 0 0 0 0 0 0 0 0 0 0 0 0 0 0 0 0 0 0 0 0 0 0 0 0 0 0 0 0 0 0 0 0 0 0 0 0 0 0 0 0 0
0.452368 3.5374e-06 1.32007e-06 2.21733e-06 0.626826 0.827159 0 0 0 0 0 0 0 0 0 0 0 0 0 0 0 0 0 0 0 0 0 0 0 0 0 0 0 0 0 0 0 0 0 0 0 0 0 0 0 0 0 0
0.475588 3.5444e-06 1.31821e-06 2.22619e-06 0.628087 0.823703 0 0 0 0 0 0 0 0 0 0 0 0 0 0 0 0 0 0 0 0 0 0 0 0 0 0 0 0 0 0 0 0 0 0 0 0 0 0 0 0 0 0
0.5 3.55145e-06 1.31741e-06 2.23404e-06 0.629049 0.820626 0 0 0 0 0 0 0 0 0 0 0 0 0 0 0 0 0 0 0 0 0 0 0 0 0 0 0 0 0 0 0 0 0 0 0 0 0 0 0 0 0 0
0.525665 3.55851e-06 1.31756e-06 2.24095e-06 0.629744 0.817934 0 0 0 0 0 0 0 0 0 0 0 0 0 0 0 0 0 0 0 0 0 0 0 0 0 0 0 0 0 0 0 0 0 0 0 0 0 0 0 0 0 0
0.552648 3.56556e-06 1.31853e-06 2.24703e-06 0.630204 0.815601 0 0 0 0 0 0 0 0 0 0 0 0 0 0 0 0 0 0 0 0 0 0 0 0 0 0 0 0 0 0 0 0 0 0 0 0 0 0 0 0 0 0
0.581015 3.57261e-06 1.32001e-06 2.2526e-06 0.630519 0.813506 0 0 0 0 0 0 0 0 0 0 0 0 0 0 0 0 0 0 0 0 0 0 0 0 0 0 0 0 0 0 0 0 0 0 0 0 0 0 0 0 0 0
0.610839 3.57973e-06 1.32165e-06 2.25808e-06 0.630797 0.811492 0 0 0 0 0 0 0 0 0 0 0 0 0 0 0 0 0 0 0 0 0 0 0 0 0 0 0 0 0 0 0 0 0 0 0 0 0 0 0 0 0 0
0.642193 3.58689e-06 1.32346e-06 2.26343e-06 0.631028 0.809573 0 0 0 0 0 0 0 0 0 0 0 0 0 0 0 0 0 0 0 0 0 0 0 0 0 0 0 0 0 0 0 0 0 0 0 0 0 0 0 0 0 0
0.675157 3.59414e-06 1.32528e-06 2.26886e-06 0.631266 0.807669 0 0 0 0 0 0 0 0 0 0 0 0 0 0 0 0 0 0 0 0 0 0 0 0 0 0 0 0 0 0 0 0 0 0 0 0 0 0 0 0 0 0
0.709813 3.60146e-06 1.32711e-06 2.27436e-06 0.631509 0.805761 0 0 0 0 0 0 0 0 0 0 0 0 0 0 0 0 0 0 0 0 0 0 0 0 0 0 0 0 0 0 0 0 0 0 0 0 0 0 0 0 0 0
0.746248 3.60881e-06 1.32911e-06 2.2797e-06 0.631704 0.803923 0 0 0 0 0 0 0 0 0 0 0 0 0 0 0 0 0 0 0 0 0 0 0 0 0 0 0 0 0 0 0 0 0 0 0 0 0 0 0 0 0 0
0.784553 3.61613e-06 1.33143e-06 2.28469e-06 0.631807 0.80219 0 0 0 0 0 0 0 0 0 0 0 0 0 0 0 0 0 0 0 0 0 0 0 0 0 0 0 0 0 0 0 0 0 0 0 0 0 0 0 0 0 0
0.824824 3.62327e-06 1.33488e-06 2.28839e-06 0.631582 0.800919 0 0 0 0 0 0 0 0 0 0 0 0 0 0 0 0 0 0 0 0 0 0 0 0 0 0 0 0 0 0 0 0 0 0 0 0 0 0 0 0 0 0
0.867162 3.63042e-06 1.33946e-06 2.29096e-06 0.631046 0.800149 0 0 0 0 0 0 0 0 0 0 0 0 0 0 0 0 0 0 0 0 0 0 0 0 0 0 0 0 0 0 0 0 0 0 0 0 0 0 0 0 0 0
0.911674 3.6378e-06 1.34422e-06 2.29358e-06 0.630485 0.799468 0 0 0 0 0 0 0 0 0 0 0 0 0 0 0 0 0 0 0 0 0 0 0 0 0 0 0 0 0 0 0 0 0 0 0 0 0 0 0 0 0 0
0.95847 3.64561e-06 1.34807e-06 2.29754e-06 0.630221 0.798398 0 0 0 0 0 0 0 0 0 0 0 0 0 0 0 0 0 0 0 0 0 0 0 0 0 0 0 0 0 0 0 0 0 0 0 0 0 0 0 0 0 0
1.00767 3.65359e-06 1.35136e-06 2.30224e-06 0.630129 0.797053 0 0 0 0 0 0 0 0 0 0 0 0 0 0 0 0 0 0 0 0 0 0 0 0 0 0 0 0 0 0 0 0 0 0 0 0 0 0 0 0 0 0
1.05939 3.66171e-06 1.35486e-06 2.30685e-06 0.629993 0.795751 0 0 0 0 0 0 0 0 0 0 0 0 0 0 0 0 0 0 0 0 0 0 0 0 0 0 0 0 0 0 0 0 0 0 0 0 0 0 0 0 0 0
1.11377 3.66996e-06 1.35849e-06 2.31147e-06 0.629836 0.794459 0 0 0 0 0 0 0 0 0 0 0 0 0 0 0 0 0 0 0 0 0 0 0 0 0 0 0 0 0 0 0 0 0 0 0 0 0 0 0 0 0 0
1.17094 3.67842e-06 1.36191e-06 2.31651e-06 0.629757 0.793034 0 0 0 0 0 0 0 0 0 0 0 0 0 0 0 0 0 0 0 0 0 0 0 0 0 0 0 0 0 0 0 0 0 0 0 0 0 0 0 0 0 0
1.23105 3.68705e-06 1.3654e-06 2.32165e-06 0.629676 0.791587 0 0 0 0 0 0 0 0 0 0 0 0 0 0 0 0 0 0 0 0 0 0 0 0 0 0 0 0 0 0 0 0 0 0 0 0 0 0 0 0 0 0
1.29424 3.69577e-06 1.36918e-06 2.32659e-06 0.629528 0.7902 0 0 0 0 0 0 0 0 0 0 0 0 0 0 0 0 0 0 0 0 0 0 0 0 0 0 0 0 0 0 0 0 0 0 0 0 0 0 0 0 0 0
1.36067 3.70458e-06 1.3739e-06 2.33068e-06 0.629134 0.789129 0 0 0 0 0 0 0 0 0 0 0 0 0 0 0 0 0 0 0 0 0 0 0 0 0 0 0 0 0 0 0 0 0 0 0 0 0 0 0 0 0 0
1.43051 3.71389e-06 1.3789e-06 2.33499e-06 0.628718 0.788085 0 0 0 0 0 0 0 0 0 0 0 0 0 0 0 0 0 0 0 0 0 0 0 0 0 0 0 0 0 0 0 0 0 0 0 0 0 0 0 0 0 0
1.50394 3.7236e-06 1.38297e-06 2.34063e-06 0.628594 0.7866 0 0 0 0 0 0 0 0 0 0 0 0 0 0 0 0 0 0 0 0 0 0 0 0 0 0 0 0 0 0 0 0 0 0 0 0 0 0 0 0 0 0
1.58114 3.73344e-06 1.38687e-06 2.34657e-06 0.628528 0.784979 0 0 0 0 0 0 0 0 0 0 0 0 0 0 0 0 0 0 0 0 0 0 0 0 0 0 0 0 0 0 0 0 0 0 0 0 0 0 0 0 0 0
1.6623 3.74337e-06 1.3911e-06 2.35227e-06 0.628384 0.783413 0 0 0 0 0 0 0 0 0 0 0 0 0 0 0 0 0 0 0 0 0 0 0 0 0 0 0 0 0 0 0 0 0 0 0 0 0 0 0 0 0 0
1.74763 3.75352e-06 1.39591e-06 2.35761e-06 0.628105 0.781985 0 0 0 0 0 0 0 0 0 0 0 0 0 0 0 0 0 0 0 0 0 0 0 0 0 0 0 0 0 0 0 0 0 0 0 0 0 0 0 0 0 0
1.83733 3.76421e-06 1.40094e-06 2.36328e-06 0.627827 0.780527 0 0 0 0 0 0 0 0 0 0 0 0 0 0 0 0 0 0 0 0 0 0 0 0 0 0 0 0 0 0 0 0 0 0 0 0 0 0 0 0 0 0
1.93164 3.77511e-06 1.40509e-06 2.37001e-06 0.6278 0.778664 0 0 0 0 0 0 0 0 0 0 0 0 0 0 0 0 0 0 0 0 0 0 0 0 0 0 0 0 0 0 0 0 0 0 0 0 0 0 0 0 0 0
2.03079 3.786e-06 1.40991e-06 2.37609e-06 0.627599 0.776967 0 0 0 0 0 0 0 0 0 0 0 0 0 0 0 0 0 0 0 0 0 0 0 0 0 0 0 0 0 0 0 0 0 0 0 0 0 0 0 0 0 0
2.13503 3.7973e-06 1.41535e-06 2.38195e-06 0.627276 0.775383 0 0 0 0 0 0 0 0 0 0 0 0 0 0 0 0 0 0 0 0 0 0 0 0 0 0 0 0 0 0 0 0 0 0 0 0 0 0 0 0 0 0
2.24463 3.80892e-06 1.42098e-06 2.38795e-06 0.626935 0.773757 0 0 0 0 0 0 0 0 0 0 0 0 0 0 0 0 0 0 0 0 0 0 0 0 0 0 0 0 0 0 0 0 0 0 0 0 0 0 0 0 0 0
2.35984 3.821e-06 1.42681e-06 2.39419e-06 0.626587 0.772081 0 0 0 0 0 0 0 0 0 0 0 0 0 0 0 0 0 0 0 0 0 0 0 0 0 0 0 0 0 0 0 0 0 0 0 0 0 0 0 0 0 0
2.48097 3.83323e-06 1.43228e-06 2.40095e-06 0.626351 0.770179 0 0 0 0 0 0 0 0 0 0 0 0 0 0 0 0 0 0 0 0 0 0 0 0 0 0 0 0 0 0 0 0 0 0 0 0 0 0 0 0 0 0
2.60832 3.8458e-06 1.43966e-06 2.40615e-06 0.625655 0.768798 0 0 0 0 0 0 0 0 0 0 0 0 0 0 0 0 0 0 0 0 0 0 0 0 0 0 0 0 0 0 0 0 0 0 0 0 0 0 0 0 0 0
2.74221 3.8595e-06 1.44581e-06 2.41369e-06 0.625389 0.766813 0 0 0 0 0 0 0 0 0 0 0 0 0 0 0 0 0 0 0 0 0 0 0 0 0 0 0 0 0 0 0 0 0 0 0 0 0 0 0 0 0 0
2.88297 3.87281e-06 1.45137e-06 2.42144e-06 0.625241 0.764567 0 0 0 0 0 0 0 0 0 0 0 0 0 0 0 0 0 0 0 0 0 0 0 0 0 0 0 0 0 0 0 0 0 0 0 0 0 0 0 0 0 0
3.03095 3.88685e-06 1.45845e-06 2.4284e-06 0.624773 0.762652 0 0 0 0 0 0 0 0 0 0 0 0 0 0 0 0 0 0 0 0 0 0 0 0 0 0 0 0 0 0 0 0 0 0 0 0 0 0 0 0 0 0
3.18653 3.90143e-06 1.46394e-06 2.43749e-06 0.624768 0.76008 0 0 0 0 0 0 0 0 0 0 0 0 0 0 0 0 0 0 0 0 0 0 0 0 0 0 0 0 0 0 0 0 0 0 0 0 0 0 0 0 0 0
3.35009 3.91512e-06 1.46904e-06 2.44608e-06 0.624778 0.757356 0 0 0 0 0 0 0 0 0 0 0 0 0 0 0 0 0 0 0 0 0 0 0 0 0 0 0 0 0 0 0 0 0 0 0 0 0 0 0 0 0 0
3.52205 3.93043e-06 1.477e-06 2.45343e-06 0.624214 0.755279 0 0 0 0 0 0 0 0 0 0 0 0 0 0 0 0 0 0 0 0 0 0 0 0 0 0 0 0 0 0 0 0 0 0 0 0 0 0 0 0 0 0
3.70284 3.94571e-06 1.4834e-06 2.46231e-06 0.624048 0.752607 0 0 0 0 0 0 0 0 0 0 0 0 0 0 0 0 0 0 0 0 0 0 0 0 0 0 0 0 0 0 0 0 0 0 0 0 0 0 0 0 0 0
3.89291 3.9609e-06 1.48912e-06 2.47178e-06 0.624044 0.749616 0 0 0 0 0 0 0 0 0 0 0 0 0 0 0 0 0 0 0 0 0 0 0 0 0 0 0 0 0 0 0 0 0 0 0 0 0 0 0 0 0 0
4.09273 3.9769e-06 1.49596e-06 2.48094e-06 0.623838 0.746777 0 0 0 0 0 0 0 0 0 0 0 0 0 0 0 0 0 0 0 0 0 0 0 0 0 0 0 0 0 0 0 0 0 0 0 0 0 0 0 0 0 0
4.30281 3.99321e-06 1.50467e-06 2.48854e-06 0.623192 0.744315 0 0 0 0 0 0 0 0 0 0 0 0 0 0 0 0 0 0 0 0 0 0 0 0 0 0 0 0 0 0 0 0 0 0 0 0 0 0 0 0 0 0
4.52368 4.00956e-06 1.51335e-06 2.49621e-06 0.622565 0.741677 0 0 0 0 0 0 0 0 0 0 0 0 0 0 0 0 0 0 0 0 0 0 0 0 0 0 0 0 0 0 0 0 0 0 0 0 0 0 0 0 0 0
4.75588 4.02644e-06 1.52159e-06 2.50485e-06 0.6221 0.738733 0 0 0 0 0 0 0 0 0 0 0 0 0 0 0 0 0 0 0 0 0 0 0 0 0 0 0 0 0 0 0 0 0 0 0 0 0 0 0 0 0 0
5 4.04317e-06 1.5303e-06 2.51287e-06 0.621509 0.735735 0 0 0 0 0 0 0 0 0 0 0 0 0 0 0 0 0 0 0 0 0 0 0 0 0 0 0 0 0 0 0 0 0 0 0 0 0 0 0 0 0 0
5.25665 4.0612e-06 1.54243e-06 2.51878e-06 0.620204 0.733408 0 0 0 0 0 0 0 0 0 0 0 0 0 0 0 0 0 0 0 0 0 0 0 0 0 0 0 0 0 0 0 0 0 0 0 0 0 0 0 0 0 0
5.52648 4.08079e-06 1.55633e-06 2.52446e-06 0.61862 0.731205 0 0 0 0 0 0 0 0 0 0 0 0 0 0 0 0 0 0 0 0 0 0 0 0 0 0 0 0 0 0 0 0 0 0 0 0 0 0 0 0 0 0
5.81015 4.10334e-06 1.57504e-06 2.5283e-06 0.616157 0.729826 0 0 0 0 0 0 0 0 0 0 0 0 0 0 0 0 0 0 0 0 0 0 0 0 0 0 0 0 0 0 0 0 0 0 0 0 0 0 0 0 0 0
6.10839 4.12917e-06 1.58906e-06 2.54011e-06 0.615163 0.726805 0 0 0 0 0 0 0 0 0 0 0 0 0 0 0 0 0 0 0 0 0 0 0 0 0 0 0 0 0 0 0 0 0 0 0 0 0 0 0 0 0 0
6.42193 4.15016e-06 1.58616e-06 2.564e-06 0.617808 0.719572 0 0 0 0 0 0 0 0 0 0 0 0 0 0 0 0 0 0 0 0 0 0 0 0 0 0 0 0 0 0 0 0 0 0 0 0 0 0 0 0 0 0
6.75157 4.17066e-06 1.59333e-06 2.57733e-06 0.617967 0.714815 0 0 0 0 0 0 0 0 0 0 0 0 0 0 0 0 0 0 0 0 0 0 0 0 0 0 0 0 0 0 0 0 0 0 0 0 0 0 0 0 0 0
7.09813 4.19578e-06 1.60338e-06 2.5924e-06 0.61786 0.710212 0 0 0 0 0 0 0 0 0 0 0 0 0 0 0 0 0 0 0 0 0 0 0 0 0 0 0 0 0 0 0 0 0 0 0 0 0 0 0 0 0 0
7.46248 4.21689e-06 1.60176e-06 2.61513e-06 0.620157 0.702837 0 0 0 0 0 0 0 0 0 0 0 0 0 0 0 0 0 0 0 0 0 0 0 0 0 0 0 0 0 0 0 0 0 0 0 0 0 0 0 0 0 0
7.84553 4.23673e-06 1.6019e-06 2.63482e-06 0.6219 0.695953 0 0 0 0 0 0 0 0 0 0 0 0 0 0 0 0 0 0 0 0 0 0 0 0 0 0 0 0 0 0 0 0 0 0 0 0 0 0 0 0 0 0
8.24824 4.25663e-06 1.60013e-06 2.6565e-06 0.624085 0.688385 0 0 0 0 0 0 0 0 0 0 0 0 0 0 0 0 0 0 0 0 0 0 0 0 0 0 0 0 0 0 0 0 0 0 0 0 0 0 0 0 0 0
8.67162 4.27296e-06 1.60001e-06 2.67296e-06 0.625551 0.680882 0 0 0 0 0 0 0 0 0 0 0 0 0 0 0 0 0 0 0 0 0 0 0 0 0 0 0 0 0 0 0 0 0 0 0 0 0 0 0 0 0 0
9.11674 4.28939e-06 1.60212e-06 2.68726e-06 0.626491 0.673772 0 0 0 0 0 0 0 0 0 0 0 0 0 0 0 0 0 0 0 0 0 0 0 0 0 0 0 0 0 0 0 0 0 0 0 0 0 0 0 0 0 0
9.5847 4.30903e-06 1.6099e-06 2.69914e-06 0.62639 0.667545 0 0 0 0 0 0 0 0 0 0 0 0 0 0 0 0 0 0 0 0 0 0 0 0 0 0 0 0 0 0 0 0 0 0 0 0 0 0 0 0 0 0
10.0767 4.32876e-06 1.62375e-06 2.70501e-06 0.624892 0.661789 0 0 0 0 0 0 0 0 0 0 0 0 0 0 0 0 0 0 0 0 0 0 0 0 0 0 0 0 0 0 0 0 0 0 0 0 0 0 0 0 0 0
10.5939 4.34936e-06 1.64139e-06 2.70797e-06 0.622614 0.655975 0 0 0 0 0 0 0 0 0 0 0 0 0 0 0 0 0 0 0 0 0 0 0 0 0 0 0 0 0 0 0 0 0 0 0 0 0 0 0 0 0 0
11.1377 4.376e-06 1.65317e-06 2.72282e-06 0.622218 0.648716 0 0 0 0 0 0 0 0 0 0 0 0 0 0 0 0 0 0 0 0 0 0 0 0 0 0 0 0 0 0 0 0 0 0 0 0 0 0 0 0 0 0
11.7094 4.40205e-06 1.65964e-06 2.7424e-06 0.622984 0.640521 0 0 0 0 0 0 0 0 0 0 0 0 0 0 0 0 0 0 0 0 0 0 0 0 0 0 0 0 0 0 0 0 0 0 0 0 0 0 0 0 0 0
12.3105 4.4265e-06 1.67184e-06 2.75466e-06 0.622311 0.632758 0 0 0 0 0 0 0 0 0 0 0 0 0 0 0 0 0 0 0 0 0 0 0 0 0 0 0 0 0 0 0 0 0 0 0 0 1.4013e-45 0 2.8026e-45 0 5.60519e-45 0
12.9424 4.45169e-06 1.68848e-06 2.76322e-06 0.620711 0.624414 0 0 0 0 0 0 0 0 0 0 0 0 0 0 0 0 0 0 0 0 0 0 0 0 0 0 0 0 2.8026e-45 0 8.40779e-45 0 2.24208e-44 0 6.30584e-44 0 1.62551e-43 0 3.90962e-43 0 9.01035e-43 0
13.6067 4.45989e-06 1.67901e-06 2.78088e-06 0.623531 0.610815 0 0 0 0 0 0 0 0 0 0 0 0 0 0 0 0 0 0 0 0 1.4013e-45 0 8.40779e-45 0 3.64338e-44 0 1.30321e-43 0 4.44212e-43 0 1.30741e-42 0 3.65879e-42 0 9.48539e-42 0 2.34942e-41 0 5.4198e-41 0 1.20032e-40 0
14.3051 4.48578e-06 1.69151e-06 2.79426e-06 0.622916 0.600475 0 0 0 0 0 0 0 0 0 0 0 0 0 0 1.4013e-45 0 8.40779e-45 0 5.60519e-44 0 3.01279e-43 0 1.40971e-42 0 5.59679e-42 0 1.9045e-41 0 6.11905e-41 0 1.71023e-40 0 4.55384e-40 0 1.12671e-39 0 2.66988e-39 0 5.91287e-39 0 1.25966e-38 0
15.0394 4.52002e-06 1.71151e-06 2.80851e-06 0.62135 0.591646 0 0 0 0 0 0 0 0 0 0 0 0 1.26117e-44 0 1.58347e-43 0 1.32142e-42 0 8.42881e-42 0 4.20165e-41 0 1.82431e-40 0 6.76986e-40 0 2.17026e-39 0 6.58647e-39 0 1.75078e-38 0 4.44416e-38 0 1.052e-37 0 2.39002e-37 0 5.09154e-37 0 1.04536e-36 0
15.8114 4.55229e-06 1.73109e-06 2.82119e-06 0.619731 0.582639 0 0 0 0 0 0 0 0 2.8026e-45 0 1.12104e-43 0 2.02207e-42 0 2.24628e-41 0 1.69438e-40 0 9.87548e-40 0 4.55144e-39 0 1.83946e-38 0 6.40274e-38 0 1.93908e-37 0 5.57439e-37 0 1.41269e-36 0 3.42652e-36 0 7.77694e-36 0 1.69744e-35 0 3.48501e-35 0 6.90826e-35 0
16.623 4.57558e-06 1.74277e-06 2.83281e-06 0.619115 0.57108 0 0 0 0 0 0 4.2039e-45 0 4.82047e-43 0 1.58711e-41 0 2.49934e-40 0 2.46824e-39 0 1.68686e-38 0 9.02092e-38 0 3.85871e-37 0 1.4567e-36 0 4.77088e-36 0 1.36878e-35 0 3.73718e-35 0 9.05056e-35 0 2.1023e-34 0 4.58428e-34 0 9.63175e-34 0 1.90925e-33 0 3.66032e-33 0
17.4762 4.58652e-06 1.75038e-06 2.83613e-06 0.618363 0.556347 0 0 0 0 1.4013e-45 0 7.45491e-43 0 6.30458e-41 0 1.74856e-39 0 2.40692e-38 0 2.12552e-37 0 1.32253e-36 0 6.51663e-36 0 2.59655e-35 0 9.18665e-35 0 2.83942e-34 0 7.73778e-34 0 2.01154e-33 0 4.66559e-33 0 1.04005e-32 0 2.18324e-32 0 4.42377e-32 0 8.48089e-32 0 1.57506e-31 0
18.3733 4.59182e-06 1.74896e-06 2.84287e-06 0.619115 0.53761 0 0 0 0 1.73761e-43 0 9.36922e-41 0 6.38335e-39 0 1.50528e-37 0 1.82304e-36 0 1.44748e-35 0 8.23737e-35 0 3.75484e-34 0 1.39847e-33 0 4.65178e-33 0 1.36071e-32 0 3.53097e-32 0 8.76091e-32 0 1.95023e-31 0 4.18058e-31 0 8.46368e-31 0 1.65683e-30 0 3.07699e-30 0 5.5444e-30 0
19.3164 4.61127e-06 1.75897e-06 2.8523e-06 0.61855 0.519108 0 0 0 0 2.33162e-41 0 9.25111e-39 0 5.12892e-37 0 1.03652e-35 0 1.11141e-34 0 7.9755e-34 0 4.1693e-33 0 1.76482e-32 0 6.16425e-32 0 1.93358e-31 0 5.36722e-31 0 1.32941e-30 0 3.15533e-30 0 6.75483e-30 0 1.39507e-29 0 2.72875e-29 0 5.16937e-29 0 9.31453e-29 0 1.63081e-28 0
