# 1.70392e-07 0 15 : grain size, compostion index, size index
# Heating and cooling timescale: 8298.71 11.2921
# Ratio of heating to cooling to determine stochastic cutoff: 100
# Equilibrium emission is recorded even for those grains in the stochastic regime.
# Emission spectrum was computed for: 
# Type: ISRF
# Scales: 0.25 0.5 1 1.5 2 2.5 3 3.5 4 4.5 5 5.5 6 6.5 7 7.5 8 8.5 9 9.5 10
# StochasticallyHeated: 1 1 1 1 1 1 1 1 1 1 1 1 1 1 1 1 1 1 1 1 1
# Temperature: -1
# Wavelength  CExt  CAbs  CSca  Albedo G EqEm1 StEm1 EqEm2 StEm2 EqEm3 StEm3 EqEm4 StEm4 EqEm5 StEm5 EqEm6 StEm6 EqEm7 StEm7 EqEm8 StEm8 EqEm9 StEm9 EqEm10 StEm10 EqEm11 StEm11 EqEm12 StEm12 EqEm13 StEm13 EqEm14 StEm14 EqEm15 StEm15 EqEm16 StEm16 EqEm17 StEm17 EqEm18 StEm18 EqEm19 StEm19 EqEm20 StEm20 EqEm21 StEm21
0.05 3.96026e-15 3.9583e-15 1.96333e-18 0.000495757 0.00721088 0 0 0 0 0 0 0 0 0 0 0 0 0 0 0 0 0 0 0 0 0 0 0 0 0 0 0 0 0 0 0 0 0 0 0 0 0 0 0 0 0 0
0.0525665 5.27451e-15 5.27135e-15 3.15878e-18 0.000598876 0.00646728 0 0 0 0 0 0 0 0 0 0 0 0 0 0 0 0 0 0 0 0 0 0 0 0 0 0 0 0 0 0 0 0 0 0 0 0 0 0 0 0 0 0
0.0552647 6.30167e-15 6.29799e-15 3.67435e-18 0.000583077 0.00583227 0 0 0 0 0 0 0 0 0 0 0 0 0 0 0 0 0 0 0 0 0 0 0 0 0 0 0 0 0 0 0 0 0 0 0 0 0 0 0 0 0 0
0.0581015 7.06816e-15 7.06433e-15 3.83171e-18 0.000542108 0.0052695 0 0 0 0 0 0 0 0 0 0 0 0 0 0 0 0 0 0 0 0 0 0 0 0 0 0 0 0 0 0 0 0 0 0 0 0 0 0 0 0 0 0
0.0610839 7.59106e-15 7.58731e-15 3.75034e-18 0.000494047 0.0047659 0 0 0 0 0 0 0 0 0 0 0 0 0 0 0 0 0 0 0 0 0 0 0 0 0 0 0 0 0 0 0 0 0 0 0 0 0 0 0 0 0 0
0.0642193 7.93192e-15 7.92838e-15 3.54687e-18 0.000447164 0.00431165 0 0 0 0 0 0 0 0 0 0 0 0 0 0 0 0 0 0 0 0 0 0 0 0 0 0 0 0 0 0 0 0 0 0 0 0 0 0 0 0 0 0
0.0675157 8.16867e-15 8.16536e-15 3.30819e-18 0.000404985 0.00389968 0 0 0 0 0 0 0 0 0 0 0 0 0 0 0 0 0 0 0 0 0 0 0 0 0 0 0 0 0 0 0 0 0 0 0 0 0 0 0 0 0 0
0.0709813 8.37872e-15 8.37563e-15 3.0857e-18 0.000368278 0.00352586 0 0 0 0 0 0 0 0 0 0 0 0 0 0 0 0 0 0 0 0 0 0 0 0 0 0 0 0 0 0 0 0 0 0 0 0 0 0 0 0 0 0
0.0746248 8.59656e-15 8.59367e-15 2.89008e-18 0.00033619 0.00318746 0 0 0 0 0 0 0 0 0 0 0 0 0 0 0 0 0 0 0 0 0 0 0 0 0 0 0 0 0 0 0 0 0 0 0 0 0 0 0 0 0 0
0.0784553 8.79976e-15 8.79706e-15 2.70074e-18 0.000306911 0.00288204 0 0 0 0 0 0 0 0 0 0 0 0 0 0 0 0 0 0 0 0 0 0 0 0 0 0 0 0 0 0 0 0 0 0 0 0 0 0 0 0 0 0
0.0824824 8.9748e-15 8.97229e-15 2.51187e-18 0.00027988 0.00260654 0 0 0 0 0 0 0 0 0 0 0 0 0 0 0 0 0 0 0 0 0 0 0 0 0 0 0 0 0 0 0 0 0 0 0 0 0 0 0 0 0 0
0.0867162 9.11896e-15 9.11664e-15 2.32559e-18 0.000255028 0.0023579 0 0 0 0 0 0 0 0 0 0 0 0 0 0 0 0 0 0 0 0 0 0 0 0 0 0 0 0 0 0 0 0 0 0 0 0 0 0 0 0 0 0
0.0911674 9.23591e-15 9.23376e-15 2.14573e-18 0.000232325 0.00213354 0 0 0 0 0 0 0 0 0 0 0 0 0 0 0 0 0 0 0 0 0 0 0 0 0 0 0 0 0 0 0 0 0 0 0 0 0 0 0 0 0 0
0.095847 9.32547e-15 9.32349e-15 1.97372e-18 0.000211649 0.00193128 0 0 0 0 0 0 0 0 0 0 0 0 0 0 0 0 0 0 0 0 0 0 0 0 0 0 0 0 0 0 0 0 0 0 0 0 0 0 0 0 0 0
0.100767 9.38003e-15 9.37822e-15 1.80814e-18 0.000192765 0.0017493 0 0 0 0 0 0 0 0 0 0 0 0 0 0 0 0 0 0 0 0 0 0 0 0 0 0 0 0 0 0 0 0 0 0 0 0 0 0 0 0 0 0
0.105939 9.37616e-15 9.37452e-15 1.64417e-18 0.000175357 0.00158673 0 0 0 0 0 0 0 0 0 0 0 0 0 0 0 0 0 0 0 0 0 0 0 0 0 0 0 0 0 0 0 0 0 0 0 0 0 0 0 0 0 0
0.111377 9.24551e-15 9.24405e-15 1.46348e-18 0.000158291 0.00144138 0 0 0 0 0 0 0 0 0 0 0 0 0 0 0 0 0 0 0 0 0 0 0 0 0 0 0 0 0 0 0 0 0 0 0 0 0 0 0 0 0 0
0.117094 8.99571e-15 8.99444e-15 1.27272e-18 0.000141481 0.00130993 0 0 0 0 0 0 0 0 0 0 0 0 0 0 0 0 0 0 0 0 0 0 0 0 0 0 0 0 0 0 0 0 0 0 0 0 0 0 0 0 0 0
0.123105 8.74783e-15 8.74672e-15 1.10806e-18 0.000126667 0.00119004 0 0 0 0 0 0 0 0 0 0 0 0 0 0 0 0 0 0 0 0 0 0 0 0 0 0 0 0 0 0 0 0 0 0 0 0 0 0 0 0 0 0
0.129424 8.44349e-15 8.44253e-15 9.57513e-19 0.000113403 0.00108311 0 0 0 0 0 0 0 0 0 0 0 0 0 0 0 0 0 0 0 0 0 0 0 0 0 0 0 0 0 0 0 0 0 0 0 0 0 0 0 0 0 0
0.136067 7.98927e-15 7.98847e-15 7.96964e-19 9.97543e-05 0.000986832 0 0 0 0 0 0 0 0 0 0 0 0 0 0 0 0 0 0 0 0 0 0 0 0 0 0 0 0 0 0 0 0 0 0 0 0 0 0 0 0 0 0
0.143051 7.5982e-15 7.59753e-15 6.66016e-19 8.76544e-05 0.000897047 0 0 0 0 0 0 0 0 0 0 0 0 0 0 0 0 0 0 0 0 0 0 0 0 0 0 0 0 0 0 0 0 0 0 0 0 0 0 0 0 0 0
0.150394 7.08892e-15 7.08837e-15 5.46013e-19 7.70234e-05 0.000819276 0 0 0 0 0 0 0 0 0 0 0 0 0 0 0 0 0 0 0 0 0 0 0 0 0 0 0 0 0 0 0 0 0 0 0 0 0 0 0 0 0 0
0.158114 6.27357e-15 6.27317e-15 3.93127e-19 6.2664e-05 0.000745866 0 0 0 0 0 0 0 0 0 0 0 0 0 0 0 0 0 0 0 0 0 0 0 0 0 0 0 0 0 0 0 0 0 0 0 0 0 0 0 0 0 0
0.16623 5.91662e-15 5.91633e-15 2.98364e-19 5.04281e-05 0.000667313 0 0 0 0 0 0 0 0 0 0 0 0 0 0 0 0 0 0 0 0 0 0 0 0 0 0 0 0 0 0 0 0 0 0 0 0 0 0 0 0 0 0
0.174762 5.96839e-15 5.96813e-15 2.60833e-19 4.37025e-05 0.000594522 0 0 0 0 0 0 0 0 0 0 0 0 0 0 0 0 0 0 0 0 0 0 0 0 0 0 0 0 0 0 0 0 0 0 0 0 0 0 0 0 0 0
0.183733 6.17936e-15 6.17911e-15 2.45174e-19 3.96764e-05 0.000529344 0 0 0 0 0 0 0 0 0 0 0 0 0 0 0 0 0 0 0 0 0 0 0 0 0 0 0 0 0 0 0 0 0 0 0 0 0 0 0 0 0 0
0.193164 6.60014e-15 6.59989e-15 2.48558e-19 3.76594e-05 0.000469786 0 0 0 0 0 0 0 0 0 0 0 0 0 0 0 0 0 0 0 0 0 0 0 0 0 0 0 0 0 0 0 0 0 0 0 0 0 0 0 0 0 0
0.203079 7.12642e-15 7.12616e-15 2.62318e-19 3.68092e-05 0.000418294 0 0 0 0 0 0 0 0 0 0 0 0 0 0 0 0 0 0 0 0 0 0 0 0 0 0 0 0 0 0 0 0 0 0 0 0 0 0 0 0 0 0
0.213503 7.47071e-15 7.47045e-15 2.62932e-19 3.51951e-05 0.000374129 0 0 0 0 0 0 0 0 0 0 0 0 0 0 0 0 0 0 0 0 0 0 0 0 0 0 0 0 0 0 0 0 0 0 0 0 0 0 0 0 0 0
0.224463 7.69723e-15 7.69697e-15 2.55776e-19 3.32297e-05 0.000335173 0 0 0 0 0 0 0 0 0 0 0 0 0 0 0 0 0 0 0 0 0 0 0 0 0 0 0 0 0 0 0 0 0 0 0 0 0 0 0 0 0 0
0.235984 7.87581e-15 7.87556e-15 2.45752e-19 3.12035e-05 0.000299833 0 0 0 0 0 0 0 0 0 0 0 0 0 0 0 0 0 0 0 0 0 0 0 0 0 0 0 0 0 0 0 0 0 0 0 0 0 0 0 0 0 0
0.248097 8.09599e-15 8.09575e-15 2.40302e-19 2.96816e-05 0.000267457 0 0 0 0 0 0 0 0 0 0 0 0 0 0 0 0 0 0 0 0 0 0 0 0 0 0 0 0 0 0 0 0 0 0 0 0 0 0 0 0 0 0
0.260832 8.12634e-15 8.12611e-15 2.27987e-19 2.80553e-05 0.000239956 0 0 0 0 0 0 0 0 0 0 0 0 0 0 0 0 0 0 0 0 0 0 0 0 0 0 0 0 0 0 0 0 0 0 0 0 0 0 0 0 0 0
0.274221 7.97943e-15 7.97922e-15 2.09843e-19 2.6298e-05 0.000216315 0 0 0 0 0 0 0 0 0 0 0 0 0 0 0 0 0 0 0 0 0 0 0 0 0 0 0 0 0 0 0 0 0 0 0 0 0 0 0 0 0 0
0.288297 7.70322e-15 7.70303e-15 1.87837e-19 2.43842e-05 0.000195678 0 0 0 0 0 0 0 0 0 0 0 0 0 0 0 0 0 0 0 0 0 0 0 0 0 0 0 0 0 0 0 0 0 0 0 0 0 0 0 0 0 0
0.303095 7.33265e-15 7.33248e-15 1.65319e-19 2.25456e-05 0.000177763 0 0 0 0 0 0 0 0 0 0 0 0 0 0 0 0 0 0 0 0 0 0 0 0 0 0 0 0 0 0 0 0 0 0 0 0 0 0 0 0 0 0
0.318653 6.91238e-15 6.91224e-15 1.43171e-19 2.07122e-05 0.000161949 0 0 0 0 0 0 0 0 0 0 0 0 0 0 0 0 0 0 0 0 0 0 0 0 0 0 0 0 0 0 0 0 0 0 0 0 0 0 0 0 0 0
0.335009 6.46935e-15 6.46923e-15 1.22707e-19 1.89675e-05 0.000147926 0 0 0 0 0 0 0 0 0 0 0 0 0 0 0 0 0 0 0 0 0 0 0 0 0 0 0 0 0 0 0 0 0 0 0 0 0 0 0 0 0 0
0.352205 6.01779e-15 6.01769e-15 1.04256e-19 1.73246e-05 0.000135492 0 0 0 0 0 0 0 0 0 0 0 0 0 0 0 0 0 0 0 0 0 0 0 0 0 0 0 0 0 0 0 0 0 0 0 0 0 0 0 0 0 0
0.370284 5.58094e-15 5.58085e-15 8.81936e-20 1.58026e-05 0.000124268 0 0 0 0 0 0 0 0 0 0 0 0 0 0 0 0 0 0 0 0 0 0 0 0 0 0 0 0 0 0 0 0 0 0 0 0 0 0 0 0 0 0
0.389291 5.15928e-15 5.15921e-15 7.42705e-20 1.43955e-05 0.000114178 0 0 0 0 0 0 0 0 0 0 0 0 0 0 0 0 0 0 0 0 0 0 0 0 0 0 0 0 0 0 0 0 0 0 0 0 0 0 0 0 0 0
0.409273 4.76152e-15 4.76146e-15 6.24242e-20 1.31101e-05 0.000105008 0 0 0 0 0 0 0 0 0 0 0 0 0 0 0 0 0 0 0 0 0 0 0 0 0 0 0 0 0 0 0 0 0 0 0 0 0 0 0 0 0 0
0.430281 4.38195e-15 4.3819e-15 5.23478e-20 1.19462e-05 9.67577e-05 0 0 0 0 0 0 0 0 0 0 0 0 0 0 0 0 0 0 0 0 0 0 0 0 0 0 0 0 0 0 0 0 0 0 0 0 0 0 0 0 0 0
0.452368 4.01512e-15 4.01508e-15 4.37294e-20 1.08912e-05 8.94564e-05 0 0 0 0 0 0 0 0 0 0 0 0 0 0 0 0 0 0 0 0 0 0 0 0 0 0 0 0 0 0 0 0 0 0 0 0 0 0 0 0 0 0
0.475588 3.66738e-15 3.66735e-15 3.64392e-20 9.93601e-06 8.29352e-05 0 0 0 0 0 0 0 0 0 0 0 0 0 0 0 0 0 0 0 0 0 0 0 0 0 0 0 0 0 0 0 0 0 0 0 0 0 0 0 0 0 0
0.5 3.33358e-15 3.33355e-15 3.02028e-20 9.06016e-06 7.72528e-05 0 0 0 0 0 0 0 0 0 0 0 0 0 0 0 0 0 0 0 0 0 0 0 0 0 0 0 0 0 0 0 0 0 0 0 0 0 0 0 0 0 0
0.525665 3.02263e-15 3.02261e-15 2.49265e-20 8.24663e-06 7.21966e-05 0 0 0 0 0 0 0 0 0 0 0 0 0 0 0 0 0 0 0 0 0 0 0 0 0 0 0 0 0 0 0 0 0 0 0 0 0 0 0 0 0 0
0.552648 2.73844e-15 2.73842e-15 2.05051e-20 7.48786e-06 6.76085e-05 0 0 0 0 0 0 0 0 0 0 0 0 0 0 0 0 0 0 0 0 0 0 0 0 0 0 0 0 0 0 0 0 0 0 0 0 0 0 0 0 0 0
0.581015 2.48141e-15 2.4814e-15 1.68369e-20 6.7852e-06 6.33744e-05 0 0 0 0 0 0 0 0 0 0 0 0 0 0 0 0 0 0 0 0 0 0 0 0 0 0 0 0 0 0 0 0 0 0 0 0 0 0 0 0 0 0
0.610839 2.24965e-15 2.24964e-15 1.38184e-20 6.14247e-06 5.94282e-05 0 0 0 0 0 0 0 0 0 0 0 0 0 0 0 0 0 0 0 0 0 0 0 0 0 0 0 0 0 0 0 0 0 0 0 0 0 0 0 0 0 0
0.642193 2.04133e-15 2.04132e-15 1.13369e-20 5.55367e-06 5.57254e-05 0 0 0 0 0 0 0 0 0 0 0 0 0 0 0 0 0 0 0 0 0 0 0 0 0 0 0 0 0 0 0 0 0 0 0 0 0 0 0 0 0 0
0.675157 1.85439e-15 1.85438e-15 9.30402e-21 5.0173e-06 5.22303e-05 0 0 0 0 0 0 0 0 0 0 0 0 0 0 0 0 0 0 0 0 0 0 0 0 0 0 0 0 0 0 0 0 0 0 0 0 0 0 0 0 0 0
0.709813 1.68407e-15 1.68406e-15 7.63595e-21 4.53424e-06 4.89808e-05 0 0 0 0 0 0 0 0 0 0 0 0 0 0 0 0 0 0 0 1.4013e-45 0 1.4013e-45 0 1.4013e-45 0 1.4013e-45 0 2.8026e-45 0 2.8026e-45 0 2.8026e-45 0 4.2039e-45 0 4.2039e-45 0 4.2039e-45 0 5.60519e-45 0 5.60519e-45
0.746248 1.52882e-15 1.52882e-15 6.26416e-21 4.09737e-06 4.59579e-05 0 0 0 0 0 0 0 1.4013e-45 0 2.8026e-45 0 5.60519e-45 0 8.40779e-45 0 1.26117e-44 0 1.82169e-44 0 2.52234e-44 0 3.36312e-44 0 4.2039e-44 0 5.32493e-44 0 6.16571e-44 0 7.70714e-44 0 8.82818e-44 0 1.06499e-43 0 1.20512e-43 0 1.34525e-43 0 1.58347e-43 0 1.75162e-43
0.784553 1.38471e-15 1.38471e-15 5.13358e-21 3.70733e-06 4.32049e-05 0 0 0 1.4013e-45 0 9.80909e-45 0 3.36312e-44 0 7.28675e-44 0 1.4013e-43 0 2.21405e-43 0 3.27904e-43 0 4.6383e-43 0 6.34788e-43 0 8.39378e-43 0 1.01454e-42 0 1.28639e-42 0 1.5092e-42 0 1.85112e-42 0 2.12437e-42 0 2.54196e-42 0 2.87126e-42 0 3.21878e-42 0 3.74427e-42 0 4.15065e-42
0.824824 1.25225e-15 1.25225e-15 4.19446e-21 3.34954e-06 4.06613e-05 0 2.8026e-44 0 6.5861e-44 0 2.88667e-43 0 8.49187e-43 0 1.74742e-42 0 3.19076e-42 0 4.92697e-42 0 7.18165e-42 0 1.00179e-41 0 1.35029e-41 0 1.76522e-41 0 2.13109e-41 0 2.67298e-41 0 3.13316e-41 0 3.80831e-41 0 4.36869e-41 0 5.18368e-41 0 5.85e-41 0 6.55696e-41 0 7.57248e-41 0 8.39055e-41
0.867162 1.13691e-15 1.13691e-15 3.42008e-21 3.00822e-06 3.81288e-05 0 1.04817e-42 0 2.35278e-42 0 7.86409e-42 0 1.96364e-41 0 3.74819e-41 0 6.48311e-41 0 9.74085e-41 0 1.38901e-40 0 1.90212e-40 0 2.52363e-40 0 3.25459e-40 0 3.91739e-40 0 4.85818e-40 0 5.68239e-40 0 6.84093e-40 0 7.83553e-40 0 9.21991e-40 0 1.03927e-39 0 1.16365e-39 0 1.3345e-39 0 1.47741e-39
0.911674 1.03802e-15 1.03801e-15 2.79073e-21 2.68852e-06 3.55771e-05 0 3.33677e-41 0 7.17395e-41 0 1.98197e-40 0 4.24836e-40 0 7.4628e-40 0 1.2113e-39 0 1.75744e-39 0 2.43698e-39 0 3.26124e-39 0 4.24309e-39 0 5.38267e-39 0 6.44336e-39 0 7.88613e-39 0 9.18825e-39 0 1.09425e-38 0 1.24974e-38 0 1.45716e-38 0 1.63888e-38 0 1.83137e-38 0 2.08479e-38 0 2.30438e-38
0.95847 9.52685e-16 9.52683e-16 2.28508e-21 2.39856e-06 3.30591e-05 0 8.93692e-40 0 1.87176e-39 0 4.56525e-39 0 8.65301e-39 0 1.4034e-38 0 2.13108e-38 0 2.9694e-38 0 3.98268e-38 0 5.18325e-38 0 6.58527e-38 0 8.18742e-38 0 9.71529e-38 0 1.17034e-37 0 1.35487e-37 0 1.59301e-37 0 1.81051e-37 0 2.08874e-37 0 2.34025e-37 0 2.60613e-37 0 2.94213e-37 0 3.24293e-37
1.00767 8.73743e-16 8.73741e-16 1.87409e-21 2.1449e-06 3.07314e-05 0 2.019e-38 0 4.16114e-38 0 9.39497e-38 0 1.63211e-37 0 2.47929e-37 0 3.54579e-37 0 4.74516e-37 0 6.14617e-37 0 7.76048e-37 0 9.60166e-37 0 1.1667e-36 0 1.3679e-36 0 1.61783e-36 0 1.85578e-36 0 2.14957e-36 0 2.42545e-36 0 2.76376e-36 0 3.07853e-36 0 3.41017e-36 0 3.81276e-36 0 4.18412e-36
1.05939 8.017e-16 8.01698e-16 1.53679e-21 1.91691e-06 2.85485e-05 0 3.88319e-37 0 7.92355e-37 0 1.70761e-36 0 2.80376e-36 0 4.06332e-36 0 5.54729e-36 0 7.17299e-36 0 9.00481e-36 0 1.10524e-35 0 1.33271e-35 0 1.58257e-35 0 1.83011e-35 0 2.12341e-35 0 2.40875e-35 0 2.74569e-35 0 3.06981e-35 0 3.45096e-35 0 3.81467e-35 0 4.19594e-35 0 4.64097e-35 0 5.0625e-35
1.11377 7.36039e-16 7.36038e-16 1.26029e-21 1.71226e-06 2.65004e-05 0 6.40905e-36 0 1.2995e-35 0 2.72368e-35 0 4.31962e-35 0 6.06969e-35 0 8.02455e-35 0 1.01148e-34 0 1.23933e-34 0 1.48673e-34 0 1.75453e-34 0 2.0424e-34 0 2.33087e-34 0 2.65779e-34 0 2.98106e-34 0 3.34697e-34 0 3.70577e-34 0 4.11125e-34 0 4.50619e-34 0 4.91748e-34 0 5.38008e-34 0 5.82797e-34
1.17094 6.76155e-16 6.76154e-16 1.03442e-21 1.52986e-06 2.45849e-05 0 9.1448e-35 0 1.84668e-34 0 3.80627e-34 0 5.91199e-34 0 8.14846e-34 0 1.0553e-33 0 1.30741e-33 0 1.57503e-33 0 1.85863e-33 0 2.15877e-33 0 2.47522e-33 0 2.79424e-33 0 3.14245e-33 0 3.49039e-33 0 3.87009e-33 0 4.24741e-33 0 4.65928e-33 0 5.06639e-33 0 5.48721e-33 0 5.94533e-33 0 6.39623e-33
1.23105 6.21579e-16 6.21578e-16 8.49327e-22 1.3664e-06 2.27922e-05 0 1.13624e-33 0 2.28839e-33 0 4.66885e-33 0 7.16164e-33 0 9.75499e-33 0 1.24734e-32 0 1.5283e-32 0 1.82086e-32 0 2.12531e-32 0 2.44197e-32 0 2.77072e-32 0 3.10283e-32 0 3.45513e-32 0 3.80907e-32 0 4.18453e-32 0 4.56055e-32 0 4.95994e-32 0 5.3583e-32 0 5.76712e-32 0 6.20064e-32 0 6.63194e-32
1.29424 5.71034e-16 5.71033e-16 6.9707e-22 1.22071e-06 2.113e-05 0 1.23604e-32 0 2.48495e-32 0 5.03794e-32 0 7.66949e-32 0 1.03716e-31 0 1.31586e-31 0 1.60108e-31 0 1.89423e-31 0 2.19546e-31 0 2.50496e-31 0 2.82269e-31 0 3.14359e-31 0 3.47732e-31 0 3.81327e-31 0 4.16259e-31 0 4.51374e-31 0 4.87943e-31 0 5.24589e-31 0 5.61962e-31 0 6.00839e-31 0 6.3975e-31
1.36067 5.24848e-16 5.24847e-16 5.71124e-22 1.08817e-06 1.95632e-05 0 1.1862e-31 0 2.38186e-31 0 4.80965e-31 0 7.28787e-31 0 9.8116e-31 0 1.23884e-30 0 1.5008e-30 0 1.76775e-30 0 2.03979e-30 0 2.31698e-30 0 2.59935e-30 0 2.8842e-30 0 3.17661e-30 0 3.47103e-30 0 3.77311e-30 0 4.07714e-30 0 4.3896e-30 0 4.70332e-30 0 5.02167e-30 0 5.34852e-30 0 5.67657e-30
1.43051 4.85713e-16 4.85712e-16 4.68263e-22 9.64074e-07 1.8029e-05 0 1.0169e-30 0 2.04018e-30 0 4.10907e-30 0 6.20805e-30 0 8.33436e-30 0 1.04916e-29 0 1.26749e-29 0 1.48877e-29 0 1.71301e-29 0 1.94027e-29 0 2.17058e-29 0 2.40258e-29 0 2.63878e-29 0 2.87644e-29 0 3.11823e-29 0 3.36157e-29 0 3.60952e-29 0 3.85856e-29 0 4.11036e-29 0 4.36669e-29 0 4.62419e-29
1.50394 4.50188e-16 4.50188e-16 3.84904e-22 8.54984e-07 1.66116e-05 0 7.79172e-30 0 1.5623e-29 0 3.14119e-29 0 4.73678e-29 0 6.34763e-29 0 7.97528e-29 0 9.61776e-29 0 1.12763e-28 0 1.29511e-28 0 1.46423e-28 0 1.63503e-28 0 1.80687e-28 0 1.98089e-28 0 2.15585e-28 0 2.33288e-28 0 2.51095e-28 0 2.69142e-28 0 2.87262e-28 0 3.05534e-28 0 3.24034e-28 0 3.42619e-28
1.58114 4.16641e-16 4.16641e-16 3.16521e-22 7.59697e-07 1.53209e-05 0 5.34956e-29 0 1.07216e-28 0 2.1532e-28 0 3.24287e-28 0 4.34046e-28 0 5.44659e-28 0 6.56051e-28 0 7.68263e-28 0 8.81308e-28 0 9.95186e-28 0 1.10993e-27 0 1.22523e-27 0 1.34163e-27 0 1.45853e-27 0 1.57644e-27 0 1.69494e-27 0 1.81462e-27 0 1.93473e-27 0 2.05562e-27 0 2.17759e-27 0 2.30007e-27
1.6623 3.85054e-16 3.85053e-16 2.60131e-22 6.7557e-07 1.4137e-05 0 3.30874e-28 0 6.62922e-28 0 1.33026e-27 0 2.00176e-27 0 2.6771e-27 0 3.35648e-27 0 4.03969e-27 0 4.72681e-27 0 5.41791e-27 0 6.11298e-27 0 6.81219e-27 0 7.51424e-27 0 8.22135e-27 0 8.93107e-27 0 9.64527e-27 0 1.03626e-26 0 1.10854e-26 0 1.18104e-26 0 1.25392e-26 0 1.32728e-26 0 1.40092e-26
1.74763 3.56164e-16 3.56163e-16 2.13626e-22 5.99798e-07 1.30306e-05 0 1.85705e-27 0 3.71979e-27 0 7.46005e-27 0 1.12191e-26 0 1.49956e-26 0 1.87901e-26 0 2.26021e-26 0 2.64317e-26 0 3.0279e-26 0 3.41441e-26 0 3.80279e-26 0 4.19248e-26 0 4.5844e-26 0 4.97754e-26 0 5.37258e-26 0 5.76913e-26 0 6.16809e-26 0 6.56807e-26 0 6.96972e-26 0 7.37348e-26 0 7.77853e-26
1.83733 3.31356e-16 3.31355e-16 1.75548e-22 5.29786e-07 1.19709e-05 0 9.5504e-27 0 1.91264e-26 0 3.83418e-26 0 5.76375e-26 0 7.70073e-26 0 9.64532e-26 0 1.15974e-25 0 1.35569e-25 0 1.5524e-25 0 1.74985e-25 0 1.9481e-25 0 2.14691e-25 0 2.34666e-25 0 2.54693e-25 0 2.74797e-25 0 2.94968e-25 0 3.1524e-25 0 3.35556e-25 0 3.55942e-25 0 3.76415e-25 0 3.96944e-25
1.93164 3.07675e-16 3.07675e-16 1.44508e-22 4.69676e-07 1.10197e-05 0 4.48598e-26 0 8.98264e-26 0 1.80014e-25 0 2.70521e-25 0 3.61324e-25 0 4.52428e-25 0 5.43832e-25 0 6.3553e-25 0 7.27526e-25 0 8.19819e-25 0 9.12426e-25 0 1.00526e-24 0 1.09846e-24 0 1.19187e-24 0 1.28558e-24 0 1.37956e-24 0 1.47394e-24 0 1.56849e-24 0 1.66332e-24 0 1.75849e-24 0 1.85388e-24
2.03079 2.84904e-16 2.84904e-16 1.18797e-22 4.16971e-07 1.01523e-05 0 1.93132e-25 0 3.86677e-25 0 7.74719e-25 0 1.16395e-24 0 1.55429e-24 0 1.94574e-24 0 2.33832e-24 0 2.73198e-24 0 3.12675e-24 0 3.52261e-24 0 3.91964e-24 0 4.31752e-24 0 4.71676e-24 0 5.11677e-24 0 5.51787e-24 0 5.91997e-24 0 6.32358e-24 0 6.72779e-24 0 7.13304e-24 0 7.53954e-24 0 7.94686e-24
2.13503 2.64644e-16 2.64644e-16 9.76157e-23 3.68856e-07 9.33273e-06 0 7.69726e-25 0 1.54095e-24 0 3.08674e-24 0 4.63672e-24 0 6.19056e-24 0 7.74829e-24 0 9.30997e-24 0 1.08754e-23 0 1.24448e-23 0 1.40179e-23 0 1.55952e-23 0 1.71754e-23 0 1.87604e-23 0 2.0348e-23 0 2.19393e-23 0 2.35343e-23 0 2.51344e-23 0 2.67367e-23 0 2.83426e-23 0 2.99528e-23 0 3.15658e-23
2.24463 2.4615e-16 2.4615e-16 8.02212e-23 3.25904e-07 8.57275e-06 0 2.8458e-24 0 5.69665e-24 0 1.14094e-23 0 1.71361e-23 0 2.28754e-23 0 2.86276e-23 0 3.43927e-23 0 4.01704e-23 0 4.59607e-23 0 5.17636e-23 0 5.75799e-23 0 6.34059e-23 0 6.92476e-23 0 7.5098e-23 0 8.09604e-23 0 8.68347e-23 0 9.27263e-23 0 9.86245e-23 0 1.04535e-22 0 1.10459e-22 0 1.16393e-22
2.35984 2.2958e-16 2.2958e-16 6.59566e-23 2.87293e-07 7.86412e-06 0 9.8103e-24 0 1.96366e-23 0 3.93239e-23 0 5.90543e-23 0 7.88242e-23 0 9.86338e-23 0 1.18484e-22 0 1.38373e-22 0 1.58301e-22 0 1.78268e-22 0 1.98276e-22 0 2.18315e-22 0 2.38402e-22 0 2.58516e-22 0 2.78667e-22 0 2.98855e-22 0 3.19097e-22 0 3.39359e-22 0 3.59657e-22 0 3.79999e-22 0 4.00371e-22
2.48097 2.13757e-16 2.13757e-16 5.42677e-23 2.53875e-07 7.22429e-06 0 3.15029e-23 0 6.30535e-23 0 1.26256e-22 0 1.89585e-22 0 2.53029e-22 0 3.1659e-22 0 3.80268e-22 0 4.44059e-22 0 5.07966e-22 0 5.71985e-22 0 6.36125e-22 0 7.00352e-22 0 7.64723e-22 0 8.2917e-22 0 8.93725e-22 0 9.58387e-22 0 1.02321e-21 0 1.08808e-21 0 1.15307e-21 0 1.21818e-21 0 1.28337e-21
2.60832 1.9938e-16 1.9938e-16 4.45314e-23 2.23349e-07 6.61776e-06 0 9.48802e-23 0 1.89894e-22 0 3.80203e-22 0 5.7086e-22 0 7.61836e-22 0 9.53133e-22 0 1.14476e-21 0 1.33669e-21 0 1.52894e-21 0 1.7215e-21 0 1.9144e-21 0 2.10753e-21 0 2.30106e-21 0 2.4948e-21 0 2.68884e-21 0 2.88317e-21 0 3.07793e-21 0 3.27285e-21 0 3.46806e-21 0 3.66363e-21 0 3.85942e-21
2.74221 1.87946e-16 1.87946e-16 3.66757e-23 1.9514e-07 6.04282e-06 0 2.71237e-22 0 5.4283e-22 0 1.08676e-21 0 1.63161e-21 0 2.17731e-21 0 2.72385e-21 0 3.27124e-21 0 3.81946e-21 0 4.36851e-21 0 4.91838e-21 0 5.46913e-21 0 6.0205e-21 0 6.57293e-21 0 7.12589e-21 0 7.67964e-21 0 8.23416e-21 0 8.78982e-21 0 9.34589e-21 0 9.90273e-21 0 1.04605e-20 0 1.10189e-20
2.88297 1.75491e-16 1.75491e-16 3.02086e-23 1.72137e-07 5.54735e-06 0 7.23539e-22 0 1.44797e-21 0 2.89867e-21 0 4.35167e-21 0 5.80673e-21 0 7.2639e-21 0 8.72318e-21 0 1.01845e-20 0 1.16479e-20 0 1.31133e-20 0 1.45808e-20 0 1.60499e-20 0 1.75217e-20 0 1.89947e-20 0 2.04697e-20 0 2.19465e-20 0 2.34262e-20 0 2.49069e-20 0 2.63895e-20 0 2.78744e-20 0 2.93607e-20
3.03095 1.64845e-16 1.64845e-16 2.4847e-23 1.50729e-07 5.07116e-06 0 1.83437e-21 0 3.67086e-21 0 7.34822e-21 0 1.1031e-20 0 1.47187e-20 0 1.84113e-20 0 2.21089e-20 0 2.58113e-20 0 2.95186e-20 0 3.32307e-20 0 3.69478e-20 0 4.06686e-20 0 4.43956e-20 0 4.81256e-20 0 5.18603e-20 0 5.55993e-20 0 5.93451e-20 0 6.30931e-20 0 6.68457e-20 0 7.06037e-20 0 7.4365e-20
3.18653 1.55188e-16 1.55188e-16 2.04978e-23 1.32083e-07 4.64094e-06 0 4.41549e-21 0 8.83576e-21 0 1.76862e-20 0 2.65489e-20 0 3.54225e-20 0 4.43074e-20 0 5.32035e-20 0 6.21104e-20 0 7.10282e-20 0 7.99568e-20 0 8.88969e-20 0 9.7845e-20 0 1.06807e-19 0 1.15776e-19 0 1.24755e-19 0 1.33745e-19 0 1.42749e-19 0 1.51758e-19 0 1.60778e-19 0 1.6981e-19 0 1.78849e-19
