# 0.000902528 0 97 : grain size, compostion index, size index
# Heating and cooling timescale: 3.6242e-06 1.79562e+18
# Ratio of heating to cooling to determine stochastic cutoff: 100
# Equilibrium emission is recorded even for those grains in the stochastic regime.
# Emission spectrum was computed for: 
# Type: ISRF
# Scales: 0.25 0.5 1 1.5 2 2.5 3 3.5 4 4.5 5 5.5 6 6.5 7 7.5 8 8.5 9 9.5 10
# StochasticallyHeated: 0 0 0 0 0 0 0 0 0 0 0 0 0 0 0 0 0 0 0 0 0
# Temperature: -1
# Wavelength  CExt  CAbs  CSca  Albedo G EqEm1 StEm1 EqEm2 StEm2 EqEm3 StEm3 EqEm4 StEm4 EqEm5 StEm5 EqEm6 StEm6 EqEm7 StEm7 EqEm8 StEm8 EqEm9 StEm9 EqEm10 StEm10 EqEm11 StEm11 EqEm12 StEm12 EqEm13 StEm13 EqEm14 StEm14 EqEm15 StEm15 EqEm16 StEm16 EqEm17 StEm17 EqEm18 StEm18 EqEm19 StEm19 EqEm20 StEm20 EqEm21 StEm21
0.05 5.14709e-06 2.42574e-06 2.72135e-06 0.528716 0.989924 0 0 0 0 0 0 0 0 0 0 0 0 0 0 0 0 0 0 0 0 0 0 0 0 0 0 0 0 0 0 0 0 0 0 0 0 0 0 0 0 0 0
0.0525665 5.15111e-06 2.37972e-06 2.77139e-06 0.538018 0.983281 0 0 0 0 0 0 0 0 0 0 0 0 0 0 0 0 0 0 0 0 0 0 0 0 0 0 0 0 0 0 0 0 0 0 0 0 0 0 0 0 0 0
0.0552647 5.15388e-06 2.36523e-06 2.78865e-06 0.541079 0.979684 0 0 0 0 0 0 0 0 0 0 0 0 0 0 0 0 0 0 0 0 0 0 0 0 0 0 0 0 0 0 0 0 0 0 0 0 0 0 0 0 0 0
0.0581015 5.15624e-06 2.35854e-06 2.7977e-06 0.542585 0.977192 0 0 0 0 0 0 0 0 0 0 0 0 0 0 0 0 0 0 0 0 0 0 0 0 0 0 0 0 0 0 0 0 0 0 0 0 0 0 0 0 0 0
0.0610839 5.1584e-06 2.35501e-06 2.80339e-06 0.543461 0.975335 0 0 0 0 0 0 0 0 0 0 0 0 0 0 0 0 0 0 0 0 0 0 0 0 0 0 0 0 0 0 0 0 0 0 0 0 0 0 0 0 0 0
0.0642193 5.16044e-06 2.3519e-06 2.80854e-06 0.544245 0.973708 0 0 0 0 0 0 0 0 0 0 0 0 0 0 0 0 0 0 0 0 0 0 0 0 0 0 0 0 0 0 0 0 0 0 0 0 0 0 0 0 0 0
0.0675157 5.16244e-06 2.3476e-06 2.81484e-06 0.545254 0.971998 0 0 0 0 0 0 0 0 0 0 0 0 0 0 0 0 0 0 0 0 0 0 0 0 0 0 0 0 0 0 0 0 0 0 0 0 0 0 0 0 0 0
0.0709813 5.1645e-06 2.34182e-06 2.82268e-06 0.546554 0.970033 0 0 0 0 0 0 0 0 0 0 0 0 0 0 0 0 0 0 0 0 0 0 0 0 0 0 0 0 0 0 0 0 0 0 0 0 0 0 0 0 0 0
0.0746248 5.16666e-06 2.33508e-06 2.83158e-06 0.548048 0.96781 0 0 0 0 0 0 0 0 0 0 0 0 0 0 0 0 0 0 0 0 0 0 0 0 0 0 0 0 0 0 0 0 0 0 0 0 0 0 0 0 0 0
0.0784553 5.16889e-06 2.32833e-06 2.84056e-06 0.54955 0.965488 0 0 0 0 0 0 0 0 0 0 0 0 0 0 0 0 0 0 0 0 0 0 0 0 0 0 0 0 0 0 0 0 0 0 0 0 0 0 0 0 0 0
0.0824824 5.17121e-06 2.32179e-06 2.84941e-06 0.551015 0.963129 0 0 0 0 0 0 0 0 0 0 0 0 0 0 0 0 0 0 0 0 0 0 0 0 0 0 0 0 0 0 0 0 0 0 0 0 0 0 0 0 0 0
0.0867162 5.17362e-06 2.31536e-06 2.85826e-06 0.552468 0.96072 0 0 0 0 0 0 0 0 0 0 0 0 0 0 0 0 0 0 0 0 0 0 0 0 0 0 0 0 0 0 0 0 0 0 0 0 0 0 0 0 0 0
0.0911674 5.17613e-06 2.309e-06 2.86713e-06 0.553914 0.958251 0 0 0 0 0 0 0 0 0 0 0 0 0 0 0 0 0 0 0 0 0 0 0 0 0 0 0 0 0 0 0 0 0 0 0 0 0 0 0 0 0 0
0.095847 5.17874e-06 2.30279e-06 2.87594e-06 0.555337 0.955731 0 0 0 0 0 0 0 0 0 0 0 0 0 0 0 0 0 0 0 0 0 0 0 0 0 0 0 0 0 0 0 0 0 0 0 0 0 0 0 0 0 0
0.100767 5.18145e-06 2.29703e-06 2.88442e-06 0.556682 0.953215 0 0 0 0 0 0 0 0 0 0 0 0 0 0 0 0 0 0 0 0 0 0 0 0 0 0 0 0 0 0 0 0 0 0 0 0 0 0 0 0 0 0
0.105939 5.1843e-06 2.29281e-06 2.89149e-06 0.557739 0.950911 0 0 0 0 0 0 0 0 0 0 0 0 0 0 0 0 0 0 0 0 0 0 0 0 0 0 0 0 0 0 0 0 0 0 0 0 0 0 0 0 0 0
0.111377 5.18719e-06 2.29107e-06 2.89613e-06 0.558322 0.949192 0 0 0 0 0 0 0 0 0 0 0 0 0 0 0 0 0 0 0 0 0 0 0 0 0 0 0 0 0 0 0 0 0 0 0 0 0 0 0 0 0 0
0.117094 5.19004e-06 2.291e-06 2.89904e-06 0.558578 0.948026 0 0 0 0 0 0 0 0 0 0 0 0 0 0 0 0 0 0 0 0 0 0 0 0 0 0 0 0 0 0 0 0 0 0 0 0 0 0 0 0 0 0
0.123105 5.19297e-06 2.28985e-06 2.90312e-06 0.559048 0.946649 0 0 0 0 0 0 0 0 0 0 0 0 0 0 0 0 0 0 0 0 0 0 0 0 0 0 0 0 0 0 0 0 0 0 0 0 0 0 0 0 0 0
0.129424 5.19605e-06 2.29033e-06 2.90571e-06 0.559216 0.945573 0 0 0 0 0 0 0 0 0 0 0 0 0 0 0 0 0 0 0 0 0 0 0 0 0 0 0 0 0 0 0 0 0 0 0 0 0 0 0 0 0 0
0.136067 5.19899e-06 2.29495e-06 2.90404e-06 0.558578 0.945699 0 0 0 0 0 0 0 0 0 0 0 0 0 0 0 0 0 0 0 0 0 0 0 0 0 0 0 0 0 0 0 0 0 0 0 0 0 0 0 0 0 0
0.143051 5.20196e-06 2.2972e-06 2.90476e-06 0.558397 0.945423 0 0 0 0 0 0 0 0 0 0 0 0 0 0 0 0 0 0 0 0 0 0 0 0 0 0 0 0 0 0 0 0 0 0 0 0 0 0 0 0 0 0
0.150394 5.20514e-06 2.30432e-06 2.90082e-06 0.557299 0.946107 0 0 0 0 0 0 0 0 0 0 0 0 0 0 0 0 0 0 0 0 0 0 0 0 0 0 0 0 0 0 0 0 0 0 0 0 0 0 0 0 0 0
0.158114 5.20723e-06 2.32375e-06 2.88348e-06 0.553746 0.950742 0 0 0 0 0 0 0 0 0 0 0 0 0 0 0 0 0 0 0 0 0 0 0 0 0 0 0 0 0 0 0 0 0 0 0 0 0 0 0 0 0 0
0.16623 5.20864e-06 2.32613e-06 2.88252e-06 0.55341 0.952217 0 0 0 0 0 0 0 0 0 0 0 0 0 0 0 0 0 0 0 0 0 0 0 0 0 0 0 0 0 0 0 0 0 0 0 0 0 0 0 0 0 0
0.174762 5.21094e-06 2.30944e-06 2.9015e-06 0.556809 0.948834 0 0 0 0 0 0 0 0 0 0 0 0 0 0 0 0 0 0 0 0 0 0 0 0 0 0 0 0 0 0 0 0 0 0 0 0 0 0 0 0 0 0
0.183733 5.21411e-06 2.28333e-06 2.93077e-06 0.562085 0.942751 0 0 0 0 0 0 0 0 0 0 0 0 0 0 0 0 0 0 0 0 0 0 0 0 0 0 0 0 0 0 0 0 0 0 0 0 0 0 0 0 0 0
0.193164 5.21825e-06 2.24511e-06 2.97314e-06 0.569758 0.933122 0 0 0 0 0 0 0 0 0 0 0 0 0 0 0 0 0 0 0 0 0 0 0 0 0 0 0 0 0 0 0 0 0 0 0 0 0 0 0 0 0 0
0.203079 5.2237e-06 2.20555e-06 3.01815e-06 0.57778 0.921685 0 0 0 0 0 0 0 0 0 0 0 0 0 0 0 0 0 0 0 0 0 0 0 0 0 0 0 0 0 0 0 0 0 0 0 0 0 0 0 0 0 0
0.213503 5.22927e-06 2.1755e-06 3.05377e-06 0.583977 0.912144 0 0 0 0 0 0 0 0 0 0 0 0 0 0 0 0 0 0 0 0 0 0 0 0 0 0 0 0 0 0 0 0 0 0 0 0 0 0 0 0 0 0
0.224463 5.23495e-06 2.14991e-06 3.08504e-06 0.589317 0.903573 0 0 0 0 0 0 0 0 0 0 0 0 0 0 0 0 0 0 0 0 0 0 0 0 0 0 0 0 0 0 0 0 0 0 0 0 0 0 0 0 0 0
0.235984 5.24079e-06 2.12406e-06 3.11673e-06 0.594706 0.894958 0 0 0 0 0 0 0 0 0 0 0 0 0 0 0 0 0 0 0 0 0 0 0 0 0 0 0 0 0 0 0 0 0 0 0 0 0 0 0 0 0 0
0.248097 5.24728e-06 2.09361e-06 3.15368e-06 0.601011 0.884761 0 0 0 0 0 0 0 0 0 0 0 0 0 0 0 0 0 0 0 0 0 0 0 0 0 0 0 0 0 0 0 0 0 0 0 0 0 0 0 0 0 0
0.260832 5.25416e-06 2.07059e-06 3.18358e-06 0.605915 0.876105 0 0 0 0 0 0 0 0 0 0 0 0 0 0 0 0 0 0 0 0 0 0 0 0 0 0 0 0 0 0 0 0 0 0 0 0 0 0 0 0 0 0
0.274221 5.26119e-06 2.05316e-06 3.20803e-06 0.609754 0.868836 0 0 0 0 0 0 0 0 0 0 0 0 0 0 0 0 0 0 0 0 0 0 0 0 0 0 0 0 0 0 0 0 0 0 0 0 0 0 0 0 0 0
0.288297 5.26827e-06 2.03997e-06 3.2283e-06 0.612782 0.862831 0 0 0 0 0 0 0 0 0 0 0 0 0 0 0 0 0 0 0 0 0 0 0 0 0 0 0 0 0 0 0 0 0 0 0 0 0 0 0 0 0 0
0.303095 5.27557e-06 2.02957e-06 3.246e-06 0.615289 0.857513 0 0 0 0 0 0 0 0 0 0 0 0 0 0 0 0 0 0 0 0 0 0 0 0 0 0 0 0 0 0 0 0 0 0 0 0 0 0 0 0 0 0
0.318653 5.28294e-06 2.02148e-06 3.26146e-06 0.617357 0.852922 0 0 0 0 0 0 0 0 0 0 0 0 0 0 0 0 0 0 0 0 0 0 0 0 0 0 0 0 0 0 0 0 0 0 0 0 0 0 0 0 0 0
0.335009 5.29049e-06 2.01476e-06 3.27574e-06 0.619174 0.848738 0 0 0 0 0 0 0 0 0 0 0 0 0 0 0 0 0 0 0 0 0 0 0 0 0 0 0 0 0 0 0 0 0 0 0 0 0 0 0 0 0 0
0.352205 5.29824e-06 2.00935e-06 3.28889e-06 0.620751 0.844933 0 0 0 0 0 0 0 0 0 0 0 0 0 0 0 0 0 0 0 0 0 0 0 0 0 0 0 0 0 0 0 0 0 0 0 0 0 0 0 0 0 0
0.370284 5.3062e-06 2.00411e-06 3.30209e-06 0.622307 0.841206 0 0 0 0 0 0 0 0 0 0 0 0 0 0 0 0 0 0 0 0 0 0 0 0 0 0 0 0 0 0 0 0 0 0 0 0 0 0 0 0 0 0
0.389291 5.3144e-06 1.99937e-06 3.31503e-06 0.623783 0.837626 0 0 0 0 0 0 0 0 0 0 0 0 0 0 0 0 0 0 0 0 0 0 0 0 0 0 0 0 0 0 0 0 0 0 0 0 0 0 0 0 0 0
0.409273 5.32286e-06 1.9944e-06 3.32846e-06 0.625314 0.833996 0 0 0 0 0 0 0 0 0 0 0 0 0 0 0 0 0 0 0 0 0 0 0 0 0 0 0 0 0 0 0 0 0 0 0 0 0 0 0 0 0 0
0.430281 5.33162e-06 1.98947e-06 3.34215e-06 0.626854 0.830346 0 0 0 0 0 0 0 0 0 0 0 0 0 0 0 0 0 0 0 0 0 0 0 0 0 0 0 0 0 0 0 0 0 0 0 0 0 0 0 0 0 0
0.452368 5.34061e-06 1.98527e-06 3.35534e-06 0.628269 0.826837 0 0 0 0 0 0 0 0 0 0 0 0 0 0 0 0 0 0 0 0 0 0 0 0 0 0 0 0 0 0 0 0 0 0 0 0 0 0 0 0 0 0
0.475588 5.34986e-06 1.98138e-06 3.36847e-06 0.629638 0.823377 0 0 0 0 0 0 0 0 0 0 0 0 0 0 0 0 0 0 0 0 0 0 0 0 0 0 0 0 0 0 0 0 0 0 0 0 0 0 0 0 0 0
0.5 5.35919e-06 1.9791e-06 3.38009e-06 0.630709 0.820298 0 0 0 0 0 0 0 0 0 0 0 0 0 0 0 0 0 0 0 0 0 0 0 0 0 0 0 0 0 0 0 0 0 0 0 0 0 0 0 0 0 0
0.525665 5.36857e-06 1.97827e-06 3.3903e-06 0.631509 0.817609 0 0 0 0 0 0 0 0 0 0 0 0 0 0 0 0 0 0 0 0 0 0 0 0 0 0 0 0 0 0 0 0 0 0 0 0 0 0 0 0 0 0
0.552648 5.37796e-06 1.9787e-06 3.39926e-06 0.632073 0.815282 0 0 0 0 0 0 0 0 0 0 0 0 0 0 0 0 0 0 0 0 0 0 0 0 0 0 0 0 0 0 0 0 0 0 0 0 0 0 0 0 0 0
0.581015 5.38739e-06 1.97992e-06 3.40747e-06 0.63249 0.813197 0 0 0 0 0 0 0 0 0 0 0 0 0 0 0 0 0 0 0 0 0 0 0 0 0 0 0 0 0 0 0 0 0 0 0 0 0 0 0 0 0 0
0.610839 5.39693e-06 1.98138e-06 3.41555e-06 0.632869 0.811196 0 0 0 0 0 0 0 0 0 0 0 0 0 0 0 0 0 0 0 0 0 0 0 0 0 0 0 0 0 0 0 0 0 0 0 0 0 0 0 0 0 0
0.642193 5.40658e-06 1.98313e-06 3.42345e-06 0.6332 0.809291 0 0 0 0 0 0 0 0 0 0 0 0 0 0 0 0 0 0 0 0 0 0 0 0 0 0 0 0 0 0 0 0 0 0 0 0 0 0 0 0 0 0
0.675157 5.41634e-06 1.98489e-06 3.43145e-06 0.633536 0.807405 0 0 0 0 0 0 0 0 0 0 0 0 0 0 0 0 0 0 0 0 0 0 0 0 0 0 0 0 0 0 0 0 0 0 0 0 0 0 0 0 0 0
0.709813 5.42623e-06 1.98666e-06 3.43957e-06 0.633878 0.805517 0 0 0 0 0 0 0 0 0 0 0 0 0 0 0 0 0 0 0 0 0 0 0 0 0 0 0 0 0 0 0 0 0 0 0 0 0 0 0 0 0 0
0.746248 5.43618e-06 1.98873e-06 3.44745e-06 0.634168 0.803702 0 0 0 0 0 0 0 0 0 0 0 0 0 0 0 0 0 0 0 0 0 0 0 0 0 0 0 0 0 0 0 0 0 0 0 0 0 0 0 0 0 0
0.784553 5.44611e-06 1.99128e-06 3.45483e-06 0.634366 0.801996 0 0 0 0 0 0 0 0 0 0 0 0 0 0 0 0 0 0 0 0 0 0 0 0 0 0 0 0 0 0 0 0 0 0 0 0 0 0 0 0 0 0
0.824824 5.45585e-06 1.99557e-06 3.46029e-06 0.634234 0.800759 0 0 0 0 0 0 0 0 0 0 0 0 0 0 0 0 0 0 0 0 0 0 0 0 0 0 0 0 0 0 0 0 0 0 0 0 0 0 0 0 0 0
0.867162 5.46558e-06 2.00156e-06 3.46402e-06 0.633789 0.800028 0 0 0 0 0 0 0 0 0 0 0 0 0 0 0 0 0 0 0 0 0 0 0 0 0 0 0 0 0 0 0 0 0 0 0 0 0 0 0 0 0 0
0.911674 5.47564e-06 2.00779e-06 3.46784e-06 0.633322 0.799389 0 0 0 0 0 0 0 0 0 0 0 0 0 0 0 0 0 0 0 0 0 0 0 0 0 0 0 0 0 0 0 0 0 0 0 0 0 0 0 0 0 0
0.95847 5.48623e-06 2.0126e-06 3.47363e-06 0.633154 0.79836 0 0 0 0 0 0 0 0 0 0 0 0 0 0 0 0 0 0 0 0 0 0 0 0 0 0 0 0 0 0 0 0 0 0 0 0 0 0 0 0 0 0
1.00767 5.49711e-06 2.01656e-06 3.48055e-06 0.63316 0.797057 0 0 0 0 0 0 0 0 0 0 0 0 0 0 0 0 0 0 0 0 0 0 0 0 0 0 0 0 0 0 0 0 0 0 0 0 0 0 0 0 0 0
1.05939 5.50815e-06 2.02082e-06 3.48734e-06 0.633122 0.795803 0 0 0 0 0 0 0 0 0 0 0 0 0 0 0 0 0 0 0 0 0 0 0 0 0 0 0 0 0 0 0 0 0 0 0 0 0 0 0 0 0 0
1.11377 5.51939e-06 2.02526e-06 3.49413e-06 0.633064 0.794562 0 0 0 0 0 0 0 0 0 0 0 0 0 0 0 0 0 0 0 0 0 0 0 0 0 0 0 0 0 0 0 0 0 0 0 0 0 0 0 0 0 0
1.17094 5.53093e-06 2.02937e-06 3.50156e-06 0.633086 0.793192 0 0 0 0 0 0 0 0 0 0 0 0 0 0 0 0 0 0 0 0 0 0 0 0 0 0 0 0 0 0 0 0 0 0 0 0 0 0 0 0 0 0
1.23105 5.54268e-06 2.03357e-06 3.50911e-06 0.633107 0.791805 0 0 0 0 0 0 0 0 0 0 0 0 0 0 0 0 0 0 0 0 0 0 0 0 0 0 0 0 0 0 0 0 0 0 0 0 0 0 0 0 0 0
1.29424 5.5546e-06 2.03819e-06 3.51642e-06 0.633064 0.790482 0 0 0 0 0 0 0 0 0 0 0 0 0 0 0 0 0 0 0 0 0 0 0 0 0 0 0 0 0 0 0 0 0 0 0 0 0 0 0 0 0 0
1.36067 5.56659e-06 2.0442e-06 3.52239e-06 0.632773 0.789482 0 0 0 0 0 0 0 0 0 0 0 0 0 0 0 0 0 0 0 0 0 0 0 0 0 0 0 0 0 0 0 0 0 0 0 0 0 0 0 0 0 0
1.43051 5.57927e-06 2.05055e-06 3.52871e-06 0.632469 0.788513 0 0 0 0 0 0 0 0 0 0 0 0 0 0 0 0 0 0 0 0 0 0 0 0 0 0 0 0 0 0 0 0 0 0 0 0 0 0 0 0 0 0
1.50394 5.59249e-06 2.05548e-06 3.537e-06 0.632456 0.787107 0 0 0 0 0 0 0 0 0 0 0 0 0 0 0 0 0 0 0 0 0 0 0 0 0 0 0 0 0 0 0 0 0 0 0 0 0 0 0 0 0 0
1.58114 5.6059e-06 2.06015e-06 3.54575e-06 0.632503 0.785569 0 0 0 0 0 0 0 0 0 0 0 0 0 0 0 0 0 0 0 0 0 0 0 0 0 0 0 0 0 0 0 0 0 0 0 0 0 0 0 0 0 0
1.6623 5.61945e-06 2.0653e-06 3.55415e-06 0.632472 0.784095 0 0 0 0 0 0 0 0 0 0 0 0 0 0 0 0 0 0 0 0 0 0 0 0 0 0 0 0 0 0 0 0 0 0 0 0 0 0 0 0 0 0
1.74763 5.63327e-06 2.07129e-06 3.56197e-06 0.632311 0.782766 0 0 0 0 0 0 0 0 0 0 0 0 0 0 0 0 0 0 0 0 0 0 0 0 0 0 0 0 0 0 0 0 0 0 0 0 0 0 0 0 0 0
1.83733 5.64785e-06 2.07753e-06 3.57031e-06 0.632155 0.781412 0 0 0 0 0 0 0 0 0 0 0 0 0 0 0 0 0 0 0 0 0 0 0 0 0 0 0 0 0 0 0 0 0 0 0 0 0 0 0 0 0 0
1.93164 5.66268e-06 2.08246e-06 3.58022e-06 0.632248 0.77966 0 0 0 0 0 0 0 0 0 0 0 0 0 0 0 0 0 0 0 0 0 0 0 0 0 0 0 0 0 0 0 0 0 0 0 0 0 0 0 0 0 0
2.03079 5.67754e-06 2.08836e-06 3.58918e-06 0.632171 0.778084 0 0 0 0 0 0 0 0 0 0 0 0 0 0 0 0 0 0 0 0 0 0 0 0 0 0 0 0 0 0 0 0 0 0 0 0 0 0 0 0 0 0
2.13503 5.69293e-06 2.09514e-06 3.59779e-06 0.631975 0.776631 0 0 0 0 0 0 0 0 0 0 0 0 0 0 0 0 0 0 0 0 0 0 0 0 0 0 0 0 0 0 0 0 0 0 0 0 0 0 0 0 0 0
2.24463 5.70875e-06 2.10216e-06 3.60659e-06 0.631766 0.775145 0 0 0 0 0 0 0 0 0 0 0 0 0 0 0 0 0 0 0 0 0 0 0 0 0 0 0 0 0 0 0 0 0 0 0 0 0 0 0 0 0 0
2.35984 5.72518e-06 2.10943e-06 3.61575e-06 0.631552 0.773617 0 0 0 0 0 0 0 0 0 0 0 0 0 0 0 0 0 0 0 0 0 0 0 0 0 0 0 0 0 0 0 0 0 0 0 0 0 0 0 0 0 0
2.48097 5.74184e-06 2.11615e-06 3.6257e-06 0.631452 0.771875 0 0 0 0 0 0 0 0 0 0 0 0 0 0 0 0 0 0 0 0 0 0 0 0 0 0 0 0 0 0 0 0 0 0 0 0 0 0 0 0 0 0
2.60832 5.75893e-06 2.12562e-06 3.63331e-06 0.6309 0.770667 0 0 0 0 0 0 0 0 0 0 0 0 0 0 0 0 0 0 0 0 0 0 0 0 0 0 0 0 0 0 0 0 0 0 0 0 0 0 0 0 0 0
2.74221 5.77756e-06 2.13321e-06 3.64435e-06 0.630777 0.768862 0 0 0 0 0 0 0 0 0 0 0 0 0 0 0 0 0 0 0 0 0 0 0 0 0 0 0 0 0 0 0 0 0 0 0 0 0 0 0 0 0 0
2.88297 5.7957e-06 2.13994e-06 3.65576e-06 0.630772 0.766812 0 0 0 0 0 0 0 0 0 0 0 0 0 0 0 0 0 0 0 0 0 0 0 0 0 0 0 0 0 0 0 0 0 0 0 0 0 0 0 0 0 0
3.03095 5.8148e-06 2.14883e-06 3.66597e-06 0.630455 0.765108 0 0 0 0 0 0 0 0 0 0 0 0 0 0 0 0 0 0 0 0 0 0 0 0 0 0 0 0 0 0 0 0 0 0 0 0 0 0 0 0 0 0
3.18653 5.83467e-06 2.15536e-06 3.67931e-06 0.630595 0.762758 0 0 0 0 0 0 0 0 0 0 0 0 0 0 0 0 0 0 0 0 0 0 0 0 0 0 0 0 0 0 0 0 0 0 0 0 0 0 0 0 0 0
3.35009 5.85332e-06 2.16134e-06 3.69198e-06 0.630749 0.760277 0 0 0 0 0 0 0 0 0 0 0 0 0 0 0 0 0 0 0 0 0 0 0 0 0 0 0 0 0 0 0 0 0 0 0 0 0 0 0 0 0 0
3.52205 5.87413e-06 2.17139e-06 3.70274e-06 0.630347 0.758459 0 0 0 0 0 0 0 0 0 0 0 0 0 0 0 0 0 0 0 0 0 0 0 0 0 0 0 0 0 0 0 0 0 0 0 0 0 0 0 0 0 0
3.70284 5.89495e-06 2.17917e-06 3.71578e-06 0.630333 0.756068 0 0 0 0 0 0 0 0 0 0 0 0 0 0 0 0 0 0 0 0 0 0 0 0 0 0 0 0 0 0 0 0 0 0 0 0 0 0 0 0 0 0
3.89291 5.91566e-06 2.18593e-06 3.72973e-06 0.630484 0.753377 0 0 0 0 0 0 0 0 0 0 0 0 0 0 0 0 0 0 0 0 0 0 0 0 0 0 0 0 0 0 0 0 0 0 0 0 0 0 0 0 0 0
4.09273 5.9374e-06 2.19425e-06 3.74315e-06 0.630436 0.750858 0 0 0 0 0 0 0 0 0 0 0 0 0 0 0 0 0 0 0 0 0 0 0 0 0 0 0 0 0 0 0 0 0 0 0 0 0 0 0 0 0 0
4.30281 5.95965e-06 2.20531e-06 3.75434e-06 0.62996 0.748755 0 0 0 0 0 0 0 0 0 0 0 0 0 0 0 0 0 0 0 0 0 0 0 0 0 0 0 0 0 0 0 0 0 0 0 0 0 0 0 0 0 0
4.52368 5.98174e-06 2.21612e-06 3.76562e-06 0.629519 0.746486 0 0 0 0 0 0 0 0 0 0 0 0 0 0 0 0 0 0 0 0 0 0 0 0 0 0 0 0 0 0 0 0 0 0 0 0 0 0 0 0 0 0
4.75588 6.00481e-06 2.22651e-06 3.77829e-06 0.629211 0.743955 0 0 0 0 0 0 0 0 0 0 0 0 0 0 0 0 0 0 0 0 0 0 0 0 0 0 0 0 0 0 0 0 0 0 0 0 0 0 0 0 0 0
5 6.02742e-06 2.23724e-06 3.79018e-06 0.628822 0.741391 0 0 0 0 0 0 0 0 0 0 0 0 0 0 0 0 0 0 0 0 0 0 0 0 0 0 0 0 0 0 0 0 0 0 0 0 0 0 0 0 0 0
5.25665 6.05196e-06 2.25314e-06 3.79882e-06 0.627701 0.739548 0 0 0 0 0 0 0 0 0 0 0 0 0 0 0 0 0 0 0 0 0 0 0 0 0 0 0 0 0 0 0 0 0 0 0 0 0 0 0 0 0 0
5.52648 6.07834e-06 2.27117e-06 3.80717e-06 0.626351 0.737842 0 0 0 0 0 0 0 0 0 0 0 0 0 0 0 0 0 0 0 0 0 0 0 0 0 0 0 0 0 0 0 0 0 0 0 0 0 0 0 0 0 0
5.81015 6.10906e-06 2.29631e-06 3.81275e-06 0.624115 0.737035 0 0 0 0 0 0 0 0 0 0 0 0 0 0 0 0 0 0 0 0 0 0 0 0 0 0 0 0 0 0 0 0 0 0 0 0 0 0 0 0 0 0
6.10839 6.14414e-06 2.31439e-06 3.82975e-06 0.623317 0.734557 0 0 0 0 0 0 0 0 0 0 0 0 0 0 0 0 0 0 0 0 0 0 0 0 0 0 0 0 0 0 0 0 0 0 0 0 0 0 0 0 0 0
6.42193 6.17323e-06 2.30822e-06 3.86501e-06 0.626093 0.727958 0 0 0 0 0 0 0 0 0 0 0 0 0 0 0 0 0 0 0 0 0 0 0 0 0 0 0 0 0 0 0 0 0 0 0 0 0 0 0 0 0 0
6.75157 6.20171e-06 2.31729e-06 3.88442e-06 0.626346 0.723926 0 0 0 0 0 0 0 0 0 0 0 0 0 0 0 0 0 0 0 0 0 0 0 0 0 0 0 0 0 0 0 0 0 0 0 0 0 0 0 0 0 0
7.09813 6.23504e-06 2.32878e-06 3.90626e-06 0.626502 0.719925 0 0 0 0 0 0 0 0 0 0 0 0 0 0 0 0 0 0 0 0 0 0 0 0 0 0 0 0 0 0 0 0 0 0 0 0 0 0 0 0 0 0
7.46248 6.26574e-06 2.32527e-06 3.94048e-06 0.628892 0.713519 0 0 0 0 0 0 0 0 0 0 0 0 0 0 0 0 0 0 0 0 0 0 0 0 0 0 0 0 0 0 0 0 0 0 0 0 0 0 0 0 0 0
7.84553 6.2927e-06 2.32442e-06 3.96829e-06 0.630617 0.707469 0 0 0 0 0 0 0 0 0 0 0 0 0 0 0 0 0 0 0 0 0 0 0 0 0 0 0 0 0 0 0 0 0 0 0 0 0 0 0 0 0 0
8.24824 6.31832e-06 2.31793e-06 4.00039e-06 0.633141 0.700592 0 0 0 0 0 0 0 0 0 0 0 0 0 0 0 0 0 0 0 0 0 0 0 0 0 0 0 0 0 0 0 0 0 0 0 0 0 0 0 0 0 0
8.67162 6.34385e-06 2.31746e-06 4.02639e-06 0.634692 0.694467 0 0 0 0 0 0 0 0 0 0 0 0 0 0 0 0 0 0 0 0 0 0 0 0 0 0 0 0 0 0 0 0 0 0 0 0 0 0 0 0 0 0
9.11674 6.36598e-06 2.31986e-06 4.04611e-06 0.635584 0.688536 0 0 0 0 0 0 0 0 0 0 0 0 0 0 0 0 0 0 0 0 0 0 0 0 0 0 0 0 0 0 0 0 0 0 0 0 0 0 0 0 0 0
9.5847 6.38955e-06 2.32643e-06 4.06311e-06 0.6359 0.683094 0 0 0 0 0 0 0 0 0 0 0 0 0 0 0 0 0 0 0 0 0 0 0 0 0 0 0 0 0 0 0 0 0 0 0 0 0 0 0 0 0 0
10.0767 6.41825e-06 2.34393e-06 4.07432e-06 0.634803 0.678726 0 0 0 0 0 0 0 0 0 0 0 0 0 0 0 0 0 0 0 0 0 0 0 0 0 0 0 0 0 0 0 0 0 0 0 0 0 0 0 0 0 0
10.5939 6.44901e-06 2.36912e-06 4.07989e-06 0.632638 0.674765 0 0 0 0 0 0 0 0 0 0 0 0 0 0 0 0 0 0 0 0 0 0 0 0 0 0 0 0 0 0 0 0 0 0 0 0 0 0 0 0 0 0
11.1377 6.48503e-06 2.38449e-06 4.10054e-06 0.632308 0.669159 0 0 0 0 0 0 0 0 0 0 0 0 0 0 0 0 0 0 0 0 0 0 0 0 0 0 0 0 0 0 0 0 0 0 0 0 0 0 0 0 0 0
11.7094 6.51851e-06 2.39043e-06 4.12808e-06 0.633286 0.6623 0 0 0 0 0 0 0 0 0 0 0 0 0 0 0 0 0 0 0 0 0 0 0 0 0 0 0 0 0 0 0 0 0 0 0 0 0 0 0 0 0 0
12.3105 6.5503e-06 2.40356e-06 4.14673e-06 0.63306 0.655801 0 0 0 0 0 0 0 0 0 0 0 0 0 0 0 0 0 0 0 0 0 0 0 0 0 0 0 0 0 0 0 0 0 0 0 0 0 0 0 0 0 0
12.9424 6.58704e-06 2.42399e-06 4.16305e-06 0.632006 0.649326 0 0 0 0 0 0 0 0 0 0 0 0 0 0 0 0 0 0 0 0 0 0 0 0 0 0 0 0 0 0 0 0 0 0 0 0 0 0 0 0 0 0
13.6067 6.60635e-06 2.41181e-06 4.19454e-06 0.634926 0.638972 0 0 0 0 0 0 0 0 0 0 0 0 0 0 0 0 0 0 0 0 0 0 0 0 0 0 0 0 0 0 0 0 0 0 0 0 1.4013e-45 0 2.8026e-45 0 7.00649e-45 0
14.3051 6.64777e-06 2.43345e-06 4.21432e-06 0.633945 0.632423 0 0 0 0 0 0 0 0 0 0 0 0 0 0 0 0 0 0 0 0 0 0 0 0 0 0 1.4013e-45 0 2.8026e-45 0 9.80909e-45 0 2.94273e-44 0 8.26766e-44 0 2.12997e-43 0 5.08671e-43 0 1.19391e-42 0
15.0394 6.68786e-06 2.46038e-06 4.22748e-06 0.632113 0.625962 0 0 0 0 0 0 0 0 0 0 0 0 0 0 0 0 0 0 0 0 1.4013e-45 0 9.80909e-45 0 4.34403e-44 0 1.61149e-43 0 5.43704e-43 0 1.66755e-42 0 4.68454e-42 0 1.25038e-41 0 3.08019e-41 0 7.03031e-41 0 1.58344e-40 0
15.8114 6.71579e-06 2.4768e-06 4.239e-06 0.631198 0.617122 0 0 0 0 0 0 0 0 0 0 0 0 0 0 1.4013e-45 0 8.40779e-45 0 6.30584e-44 0 3.53127e-43 0 1.6241e-42 0 6.68419e-42 0 2.32644e-41 0 7.37587e-41 0 2.14172e-40 0 5.72245e-40 0 1.45576e-39 0 3.43182e-39 0 7.52368e-39 0 1.62869e-38 0
16.623 6.74228e-06 2.48006e-06 4.26222e-06 0.632163 0.605607 0 0 0 0 0 0 0 0 0 0 0 0 1.4013e-44 0 1.76564e-43 0 1.46436e-42 0 9.43494e-42 0 4.81907e-41 0 2.05404e-40 0 7.88739e-40 0 2.5829e-39 0 7.74051e-39 0 2.13359e-38 0 5.43367e-38 0 1.32069e-37 0 2.98575e-37 0 6.29962e-37 0 1.31325e-36 0
17.4762 6.77795e-06 2.48922e-06 4.28872e-06 0.632747 0.594345 0 0 0 0 0 0 0 0 2.8026e-45 0 1.23314e-43 0 2.23927e-42 0 2.45634e-41 0 1.84233e-40 0 1.08401e-39 0 5.11313e-39 0 2.03046e-38 0 7.30113e-38 0 2.25638e-37 0 6.40915e-37 0 1.68129e-36 0 4.09075e-36 0 9.52093e-36 0 2.06841e-35 0 4.20789e-35 0 8.46292e-35 0
18.3733 6.82205e-06 2.50188e-06 4.32017e-06 0.633266 0.583886 0 0 0 0 0 0 5.60519e-45 0 5.33895e-43 0 1.7271e-41 0 2.73103e-40 0 2.66493e-39 0 1.81152e-38 0 9.7753e-38 0 4.27459e-37 0 1.58694e-36 0 5.36068e-36 0 1.56789e-35 0 4.23223e-35 0 1.05916e-34 0 2.46756e-34 0 5.51101e-34 0 1.15275e-33 0 2.2652e-33 0 4.40297e-33 0
19.3164 6.87014e-06 2.53488e-06 4.33526e-06 0.631029 0.57556 0 0 0 0 1.4013e-45 0 8.49187e-43 0 6.9545e-41 0 1.89874e-39 0 2.62383e-38 0 2.29081e-37 0 1.4181e-36 0 7.04776e-36 0 2.86768e-35 0 9.98579e-35 0 3.17857e-34 0 8.82208e-34 0 2.26865e-33 0 5.42887e-33 0 1.21362e-32 0 2.6062e-32 0 5.25854e-32 0 9.99797e-32 0 1.8813e-31 0
20.3079 6.91044e-06 2.56668e-06 4.34375e-06 0.628579 0.565882 0 0 0 0 2.11596e-43 0 1.06815e-40 0 7.05619e-39 0 1.63927e-37 0 1.99268e-36 0 1.56511e-35 0 8.86357e-35 0 4.07337e-34 0 1.54766e-33 0 5.07075e-33 0 1.52535e-32 0 4.02777e-32 0 9.89086e-32 0 2.26816e-31 0 4.87517e-31 0 1.00858e-30 0 1.96644e-30 0 3.6233e-30 0 6.61069e-30 0
