# 5.95219e-05 1 71 : grain size, compostion index, size index
# Heating and cooling timescale: 0.00076416 2.63104e+06
# Ratio of heating to cooling to determine stochastic cutoff: 100
# Equilibrium emission is recorded even for those grains in the stochastic regime.
# Emission spectrum was computed for: 
# Type: IRSF
# Scales: 0.25 0.5 1 1.5 2 2.5 3 3.5 4 4.5 5 5.5 6 6.5 7 7.5 8 8.5 9 9.5 10
# StochasticallyHeated: 0 0 0 0 0 0 0 0 0 0 0 0 0 0 0 0 0 0 0 0 0
# Temperature: -1
# Wavelength  CExt  CAbs  CSca  Albedo G EqEm1 StEm1 EqEm2 StEm2 EqEm3 StEm3 EqEm4 StEm4 EqEm5 StEm5 EqEm6 StEm6 EqEm7 StEm7 EqEm8 StEm8 EqEm9 StEm9 EqEm10 StEm10 EqEm11 StEm11 EqEm12 StEm12 EqEm13 StEm13 EqEm14 StEm14 EqEm15 StEm15 EqEm16 StEm16 EqEm17 StEm17 EqEm18 StEm18 EqEm19 StEm19 EqEm20 StEm20 EqEm21 StEm21
0.05 2.31457e-08 8.09732e-09 1.50484e-08 0.650158 0.858329 0 0 0 0 0 0 0 0 0 0 0 0 0 0 0 0 0 0 0 0 0 0 0 0 0 0 0 0 0 0 0 0 0 0 0 0 0 0 0 0 0 0
0.0525665 2.32208e-08 8.01228e-09 1.52085e-08 0.654952 0.846388 0 0 0 0 0 0 0 0 0 0 0 0 0 0 0 0 0 0 0 0 0 0 0 0 0 0 0 0 0 0 0 0 0 0 0 0 0 0 0 0 0 0
0.0552647 2.32994e-08 7.96308e-09 1.53363e-08 0.658228 0.836482 0 0 0 0 0 0 0 0 0 0 0 0 0 0 0 0 0 0 0 0 0 0 0 0 0 0 0 0 0 0 0 0 0 0 0 0 0 0 0 0 0 0
0.0581015 2.33726e-08 7.96591e-09 1.54066e-08 0.659177 0.830403 0 0 0 0 0 0 0 0 0 0 0 0 0 0 0 0 0 0 0 0 0 0 0 0 0 0 0 0 0 0 0 0 0 0 0 0 0 0 0 0 0 0
0.0610839 2.34456e-08 7.89178e-09 1.55539e-08 0.663401 0.822099 0 0 0 0 0 0 0 0 0 0 0 0 0 0 0 0 0 0 0 0 0 0 0 0 0 0 0 0 0 0 0 0 0 0 0 0 0 0 0 0 0 0
0.0642193 2.35485e-08 7.65858e-09 1.58899e-08 0.674774 0.804873 0 0 0 0 0 0 0 0 0 0 0 0 0 0 0 0 0 0 0 0 0 0 0 0 0 0 0 0 0 0 0 0 0 0 0 0 0 0 0 0 0 0
0.0675157 2.36913e-08 7.45918e-09 1.62321e-08 0.685151 0.786133 0 0 0 0 0 0 0 0 0 0 0 0 0 0 0 0 0 0 0 0 0 0 0 0 0 0 0 0 0 0 0 0 0 0 0 0 0 0 0 0 0 0
0.0709813 2.3847e-08 7.53691e-09 1.63101e-08 0.683948 0.779549 0 0 0 0 0 0 0 0 0 0 0 0 0 0 0 0 0 0 0 0 0 0 0 0 0 0 0 0 0 0 0 0 0 0 0 0 0 0 0 0 0 0
0.0746248 2.39907e-08 7.75684e-09 1.62339e-08 0.676673 0.780941 0 0 0 0 0 0 0 0 0 0 0 0 0 0 0 0 0 0 0 0 0 0 0 0 0 0 0 0 0 0 0 0 0 0 0 0 0 0 0 0 0 0
0.0784553 2.41159e-08 8.01393e-09 1.6102e-08 0.667691 0.785631 0 0 0 0 0 0 0 0 0 0 0 0 0 0 0 0 0 0 0 0 0 0 0 0 0 0 0 0 0 0 0 0 0 0 0 0 0 0 0 0 0 0
0.0824824 2.42241e-08 8.28791e-09 1.59362e-08 0.657865 0.791088 0 0 0 0 0 0 0 0 0 0 0 0 0 0 0 0 0 0 0 0 0 0 0 0 0 0 0 0 0 0 0 0 0 0 0 0 0 0 0 0 0 0
0.0867162 2.43251e-08 8.41196e-09 1.59132e-08 0.654186 0.789896 0 0 0 0 0 0 0 0 0 0 0 0 0 0 0 0 0 0 0 0 0 0 0 0 0 0 0 0 0 0 0 0 0 0 0 0 0 0 0 0 0 0
0.0911674 2.44421e-08 8.46799e-09 1.59741e-08 0.653548 0.784962 0 0 0 0 0 0 0 0 0 0 0 0 0 0 0 0 0 0 0 0 0 0 0 0 0 0 0 0 0 0 0 0 0 0 0 0 0 0 0 0 0 0
0.095847 2.45449e-08 8.59603e-09 1.59489e-08 0.649784 0.783063 0 0 0 0 0 0 0 0 0 0 0 0 0 0 0 0 0 0 0 0 0 0 0 0 0 0 0 0 0 0 0 0 0 0 0 0 0 0 0 0 0 0
0.100767 2.45652e-08 8.92976e-09 1.56354e-08 0.636487 0.793119 0 0 0 0 0 0 0 0 0 0 0 0 0 0 0 0 0 0 0 0 0 0 0 0 0 0 0 0 0 0 0 0 0 0 0 0 0 0 0 0 0 0
0.105939 2.45555e-08 9.2344e-09 1.53211e-08 0.623937 0.806261 0 0 0 0 0 0 0 0 0 0 0 0 0 0 0 0 0 0 0 0 0 0 0 0 0 0 0 0 0 0 0 0 0 0 0 0 0 0 0 0 0 0
0.111377 2.4444e-08 9.717e-09 1.4727e-08 0.602479 0.831359 0 0 0 0 0 0 0 0 0 0 0 0 0 0 0 0 0 0 0 0 0 0 0 0 0 0 0 0 0 0 0 0 0 0 0 0 0 0 0 0 0 0
0.117094 2.4421e-08 1.02492e-08 1.41718e-08 0.580311 0.861411 0 0 0 0 0 0 0 0 0 0 0 0 0 0 0 0 0 0 0 0 0 0 0 0 0 0 0 0 0 0 0 0 0 0 0 0 0 0 0 0 0 0
0.123105 2.44504e-08 1.06274e-08 1.3823e-08 0.565348 0.882556 0 0 0 0 0 0 0 0 0 0 0 0 0 0 0 0 0 0 0 0 0 0 0 0 0 0 0 0 0 0 0 0 0 0 0 0 0 0 0 0 0 0
0.129424 2.44983e-08 1.09734e-08 1.35249e-08 0.552075 0.901276 0 0 0 0 0 0 0 0 0 0 0 0 0 0 0 0 0 0 0 0 0 0 0 0 0 0 0 0 0 0 0 0 0 0 0 0 0 0 0 0 0 0
0.136067 2.45359e-08 1.12673e-08 1.32686e-08 0.540782 0.916436 0 0 0 0 0 0 0 0 0 0 0 0 0 0 0 0 0 0 0 0 0 0 0 0 0 0 0 0 0 0 0 0 0 0 0 0 0 0 0 0 0 0
0.143051 2.45207e-08 1.14905e-08 1.30302e-08 0.531395 0.928177 0 0 0 0 0 0 0 0 0 0 0 0 0 0 0 0 0 0 0 0 0 0 0 0 0 0 0 0 0 0 0 0 0 0 0 0 0 0 0 0 0 0
0.150394 2.4394e-08 1.15726e-08 1.28215e-08 0.525598 0.935512 0 0 0 0 0 0 0 0 0 0 0 0 0 0 0 0 0 0 0 0 0 0 0 0 0 0 0 0 0 0 0 0 0 0 0 0 0 0 0 0 0 0
0.158114 2.42247e-08 1.14599e-08 1.27648e-08 0.526933 0.935733 0 0 0 0 0 0 0 0 0 0 0 0 0 0 0 0 0 0 0 0 0 0 0 0 0 0 0 0 0 0 0 0 0 0 0 0 0 0 0 0 0 0
0.16623 2.42105e-08 1.11429e-08 1.30676e-08 0.53975 0.924784 0 0 0 0 0 0 0 0 0 0 0 0 0 0 0 0 0 0 0 0 0 0 0 0 0 0 0 0 0 0 0 0 0 0 0 0 0 0 0 0 0 0
0.174762 2.44325e-08 1.06723e-08 1.37601e-08 0.563191 0.899501 0 0 0 0 0 0 0 0 0 0 0 0 0 0 0 0 0 0 0 0 0 0 0 0 0 0 0 0 0 0 0 0 0 0 0 0 0 0 0 0 0 0
0.183733 2.47479e-08 1.01488e-08 1.45991e-08 0.589911 0.866344 0 0 0 0 0 0 0 0 0 0 0 0 0 0 0 0 0 0 0 0 0 0 0 0 0 0 0 0 0 0 0 0 0 0 0 0 0 0 0 0 0 0
0.193164 2.51204e-08 9.65774e-09 1.54626e-08 0.615542 0.832937 0 0 0 0 0 0 0 0 0 0 0 0 0 0 0 0 0 0 0 0 0 0 0 0 0 0 0 0 0 0 0 0 0 0 0 0 0 0 0 0 0 0
0.203079 2.55403e-08 9.29494e-09 1.62454e-08 0.636068 0.806006 0 0 0 0 0 0 0 0 0 0 0 0 0 0 0 0 0 0 0 0 0 0 0 0 0 0 0 0 0 0 0 0 0 0 0 0 0 0 0 0 0 0
0.213503 2.60219e-08 9.05162e-09 1.69703e-08 0.652154 0.784913 0 0 0 0 0 0 0 0 0 0 0 0 0 0 0 0 0 0 0 0 0 0 0 0 0 0 0 0 0 0 0 0 0 0 0 0 0 0 0 0 0 0
0.224463 2.65658e-08 9.02467e-09 1.75412e-08 0.66029 0.771209 0 0 0 0 0 0 0 0 0 0 0 0 0 0 0 0 0 0 0 0 0 0 0 0 0 0 0 0 0 0 0 0 0 0 0 0 0 0 0 0 0 0
0.235984 2.69878e-08 9.07348e-09 1.79143e-08 0.663793 0.761718 0 0 0 0 0 0 0 0 0 0 0 0 0 0 0 0 0 0 0 0 0 0 0 0 0 0 0 0 0 0 0 0 0 0 0 0 0 0 0 0 0 0
0.248097 2.71069e-08 9.20672e-09 1.79001e-08 0.660354 0.756851 0 0 0 0 0 0 0 0 0 0 0 0 0 0 0 0 0 0 0 0 0 0 0 0 0 0 0 0 0 0 0 0 0 0 0 0 0 0 0 0 0 0
0.260832 2.70065e-08 9.39154e-09 1.7615e-08 0.65225 0.755719 0 0 0 0 0 0 0 0 0 0 0 0 0 0 0 0 0 0 0 0 0 0 0 0 0 0 0 0 0 0 0 0 0 0 0 0 0 0 0 0 0 0
0.274221 2.68549e-08 9.59046e-09 1.72644e-08 0.642879 0.756145 0 0 0 0 0 0 0 0 0 0 0 0 0 0 0 0 0 0 0 0 0 0 0 0 0 0 0 0 0 0 0 0 0 0 0 0 0 0 0 0 0 0
0.288297 2.6758e-08 9.88976e-09 1.68683e-08 0.6304 0.761943 0 0 0 0 0 0 0 0 0 0 0 0 0 0 0 0 0 0 0 0 0 0 0 0 0 0 0 0 0 0 0 0 0 0 0 0 0 0 0 0 0 0
0.303095 2.67497e-08 1.01292e-08 1.66204e-08 0.621332 0.766456 0 0 0 0 0 0 0 0 0 0 0 0 0 0 0 0 0 0 0 0 0 0 0 0 0 0 0 0 0 0 0 0 0 0 0 0 0 0 0 0 0 0
0.318653 2.67729e-08 1.03447e-08 1.64282e-08 0.613614 0.770392 0 0 0 0 0 0 0 0 0 0 0 0 0 0 0 0 0 0 0 0 0 0 0 0 0 0 0 0 0 0 0 0 0 0 0 0 0 0 0 0 0 0
0.335009 2.68314e-08 1.05426e-08 1.62888e-08 0.60708 0.773717 0 0 0 0 0 0 0 0 0 0 0 0 0 0 0 0 0 0 0 0 0 0 0 0 0 0 0 0 0 0 0 0 0 0 0 0 0 0 0 0 0 0
0.352205 2.69174e-08 1.07127e-08 1.62047e-08 0.602015 0.775658 0 0 0 0 0 0 0 0 0 0 0 0 0 0 0 0 0 0 0 0 0 0 0 0 0 0 0 0 0 0 0 0 0 0 0 0 0 0 0 0 0 0
0.370284 2.70199e-08 1.08588e-08 1.61611e-08 0.598119 0.776249 0 0 0 0 0 0 0 0 0 0 0 0 0 0 0 0 0 0 0 0 0 0 0 0 0 0 0 0 0 0 0 0 0 0 0 0 0 0 0 0 0 0
0.389291 2.71291e-08 1.09787e-08 1.61504e-08 0.595315 0.775392 0 0 0 0 0 0 0 0 0 0 0 0 0 0 0 0 0 0 0 0 0 0 0 0 0 0 0 0 0 0 0 0 0 0 0 0 0 0 0 0 0 0
0.409273 2.72447e-08 1.10948e-08 1.61498e-08 0.59277 0.774118 0 0 0 0 0 0 0 0 0 0 0 0 0 0 0 0 0 0 0 0 0 0 0 0 0 0 0 0 0 0 0 0 0 0 0 0 0 0 0 0 0 0
0.430281 2.73622e-08 1.12084e-08 1.61539e-08 0.590371 0.772548 0 0 0 0 0 0 0 0 0 0 0 0 0 0 0 0 0 0 0 0 0 0 0 0 0 0 0 0 0 0 0 0 0 0 0 0 0 0 0 0 0 0
0.452368 2.74923e-08 1.13313e-08 1.61609e-08 0.587835 0.771105 0 0 0 0 0 0 0 0 0 0 0 0 0 0 0 0 0 0 0 0 0 0 0 0 0 0 0 0 0 0 0 0 0 0 0 0 0 0 0 0 0 0
0.475588 2.76244e-08 1.1455e-08 1.61694e-08 0.58533 0.769399 0 0 0 0 0 0 0 0 0 0 0 0 0 0 0 0 0 0 0 0 0 0 0 0 0 0 0 0 0 0 0 0 0 0 0 0 0 0 0 0 0 0
0.5 2.77635e-08 1.15799e-08 1.61836e-08 0.582909 0.76735 0 0 0 0 0 0 0 0 0 0 0 0 0 0 0 0 0 0 0 0 0 0 0 0 0 0 0 0 0 0 0 0 0 0 0 0 0 0 0 0 0 0
0.525665 2.79198e-08 1.17066e-08 1.62131e-08 0.580705 0.765184 0 0 0 0 0 0 0 0 0 0 0 0 0 0 0 0 0 0 0 0 0 0 0 0 0 0 0 0 0 0 0 0 0 0 0 0 0 0 0 0 0 0
0.552648 2.81207e-08 1.18322e-08 1.62885e-08 0.579234 0.763251 0 0 0 0 0 0 0 0 0 0 0 0 0 0 0 0 0 0 0 0 0 0 0 0 0 0 0 0 0 0 0 0 0 0 0 0 0 0 0 0 0 0
0.581015 2.83466e-08 1.19482e-08 1.63985e-08 0.578498 0.760484 0 0 0 0 0 0 0 0 0 0 0 0 0 0 0 0 0 0 0 0 0 0 0 0 0 0 0 0 0 0 0 0 0 0 0 0 0 0 0 0 0 0
0.610839 2.84873e-08 1.20539e-08 1.64334e-08 0.576868 0.755167 0 0 0 0 0 0 0 0 0 0 0 0 0 0 0 0 0 0 0 0 0 0 0 0 0 0 0 0 0 0 0 0 0 0 0 0 0 0 0 0 0 0
0.642193 2.8487e-08 1.21258e-08 1.63612e-08 0.574338 0.746111 0 0 0 0 0 0 0 0 0 0 0 0 0 0 0 0 0 0 0 0 0 0 0 0 0 0 0 0 0 0 0 0 0 0 0 0 0 0 0 0 0 0
0.675157 2.84489e-08 1.21792e-08 1.62697e-08 0.571892 0.732276 0 0 0 0 0 0 0 0 0 0 0 0 0 0 0 0 0 0 0 0 0 0 0 0 0 0 0 0 0 0 0 0 0 0 0 0 0 0 0 0 0 0
0.709813 2.85102e-08 1.21321e-08 1.6378e-08 0.574463 0.721407 0 0 0 0 0 0 0 0 0 0 0 0 0 0 0 0 0 0 0 0 0 0 0 0 0 0 0 0 0 0 0 0 0 0 0 0 0 0 0 0 0 0
0.746248 2.90834e-08 1.21482e-08 1.69352e-08 0.582297 0.713625 0 0 0 0 0 0 0 0 0 0 0 0 0 0 0 0 0 0 0 0 0 0 0 0 0 0 0 0 0 0 0 0 0 0 0 0 0 0 0 0 0 0
0.784553 2.95843e-08 1.19653e-08 1.76189e-08 0.59555 0.71388 0 0 0 0 0 0 0 0 0 0 0 0 0 0 0 0 0 0 0 0 0 0 0 0 0 0 0 0 0 0 0 0 0 0 0 0 0 0 0 0 0 0
0.824824 3.06857e-08 1.20688e-08 1.86169e-08 0.606695 0.715484 0 0 0 0 0 0 0 0 0 0 0 0 0 0 0 0 0 0 0 0 0 0 0 0 0 0 0 0 0 0 0 0 0 0 0 0 0 0 0 0 0 0
0.867162 3.06716e-08 1.17372e-08 1.89344e-08 0.617328 0.703207 0 0 0 0 0 0 0 0 0 0 0 0 0 0 0 0 0 0 0 0 0 0 0 0 0 0 0 0 0 0 0 0 0 0 0 0 0 0 0 0 0 0
0.911674 3.10403e-08 1.1789e-08 1.92513e-08 0.620202 0.704619 0 0 0 0 0 0 0 0 0 0 0 0 0 0 0 0 0 0 0 0 0 0 0 0 0 0 0 0 0 0 0 0 0 0 0 0 0 0 0 0 0 0
0.95847 3.0927e-08 1.21171e-08 1.88099e-08 0.608203 0.687332 0 0 0 0 0 0 0 0 0 0 0 0 0 0 0 0 0 0 0 0 0 0 0 0 0 0 0 0 0 0 0 0 0 0 0 0 0 0 0 0 0 0
1.00767 2.91425e-08 1.12051e-08 1.79374e-08 0.615507 0.650158 0 0 0 0 0 0 0 0 0 0 0 0 0 0 0 0 0 0 0 0 0 0 0 0 0 0 0 0 0 0 0 0 0 0 0 0 0 0 0 0 0 0
1.05939 2.95602e-08 1.18821e-08 1.7678e-08 0.598036 0.623848 0 0 0 0 0 0 0 0 0 0 0 0 0 0 0 0 0 0 0 0 0 0 0 0 0 0 0 0 0 0 0 0 0 0 0 0 0 0 0 0 0 0
1.11377 2.91672e-08 1.19081e-08 1.72591e-08 0.59173 0.579419 0 0 0 0 0 0 0 0 0 0 0 0 0 0 0 0 0 0 0 0 0 0 0 0 0 0 0 0 0 0 0 0 0 0 0 0 0 0 0 0 0 0
1.17094 2.71696e-08 1.09058e-08 1.62639e-08 0.598605 0.523119 0 0 0 0 0 0 0 0 0 0 0 0 0 0 0 0 0 0 0 0 0 0 0 0 0 0 0 0 0 0 0 0 0 0 0 0 0 0 0 0 0 0
1.23105 2.92995e-08 1.17698e-08 1.75297e-08 0.598294 0.486203 0 0 0 0 0 0 0 0 0 0 0 0 0 0 0 0 0 0 0 0 0 0 0 0 0 0 0 0 0 0 0 0 0 0 0 0 0 0 0 0 0 0
1.29424 2.95935e-08 1.10424e-08 1.85511e-08 0.626864 0.471334 0 0 0 0 0 0 0 0 0 0 0 0 0 0 0 0 0 0 0 0 0 0 0 0 0 0 0 0 0 0 0 0 0 0 0 0 0 0 0 0 0 0
1.36067 3.04868e-08 1.08478e-08 1.96389e-08 0.644179 0.493715 0 0 0 0 0 0 0 0 0 0 0 0 0 0 0 0 0 0 0 0 0 0 0 0 0 0 0 0 0 0 0 0 0 0 0 0 0 0 0 0 0 0
1.43051 3.11172e-08 1.0693e-08 2.04242e-08 0.656363 0.510664 0 0 0 0 0 0 0 0 0 0 0 0 0 0 0 0 0 0 0 0 0 0 0 0 0 0 0 0 0 0 0 0 0 0 0 0 0 0 0 0 0 0
1.50394 3.48879e-08 1.15144e-08 2.33735e-08 0.669961 0.488664 0 0 0 0 0 0 0 0 0 0 0 0 0 0 0 0 0 0 0 0 0 0 0 0 0 0 0 0 0 0 0 0 0 0 0 0 0 0 0 0 0 0
1.58114 3.38036e-08 1.02545e-08 2.35491e-08 0.696645 0.459219 0 0 0 0 0 0 0 0 0 0 0 0 0 0 0 0 0 0 0 0 0 0 0 0 0 0 0 0 0 0 0 0 0 0 0 0 0 0 0 0 0 0
1.6623 3.48892e-08 9.74801e-09 2.51411e-08 0.7206 0.467042 0 0 0 0 0 0 0 0 0 0 0 0 0 0 0 0 0 0 0 0 0 0 0 0 0 0 0 0 0 0 0 0 0 0 0 0 0 0 0 0 0 0
1.74763 3.6837e-08 9.81325e-09 2.70238e-08 0.733604 0.479076 0 0 0 0 0 0 0 0 0 0 0 0 0 0 0 0 0 0 0 0 0 0 0 0 0 0 0 0 0 0 0 0 0 0 0 0 0 0 0 0 0 0
1.83733 3.96303e-08 1.01987e-08 2.94316e-08 0.742653 0.490449 0 0 0 0 0 0 0 0 0 0 0 0 0 0 0 0 0 0 0 0 0 0 0 0 0 0 0 0 0 0 0 0 0 0 0 0 0 0 0 0 0 0
1.93164 4.23521e-08 1.07436e-08 3.16086e-08 0.746328 0.483056 0 0 0 0 0 0 0 0 0 0 0 0 0 0 0 0 0 0 0 0 0 0 0 0 0 0 0 0 0 0 0 0 0 0 0 0 0 0 0 0 0 0
2.03079 3.93248e-08 1.02389e-08 2.90859e-08 0.739632 0.451487 0 0 0 0 0 0 0 0 0 0 0 0 0 0 0 0 0 0 0 0 0 0 0 0 0 0 0 0 0 0 0 0 0 0 0 0 0 0 0 0 0 0
2.13503 3.65339e-08 9.5393e-09 2.69946e-08 0.738892 0.419277 0 0 0 0 0 0 0 0 0 0 0 0 0 0 0 0 0 0 0 0 0 0 0 0 0 0 0 0 0 0 0 0 0 0 0 0 0 0 0 0 0 0
2.24463 3.59035e-08 9.19927e-09 2.67042e-08 0.743778 0.38816 0 0 0 0 0 0 0 0 0 0 0 0 0 0 0 0 0 0 0 0 0 0 0 0 0 0 0 0 0 0 0 0 0 0 0 0 0 0 0 0 0 0
2.35984 3.63334e-08 9.04567e-09 2.72877e-08 0.751037 0.357029 0 0 0 0 0 0 0 0 0 0 0 0 0 0 0 0 0 0 0 0 0 0 0 0 0 0 0 0 0 0 0 0 0 0 0 0 0 0 0 0 0 0
2.48097 3.74775e-08 9.02709e-09 2.84504e-08 0.759133 0.329524 0 0 0 0 0 0 0 0 0 0 0 0 0 0 0 0 0 0 0 0 0 0 0 0 0 0 0 0 0 0 0 0 0 0 0 0 0 0 0 0 0 0
2.60832 3.88703e-08 9.13701e-09 2.97333e-08 0.764936 0.309591 0 0 0 0 0 0 0 0 0 0 0 0 0 0 0 0 0 0 0 0 0 0 0 0 0 0 0 0 0 0 0 0 0 0 0 0 0 0 0 0 0 0
2.74221 3.91075e-08 9.27589e-09 2.98316e-08 0.76281 0.297176 0 0 0 0 0 0 0 0 0 0 0 0 0 0 0 0 0 0 0 0 0 0 0 0 0 0 0 0 0 0 0 0 0 0 0 0 0 0 0 0 0 0
2.88297 3.6859e-08 9.28053e-09 2.75784e-08 0.748215 0.284224 0 0 0 0 0 0 0 0 0 0 0 0 0 0 0 0 0 0 0 0 0 0 0 0 0 0 0 0 0 0 0 0 0 0 0 0 0 0 0 0 0 0
3.03095 3.36143e-08 9.17052e-09 2.44438e-08 0.727184 0.25968 0 0 0 0 0 0 0 0 0 0 0 0 0 0 0 0 0 0 0 0 0 0 0 0 0 0 0 0 0 0 0 0 0 0 0 0 0 0 0 0 0 0
3.18653 3.1177e-08 9.11191e-09 2.20651e-08 0.707736 0.223641 0 0 0 0 0 0 0 0 0 0 0 0 0 0 0 0 0 0 0 0 0 0 0 0 0 0 0 0 0 0 0 0 0 0 0 0 0 0 0 0 0 0
3.35009 2.9546e-08 9.13025e-09 2.04158e-08 0.690982 0.184128 0 0 0 0 0 0 0 0 0 0 0 0 0 0 0 0 0 0 0 0 0 0 0 0 0 0 0 0 0 0 0 0 0 0 0 0 0 0 0 0 0 0
3.52205 2.82723e-08 9.17942e-09 1.90928e-08 0.675321 0.146985 0 0 0 0 0 0 0 0 0 0 0 0 0 0 0 0 0 0 0 0 0 0 0 0 0 0 0 0 0 0 0 0 0 0 0 0 0 0 0 0 0 0
3.70284 2.70393e-08 9.20554e-09 1.78338e-08 0.65955 0.114386 0 0 0 0 0 0 0 0 0 0 0 0 0 0 0 0 0 0 0 0 0 0 0 0 0 0 0 0 0 0 0 0 0 0 0 0 0 0 0 0 0 0
3.89291 2.56786e-08 9.17022e-09 1.65084e-08 0.642885 0.0862846 0 0 0 0 0 0 0 0 0 0 0 0 0 0 0 0 0 0 0 0 0 0 0 0 0 0 0 0 0 0 0 0 0 0 0 0 0 0 0 0 0 0
4.09273 2.41199e-08 9.03932e-09 1.50806e-08 0.625234 0.0619968 0 0 0 0 0 0 0 0 0 0 0 0 0 0 0 0 0 0 0 0 0 0 0 0 0 0 0 0 0 0 0 0 0 0 0 0 0 0 0 0 0 0
4.30281 2.23604e-08 8.80674e-09 1.35536e-08 0.606145 0.040952 0 0 0 0 0 0 0 0 0 0 0 0 0 0 0 0 0 0 0 0 0 0 0 0 0 0 0 0 0 0 0 0 0 0 0 0 0 0 0 0 0 0
4.52368 2.0452e-08 8.47871e-09 1.19732e-08 0.585433 0.022682 0 0 0 0 0 0 0 0 0 0 0 0 0 0 0 0 0 0 0 0 0 0 0 0 0 0 0 0 0 0 0 0 0 0 0 0 0 0 0 0 0 0
4.75588 1.8475e-08 8.07564e-09 1.03994e-08 0.562889 0.00674928 0 0 0 0 0 0 0 0 0 0 0 0 0 0 0 0 0 0 0 0 0 0 0 0 0 0 0 0 0 0 0 0 0 0 0 0 0 0 0 0 0 0
5 1.65125e-08 7.62061e-09 8.89184e-09 0.538493 -0.00711159 0 0 0 0 0 0 0 0 0 0 0 0 0 0 0 0 0 0 0 0 0 0 0 0 0 0 0 0 0 0 0 0 0 0 0 0 0 0 0 0 0 0
5.25665 1.46325e-08 7.13385e-09 7.49866e-09 0.512466 -0.019268 0 0 0 0 0 0 0 0 0 0 0 0 0 0 0 0 0 0 0 0 0 0 0 0 0 0 0 0 0 0 0 0 0 0 0 0 0 0 0 0 0 0
5.52648 1.28983e-08 6.64705e-09 6.25123e-09 0.484656 -0.0297816 0 0 0 0 0 0 0 0 0 0 0 0 0 0 0 0 0 0 0 0 0 0 0 0 0 0 0 0 0 0 0 0 0 0 0 0 0 0 0 0 0 0
5.81015 1.13409e-08 6.17979e-09 5.16111e-09 0.455088 -0.0387362 0 0 0 0 0 0 0 0 0 0 0 0 0 0 0 0 0 0 0 0 0 0 0 0 0 0 0 0 0 0 0 0 0 0 0 0 0 0 0 0 1.4013e-45 0
6.10839 9.9688e-09 5.73895e-09 4.22985e-09 0.424309 -0.0461677 0 0 0 0 0 0 0 0 0 0 0 0 0 0 0 0 0 0 0 0 0 0 0 0 0 0 0 0 0 0 1.4013e-45 0 4.2039e-45 0 1.12104e-44 0 2.66247e-44 0 6.44597e-44 0 1.47136e-43 0
6.42193 8.78539e-09 5.3368e-09 3.44859e-09 0.392537 -0.0523661 0 0 0 0 0 0 0 0 0 0 0 0 0 0 0 0 0 0 0 0 0 0 1.4013e-45 0 5.60519e-45 0 2.10195e-44 0 6.86636e-44 0 2.07392e-43 0 5.78736e-43 0 1.49799e-42 0 3.61395e-42 0 8.36715e-42 0 1.81538e-41 0
6.75157 7.75758e-09 4.95681e-09 2.80077e-09 0.361037 -0.0571091 0 0 0 0 0 0 0 0 0 0 0 0 0 0 0 0 1.4013e-45 0 8.40779e-45 0 4.34403e-44 0 2.00386e-43 0 7.9874e-43 0 2.82922e-42 0 8.72448e-42 0 2.48843e-41 0 6.59283e-41 0 1.62853e-40 0 3.76303e-40 0 8.3627e-40 0 1.74712e-39 0
7.09813 6.87704e-09 4.60959e-09 2.26745e-09 0.329713 -0.0607442 0 0 0 0 0 0 0 0 0 0 0 0 1.4013e-45 0 1.82169e-44 0 1.65353e-43 0 1.06779e-42 0 5.608e-42 0 2.36385e-41 0 8.82258e-41 0 2.93903e-40 0 8.57634e-40 0 2.32411e-39 0 5.87151e-39 0 1.38772e-38 0 3.07809e-38 0 6.57896e-38 0 1.3259e-37 0
7.46248 6.122e-09 4.29008e-09 1.83192e-09 0.299236 -0.0632651 0 0 0 0 0 0 0 0 0 0 9.80909e-45 0 2.12997e-43 0 2.41584e-42 0 1.94164e-41 0 1.14625e-40 0 5.54923e-40 0 2.18044e-39 0 7.63116e-39 0 2.39709e-38 0 6.63857e-38 0 1.71352e-37 0 4.13744e-37 0 9.37658e-37 0 2.00048e-36 0 4.12006e-36 0 8.02413e-36 0
7.84553 5.46988e-09 3.99095e-09 1.47894e-09 0.270378 -0.0647329 0 0 0 0 0 0 0 0 3.78351e-44 0 1.37888e-42 0 2.43406e-41 0 2.45079e-40 0 1.77926e-39 0 9.63177e-39 0 4.31735e-38 0 1.58676e-37 0 5.22391e-37 0 1.55174e-36 0 4.08893e-36 0 1.00767e-35 0 2.33061e-35 0 5.07498e-35 0 1.04341e-34 0 2.07446e-34 0 3.9108e-34 0
8.24824 4.89949e-09 3.70661e-09 1.19287e-09 0.243469 -0.065629 0 0 0 0 0 0 4.34403e-44 0 4.6453e-42 0 1.41339e-40 0 2.16796e-39 0 1.95016e-38 0 1.2852e-37 0 6.40655e-37 0 2.66886e-36 0 9.20494e-36 0 2.85916e-35 0 8.05335e-35 0 2.02406e-34 0 4.77318e-34 0 1.05969e-33 0 2.22148e-33 0 4.40941e-33 0 8.47734e-33 0 1.54944e-32 0
8.67162 4.40588e-09 3.44438e-09 9.61498e-10 0.218231 -0.0659074 0 0 0 0 7.00649e-45 0 5.24786e-42 0 4.41804e-40 0 1.13777e-38 0 1.52739e-37 0 1.23421e-36 0 7.41833e-36 0 3.419e-35 0 1.32845e-34 0 4.31307e-34 0 1.26757e-33 0 3.39431e-33 0 8.15562e-33 0 1.84438e-32 0 3.93831e-32 0 7.96304e-32 0 1.52855e-31 0 2.84642e-31 0 5.05158e-31 0
9.11674 3.97674e-09 3.20151e-09 7.75228e-10 0.194941 -0.0655305 0 0 0 0 8.33773e-43 0 4.88473e-40 0 3.31209e-38 0 7.27852e-37 0 8.60738e-36 0 6.28066e-35 0 3.45854e-34 0 1.4794e-33 0 5.37963e-33 0 1.64901e-32 0 4.59781e-32 0 1.1734e-31 0 2.70124e-31 0 5.8702e-31 0 1.20789e-30 0 2.35975e-30 0 4.38774e-30 0 7.92641e-30 0 1.36786e-29 0
9.5847 3.60085e-09 2.97579e-09 6.2506e-10 0.173587 -0.0645387 0 0 1.4013e-45 0 8.3572e-41 0 3.58702e-38 0 1.97963e-36 0 3.74117e-35 0 3.92152e-34 0 2.59685e-33 0 1.31572e-32 0 5.24249e-32 0 1.7899e-31 0 5.19458e-31 0 1.37764e-30 0 3.35863e-30 0 7.42334e-30 0 1.55322e-29 0 3.08536e-29 0 5.83372e-29 0 1.05237e-28 0 1.84699e-28 0 3.10355e-28 0
10.0767 3.26692e-09 2.76295e-09 5.03971e-10 0.154265 -0.0630269 0 0 1.12104e-43 0 6.57739e-39 0 2.09985e-36 0 9.52787e-35 0 1.5599e-33 0 1.45789e-32 0 8.80302e-32 0 4.1204e-31 0 1.53462e-30 0 4.93466e-30 0 1.35952e-29 0 3.43786e-29 0 8.02454e-29 0 1.70624e-28 0 3.44365e-28 0 6.61514e-28 0 1.21247e-27 0 2.12513e-27 0 3.62872e-27 0 5.94489e-27 0
10.5939 2.96659e-09 2.56033e-09 4.06256e-10 0.136944 -0.0612696 0 0 1.19965e-41 0 4.1091e-37 0 9.89965e-35 0 3.72851e-33 0 5.32549e-32 0 4.46268e-31 0 2.46818e-30 0 1.07141e-29 0 3.7423e-29 0 1.13665e-28 0 2.98035e-28 0 7.20276e-28 0 1.61308e-27 0 3.30584e-27 0 6.44717e-27 0 1.19963e-26 0 2.13468e-26 0 3.64038e-26 0 6.05577e-26 0 9.68484e-26 0
11.1377 2.69919e-09 2.37167e-09 3.27521e-10 0.121341 -0.0593603 1.12104e-44 0 1.00317e-39 0 2.06386e-35 0 3.80417e-33 0 1.20014e-31 0 1.50548e-30 0 1.13719e-29 0 5.78562e-29 0 2.33777e-28 0 7.68179e-28 0 2.21001e-27 0 5.52833e-27 0 1.27972e-26 0 2.75535e-26 0 5.45239e-26 0 1.02923e-25 0 1.8579e-25 0 3.21431e-25 0 5.34052e-25 0 8.66593e-25 0 1.35451e-24 0
11.7094 2.45563e-09 2.1891e-09 2.6653e-10 0.108538 -0.0570271 1.31442e-42 0 6.62793e-38 0 8.39636e-34 0 1.19966e-31 0 3.19774e-30 0 3.54532e-29 0 2.42627e-28 0 1.14015e-27 0 4.30331e-27 0 1.33425e-26 0 3.64555e-26 0 8.72009e-26 0 1.93751e-25 0 4.01832e-25 0 7.691e-25 0 1.40746e-24 0 2.46844e-24 0 4.15782e-24 0 6.739e-24 0 1.06798e-23 0 1.63328e-23 0
12.3105 2.23496e-09 2.02071e-09 2.14251e-10 0.0958634 -0.0550429 1.18166e-40 0 3.51193e-36 0 2.80509e-32 0 3.14557e-30 0 7.14288e-29 0 7.04162e-28 0 4.38707e-27 0 1.91155e-26 0 6.76181e-26 0 1.98383e-25 0 5.1608e-25 0 1.18299e-24 0 2.528e-24 0 5.05953e-24 0 9.38173e-24 0 1.66695e-23 0 2.84444e-23 0 4.67072e-23 0 7.3939e-23 0 1.14572e-22 0 1.71619e-22 0
12.9424 2.03545e-09 1.86238e-09 1.73067e-10 0.0850261 -0.0535261 8.37909e-39 0 1.5061e-34 0 7.75757e-31 0 6.90876e-29 0 1.34698e-27 0 1.18751e-26 0 6.76628e-26 0 2.74379e-25 0 9.12516e-25 0 2.54015e-24 0 6.30666e-24 0 1.38828e-23 0 2.8587e-23 0 5.53081e-23 0 9.95104e-23 0 1.71917e-22 0 2.858e-22 0 4.58072e-22 0 7.09062e-22 0 1.07548e-21 0 1.57951e-21 0
