# 3.9811e-06 1 82 : grain size, compostion index, size index
# Heating and cooling timescale: 3.72897 140684
# Ratio of heating to cooling to determine stochastic cutoff: 100
# Equilibrium emission is recorded even for those grains in the stochastic regime.
# Emission spectrum was computed for: 
# Type: IRSF
# Scales: 0.25 0.5 1 1.5 2 2.5 3 3.5 4 4.5 5 5.5 6 6.5 7 7.5 8 8.5 9 9.5 10
# StochasticallyHeated: 0 0 0 0 0 0 0 0 0 0 0 0 0 0 0 0 0 0 0 0 0
# Temperature: -1
# Wavelength  CExt  CAbs  CSca  Albedo G EqEm1 StEm1 EqEm2 StEm2 EqEm3 StEm3 EqEm4 StEm4 EqEm5 StEm5 EqEm6 StEm6 EqEm7 StEm7 EqEm8 StEm8 EqEm9 StEm9 EqEm10 StEm10 EqEm11 StEm11 EqEm12 StEm12 EqEm13 StEm13 EqEm14 StEm14 EqEm15 StEm15 EqEm16 StEm16 EqEm17 StEm17 EqEm18 StEm18 EqEm19 StEm19 EqEm20 StEm20 EqEm21 StEm21
0.05 3.20596e-11 1.88128e-11 1.32468e-11 0.413194 0.17553 0 0 0 0 0 0 0 0 0 0 0 0 0 0 0 0 0 0 0 0 0 0 0 0 0 0 0 0 0 0 0 0 0 0 0 0 0 0 0 0 0 0
0.0525665 3.54353e-11 2.07936e-11 1.46416e-11 0.413194 0.194012 0 0 0 0 0 0 0 0 0 0 0 0 0 0 0 0 0 0 0 0 0 0 0 0 0 0 0 0 0 0 0 0 0 0 0 0 0 0 0 0 0 0
0.0552647 3.91664e-11 2.29831e-11 1.61833e-11 0.413194 0.214441 0 0 0 0 0 0 0 0 0 0 0 0 0 0 0 0 0 0 0 0 0 0 0 0 0 0 0 0 0 0 0 0 0 0 0 0 0 0 0 0 0 0
0.0581015 4.32905e-11 2.54031e-11 1.78873e-11 0.413194 0.237021 0 0 0 0 0 0 0 0 0 0 0 0 0 0 0 0 0 0 0 0 0 0 0 0 0 0 0 0 0 0 0 0 0 0 0 0 0 0 0 0 0 0
0.0610839 4.78487e-11 2.80779e-11 1.97708e-11 0.413194 0.261978 0 0 0 0 0 0 0 0 0 0 0 0 0 0 0 0 0 0 0 0 0 0 0 0 0 0 0 0 0 0 0 0 0 0 0 0 0 0 0 0 0 0
0.0642193 5.2887e-11 3.10344e-11 2.18526e-11 0.413194 0.289563 0 0 0 0 0 0 0 0 0 0 0 0 0 0 0 0 0 0 0 0 0 0 0 0 0 0 0 0 0 0 0 0 0 0 0 0 0 0 0 0 0 0
0.0675157 5.84557e-11 3.43022e-11 2.41535e-11 0.413194 0.320052 0 0 0 0 0 0 0 0 0 0 0 0 0 0 0 0 0 0 0 0 0 0 0 0 0 0 0 0 0 0 0 0 0 0 0 0 0 0 0 0 0 0
0.0709813 6.46108e-11 3.7914e-11 2.66968e-11 0.413194 0.353752 0 0 0 0 0 0 0 0 0 0 0 0 0 0 0 0 0 0 0 0 0 0 0 0 0 0 0 0 0 0 0 0 0 0 0 0 0 0 0 0 0 0
0.0746248 7.1414e-11 4.19062e-11 2.95078e-11 0.413194 0.391 0 0 0 0 0 0 0 0 0 0 0 0 0 0 0 0 0 0 0 0 0 0 0 0 0 0 0 0 0 0 0 0 0 0 0 0 0 0 0 0 0 0
0.0784553 7.89336e-11 4.63187e-11 3.26148e-11 0.413194 0.432171 0 0 0 0 0 0 0 0 0 0 0 0 0 0 0 0 0 0 0 0 0 0 0 0 0 0 0 0 0 0 0 0 0 0 0 0 0 0 0 0 0 0
0.0824824 8.72449e-11 5.11959e-11 3.6049e-11 0.413194 0.477676 0 0 0 0 0 0 0 0 0 0 0 0 0 0 0 0 0 0 0 0 0 0 0 0 0 0 0 0 0 0 0 0 0 0 0 0 0 0 0 0 0 0
0.0867162 9.64314e-11 5.65866e-11 3.98448e-11 0.413194 0.527974 0 0 0 0 0 0 0 0 0 0 0 0 0 0 0 0 0 0 0 0 0 0 0 0 0 0 0 0 0 0 0 0 0 0 0 0 0 0 0 0 0 0
0.0911674 1.06585e-10 6.25449e-11 4.40403e-11 0.413194 0.583567 0 0 0 0 0 0 0 0 0 0 0 0 0 0 0 0 0 0 0 0 0 0 0 0 0 0 0 0 0 0 0 0 0 0 0 0 0 0 0 0 0 0
0.095847 1.17808e-10 6.91305e-11 4.86775e-11 0.413194 0.645014 0 0 0 0 0 0 0 0 0 0 0 0 0 0 0 0 0 0 0 0 0 0 0 0 0 0 0 0 0 0 0 0 0 0 0 0 0 0 0 0 0 0
0.100767 1.2857e-10 7.54194e-11 5.31502e-11 0.413396 0.699943 0 0 0 0 0 0 0 0 0 0 0 0 0 0 0 0 0 0 0 0 0 0 0 0 0 0 0 0 0 0 0 0 0 0 0 0 0 0 0 0 0 0
0.105939 1.3096e-10 7.65153e-11 5.44443e-11 0.415733 0.688557 0 0 0 0 0 0 0 0 0 0 0 0 0 0 0 0 0 0 0 0 0 0 0 0 0 0 0 0 0 0 0 0 0 0 0 0 0 0 0 0 0 0
0.111377 1.33548e-10 7.75377e-11 5.60099e-11 0.4194 0.679352 0 0 0 0 0 0 0 0 0 0 0 0 0 0 0 0 0 0 0 0 0 0 0 0 0 0 0 0 0 0 0 0 0 0 0 0 0 0 0 0 0 0
0.117094 1.36466e-10 7.84854e-11 5.79807e-11 0.424873 0.66983 0 0 0 0 0 0 0 0 0 0 0 0 0 0 0 0 0 0 0 0 0 0 0 0 0 0 0 0 0 0 0 0 0 0 0 0 0 0 0 0 0 0
0.123105 1.39558e-10 7.91306e-11 6.04277e-11 0.432992 0.658474 0 0 0 0 0 0 0 0 0 0 0 0 0 0 0 0 0 0 0 0 0 0 0 0 0 0 0 0 0 0 0 0 0 0 0 0 0 0 0 0 0 0
0.129424 1.42035e-10 7.90225e-11 6.30122e-11 0.44364 0.642343 0 0 0 0 0 0 0 0 0 0 0 0 0 0 0 0 0 0 0 0 0 0 0 0 0 0 0 0 0 0 0 0 0 0 0 0 0 0 0 0 0 0
0.136067 1.45096e-10 7.81085e-11 6.69872e-11 0.461676 0.618949 0 0 0 0 0 0 0 0 0 0 0 0 0 0 0 0 0 0 0 0 0 0 0 0 0 0 0 0 0 0 0 0 0 0 0 0 0 0 0 0 0 0
0.143051 1.48448e-10 7.49516e-11 7.34961e-11 0.495098 0.586974 0 0 0 0 0 0 0 0 0 0 0 0 0 0 0 0 0 0 0 0 0 0 0 0 0 0 0 0 0 0 0 0 0 0 0 0 0 0 0 0 0 0
0.150394 1.50747e-10 6.80267e-11 8.27199e-11 0.548735 0.543873 0 0 0 0 0 0 0 0 0 0 0 0 0 0 0 0 0 0 0 0 0 0 0 0 0 0 0 0 0 0 0 0 0 0 0 0 0 0 0 0 0 0
0.158114 1.4849e-10 5.76269e-11 9.08634e-11 0.611915 0.502748 0 0 0 0 0 0 0 0 0 0 0 0 0 0 0 0 0 0 0 0 0 0 0 0 0 0 0 0 0 0 0 0 0 0 0 0 0 0 0 0 0 0
0.16623 1.33222e-10 4.43925e-11 8.8829e-11 0.666777 0.501663 0 0 0 0 0 0 0 0 0 0 0 0 0 0 0 0 0 0 0 0 0 0 0 0 0 0 0 0 0 0 0 0 0 0 0 0 0 0 0 0 0 0
0.174762 1.06553e-10 3.16671e-11 7.48861e-11 0.702805 0.53382 0 0 0 0 0 0 0 0 0 0 0 0 0 0 0 0 0 0 0 0 0 0 0 0 0 0 0 0 0 0 0 0 0 0 0 0 0 0 0 0 0 0
0.183733 8.02055e-11 2.07255e-11 5.948e-11 0.741595 0.542825 0 0 0 0 0 0 0 0 0 0 0 0 0 0 0 0 0 0 0 0 0 0 0 0 0 0 0 0 0 0 0 0 0 0 0 0 0 0 0 0 0 0
0.193164 6.08623e-11 1.4094e-11 4.67683e-11 0.768428 0.500356 0 0 0 0 0 0 0 0 0 0 0 0 0 0 0 0 0 0 0 0 0 0 0 0 0 0 0 0 0 0 0 0 0 0 0 0 0 0 0 0 0 0
0.203079 4.86837e-11 1.18299e-11 3.68538e-11 0.757005 0.43443 0 0 0 0 0 0 0 0 0 0 0 0 0 0 0 0 0 0 0 0 0 0 0 0 0 0 0 0 0 0 0 0 0 0 0 0 0 0 0 0 0 0
0.213503 4.01533e-11 1.0579e-11 2.95743e-11 0.736534 0.370166 0 0 0 0 0 0 0 0 0 0 0 0 0 0 0 0 0 0 0 0 0 0 0 0 0 0 0 0 0 0 0 0 0 0 0 0 0 0 0 0 0 0
0.224463 3.3656e-11 9.52347e-12 2.41326e-11 0.717035 0.316989 0 0 0 0 0 0 0 0 0 0 0 0 0 0 0 0 0 0 0 0 0 0 0 0 0 0 0 0 0 0 0 0 0 0 0 0 0 0 0 0 0 0
0.235984 2.84291e-11 8.73039e-12 1.96988e-11 0.692907 0.274808 0 0 0 0 0 0 0 0 0 0 0 0 0 0 0 0 0 0 0 0 0 0 0 0 0 0 0 0 0 0 0 0 0 0 0 0 0 0 0 0 0 0
0.248097 2.41402e-11 8.07042e-12 1.60698e-11 0.665685 0.240763 0 0 0 0 0 0 0 0 0 0 0 0 0 0 0 0 0 0 0 0 0 0 0 0 0 0 0 0 0 0 0 0 0 0 0 0 0 0 0 0 0 0
0.260832 2.06465e-11 7.51998e-12 1.31265e-11 0.635775 0.212476 0 0 0 0 0 0 0 0 0 0 0 0 0 0 0 0 0 0 0 0 0 0 0 0 0 0 0 0 0 0 0 0 0 0 0 0 0 0 0 0 0 0
0.274221 1.77307e-11 7.0165e-12 1.07142e-11 0.604273 0.18856 0 0 0 0 0 0 0 0 0 0 0 0 0 0 0 0 0 0 0 0 0 0 0 0 0 0 0 0 0 0 0 0 0 0 0 0 0 0 0 0 0 0
0.288297 1.52941e-11 6.54898e-12 8.74513e-12 0.571797 0.168132 0 0 0 0 0 0 0 0 0 0 0 0 0 0 0 0 0 0 0 0 0 0 0 0 0 0 0 0 0 0 0 0 0 0 0 0 0 0 0 0 0 0
0.303095 1.32465e-11 6.11379e-12 7.13269e-12 0.538459 0.150449 0 0 0 0 0 0 0 0 0 0 0 0 0 0 0 0 0 0 0 0 0 0 0 0 0 0 0 0 0 0 0 0 0 0 0 0 0 0 0 0 0 0
0.318653 1.15268e-11 5.70855e-12 5.81823e-12 0.504758 0.134971 0 0 0 0 0 0 0 0 0 0 0 0 0 0 0 0 0 0 0 0 0 0 0 0 0 0 0 0 0 0 0 0 0 0 0 0 0 0 0 0 0 0
0.335009 1.00781e-11 5.33187e-12 4.74622e-12 0.470944 0.121337 0 0 0 0 0 0 0 0 0 0 0 0 0 0 0 0 0 0 0 0 0 0 0 0 0 0 0 0 0 0 0 0 0 0 0 0 0 0 0 0 0 0
0.352205 8.8545e-12 4.98278e-12 3.87173e-12 0.437261 0.109264 0 0 0 0 0 0 0 0 0 0 0 0 0 0 0 0 0 0 0 0 0 0 0 0 0 0 0 0 0 0 0 0 0 0 0 0 0 0 0 0 0 0
0.370284 7.81979e-12 4.65915e-12 3.16064e-12 0.404185 0.0985183 0 0 0 0 0 0 0 0 0 0 0 0 0 0 0 0 0 0 0 0 0 0 0 0 0 0 0 0 0 0 0 0 0 0 0 0 0 0 0 0 0 0
0.389291 6.93922e-12 4.35952e-12 2.5797e-12 0.371757 0.0889199 0 0 0 0 0 0 0 0 0 0 0 0 0 0 0 0 0 0 0 0 0 0 0 0 0 0 0 0 0 0 0 0 0 0 0 0 0 0 0 0 0 0
0.409273 6.18887e-12 4.08195e-12 2.10691e-12 0.340436 0.0803149 0 0 0 0 0 0 0 0 0 0 0 0 0 0 0 0 0 0 0 0 0 0 0 0 0 0 0 0 0 0 0 0 0 0 0 0 0 0 0 0 0 0
0.430281 5.54629e-12 3.82525e-12 1.72104e-12 0.310304 0.0725798 0 0 0 0 0 0 0 0 0 0 0 0 0 0 0 0 0 0 0 0 0 0 0 0 0 0 0 0 0 0 0 0 0 0 0 0 0 0 0 0 0 0
0.452368 4.99373e-12 3.58749e-12 1.40624e-12 0.281602 0.0656365 0 0 0 0 0 0 0 0 0 0 0 0 0 0 0 0 0 0 0 0 0 0 0 0 0 0 0 0 0 0 0 0 0 0 0 0 0 0 0 0 0 0
0.475588 4.51632e-12 3.36706e-12 1.14926e-12 0.254468 0.0593712 0 0 0 0 0 0 0 0 0 0 0 0 0 0 0 0 0 0 0 0 0 0 0 0 0 0 0 0 0 0 0 0 0 0 0 0 0 0 0 0 0 0
0.5 4.10234e-12 3.16273e-12 9.39611e-13 0.229043 0.0537137 0 0 0 0 0 0 0 0 0 0 0 0 0 0 0 0 0 0 0 0 0 0 0 0 0 0 0 0 0 0 0 0 0 0 0 0 0 0 0 0 0 0
0.525665 3.74164e-12 2.97304e-12 7.68604e-13 0.205419 0.0486029 0 0 0 0 0 0 0 0 0 0 0 0 0 0 0 0 0 0 0 0 0 0 0 0 0 0 0 0 0 0 0 0 0 0 0 0 0 0 0 0 0 0
0.552648 3.4256e-12 2.79659e-12 6.29008e-13 0.18362 0.0439875 0 0 0 0 0 0 0 0 0 0 0 0 0 0 0 0 0 0 0 0 0 0 0 0 0 0 0 0 0 0 0 0 0 0 0 0 0 0 0 0 0 0
0.581015 3.14752e-12 2.63297e-12 5.1455e-13 0.163478 0.0398217 0 0 0 0 0 0 0 0 0 0 0 0 0 0 0 0 0 0 0 0 0 0 0 0 0 0 0 0 0 0 0 0 0 0 0 0 0 0 0 0 0 0
0.610839 2.90181e-12 2.48083e-12 4.20981e-13 0.145075 0.0360478 0 0 0 0 0 0 0 0 0 0 0 0 0 0 0 0 0 0 0 0 0 0 0 0 0 0 0 0 0 0 0 0 0 0 0 0 0 0 0 0 0 0
0.642193 2.6825e-12 2.33788e-12 3.4462e-13 0.12847 0.0326288 0 0 0 0 0 0 0 0 0 0 0 0 0 0 0 0 0 0 0 0 0 0 0 0 0 0 0 0 0 0 0 0 0 0 0 0 0 0 0 0 0 0
0.675157 2.4873e-12 2.2052e-12 2.82097e-13 0.113415 0.029541 0 0 0 0 0 0 0 0 0 0 0 0 0 0 0 0 0 0 0 0 0 0 0 0 0 0 0 0 0 0 0 0 0 0 0 0 0 0 0 0 0 0
0.709813 2.31282e-12 2.08194e-12 2.30882e-13 0.0998271 0.0267453 0 0 0 0 0 0 0 0 0 0 0 0 0 0 0 0 0 0 0 0 0 0 0 0 0 0 0 0 0 0 0 0 0 0 0 0 0 0 0 0 0 0
0.746248 2.1561e-12 1.96709e-12 1.89011e-13 0.0876632 0.0242119 0 0 0 0 0 0 0 0 0 0 0 0 0 0 0 0 0 0 0 0 0 0 0 0 0 0 0 0 0 0 0 0 0 0 0 0 0 0 0 0 0 0
0.784553 2.01426e-12 1.85957e-12 1.54689e-13 0.076797 0.021916 0 0 0 0 0 0 0 0 0 0 0 0 0 0 0 0 0 0 0 0 0 0 0 0 0 0 0 0 0 0 0 0 0 0 0 0 0 0 0 0 0 0
0.824824 1.88569e-12 1.75908e-12 1.26608e-13 0.0671418 0.0198416 0 0 0 0 0 0 0 0 0 0 0 0 0 0 0 0 0 0 0 0 0 0 0 0 0 0 0 0 0 0 0 0 0 0 0 0 0 0 0 0 0 0
0.867162 1.76804e-12 1.66441e-12 1.03623e-13 0.0586093 0.0179638 0 0 0 0 0 0 0 0 0 0 0 0 0 0 0 0 0 0 0 0 0 0 0 0 0 0 0 0 0 0 0 0 0 0 0 0 0 0 0 0 0 0
0.911674 1.6616e-12 1.57683e-12 8.47759e-14 0.0510206 0.0162619 0 0 0 0 0 0 0 0 0 0 0 0 0 0 0 0 0 0 0 0 0 0 0 0 0 0 0 0 0 0 0 0 0 0 0 0 0 0 0 0 0 0
0.95847 1.56461e-12 1.49531e-12 6.93038e-14 0.0442946 0.0147204 0 0 0 0 0 0 0 0 0 0 0 0 0 0 0 0 0 0 0 0 0 0 0 0 0 0 0 0 0 0 0 0 0 0 0 0 0 0 0 0 0 0
1.00767 1.47535e-12 1.41884e-12 5.65124e-14 0.0383044 0.0133255 0 0 0 0 0 0 0 0 0 0 0 0 0 0 0 0 0 0 0 0 0 0 0 0 0 0 0 0 0 0 0 0 0 0 0 0 0 0 0 0 0 0
1.05939 1.42307e-12 1.37698e-12 4.60946e-14 0.032391 0.0120629 0 0 0 0 0 0 0 0 0 0 0 0 0 0 0 0 0 0 0 0 0 0 0 0 0 0 0 0 0 0 0 0 0 0 0 0 0 0 0 0 0 0
1.11377 1.37951e-12 1.34186e-12 3.76545e-14 0.0272956 0.0109187 0 0 0 0 0 0 0 0 0 0 0 0 0 0 0 0 0 0 0 0 0 0 0 0 0 0 0 0 0 0 0 0 0 0 0 0 0 0 0 0 0 0
1.17094 1.34394e-12 1.31311e-12 3.0824e-14 0.0229356 0.00988198 0 0 0 0 0 0 0 0 0 0 0 0 0 0 0 0 0 0 0 0 0 0 0 0 0 0 0 0 0 0 0 0 0 0 0 0 0 0 0 0 0 0
1.23105 1.31281e-12 1.28759e-12 2.52258e-14 0.0192151 0.00894348 0 0 0 0 0 0 0 0 0 0 0 0 0 0 0 0 0 0 0 0 0 0 0 0 0 0 0 0 0 0 0 0 0 0 0 0 0 0 0 0 0 0
1.29424 1.28122e-12 1.26056e-12 2.06553e-14 0.0161216 0.00809416 0 0 0 0 0 0 0 0 0 0 0 0 0 0 0 0 0 0 0 0 0 0 0 0 0 0 0 0 0 0 0 0 0 0 0 0 0 0 0 0 0 0
1.36067 1.24802e-12 1.23103e-12 1.69861e-14 0.0136104 0.00732583 0 0 0 0 0 0 0 0 0 0 0 0 0 0 0 0 0 0 0 0 0 0 0 0 0 0 0 0 0 0 0 0 0 0 0 0 0 0 0 0 0 0
1.43051 1.21357e-12 1.19975e-12 1.38165e-14 0.011385 0.00662883 0 0 0 0 0 0 0 0 0 0 0 0 0 0 0 0 0 0 0 0 0 0 0 0 0 0 0 0 0 0 0 0 0 0 0 0 0 0 0 0 0 0
1.50394 1.17939e-12 1.1681e-12 1.12901e-14 0.00957285 0.00599823 0 0 0 0 0 0 0 0 0 0 0 0 0 0 0 0 0 0 0 0 0 0 0 0 0 0 0 0 0 0 0 0 0 0 0 0 0 0 0 0 0 0
1.58114 1.14686e-12 1.13763e-12 9.23618e-15 0.00805342 0.00542822 0 0 0 0 0 0 0 0 0 0 0 0 0 0 0 0 0 0 0 0 0 0 0 0 0 0 0 0 0 0 0 0 0 0 0 0 0 0 0 0 0 0
1.6623 1.11746e-12 1.10991e-12 7.55552e-15 0.00676133 0.00491134 0 0 0 0 0 0 0 0 0 0 0 0 0 0 0 0 0 0 0 0 0 0 0 0 0 0 0 0 0 0 0 0 0 0 0 0 0 0 0 0 0 0
1.74763 1.09262e-12 1.08644e-12 6.17989e-15 0.00565602 0.00444327 0 0 0 0 0 0 0 0 0 0 0 0 0 0 0 0 0 0 0 0 0 0 0 0 0 0 0 0 0 0 0 0 0 0 0 0 0 0 0 0 0 0
1.83733 1.07371e-12 1.06866e-12 5.05286e-15 0.00470599 0.00401922 0 0 0 0 0 0 0 0 0 0 0 0 0 0 0 0 0 0 0 0 0 0 0 0 0 0 0 0 0 0 0 0 0 0 0 0 0 0 0 0 0 0
1.93164 1.06154e-12 1.05741e-12 4.12976e-15 0.00389035 0.00363603 0 0 0 0 0 0 0 0 0 0 0 0 0 0 0 0 0 0 0 0 0 0 0 0 0 0 0 0 0 0 0 0 0 0 0 0 0 0 0 0 0 0
2.03079 1.05587e-12 1.0525e-12 3.37734e-15 0.00319863 0.00328924 0 0 0 0 0 0 0 0 0 0 0 0 0 0 0 0 0 0 0 0 0 0 0 0 0 0 0 0 0 0 0 0 0 0 0 0 0 0 0 0 0 0
2.13503 1.05521e-12 1.05244e-12 2.76463e-15 0.00261999 0.00297491 0 0 0 0 0 0 0 0 0 0 0 0 0 0 0 0 0 0 0 0 0 0 0 0 0 0 0 0 0 0 0 0 0 0 0 0 0 0 0 0 0 0
2.24463 1.056e-12 1.05373e-12 2.26516e-15 0.00214505 0.00269016 0 0 0 0 0 0 0 0 0 0 0 0 0 0 0 0 0 0 0 0 0 0 0 0 0 0 0 0 0 0 0 0 0 0 0 0 0 0 0 0 0 0
2.35984 1.05724e-12 1.05539e-12 1.85705e-15 0.0017565 0.00243287 0 0 0 0 0 0 0 0 0 0 0 0 0 0 0 0 0 0 0 0 0 0 0 0 0 0 0 0 0 0 0 0 0 0 0 0 0 0 0 0 0 0
2.48097 1.06029e-12 1.05877e-12 1.52299e-15 0.00143638 0.0021997 0 0 0 0 0 0 0 0 0 0 0 0 0 0 0 0 0 0 0 0 0 0 0 0 0 0 0 0 0 0 0 0 0 0 0 0 0 0 0 0 0 0
2.60832 1.06522e-12 1.06397e-12 1.24984e-15 0.00117331 0.00198862 0 0 0 0 0 0 0 0 0 0 0 0 0 0 0 0 0 0 0 0 0 0 0 0 0 0 0 0 0 0 0 0 0 0 0 0 0 0 0 0 0 0
2.74221 1.07356e-12 1.07253e-12 1.02652e-15 0.000956186 0.0017976 0 0 0 0 0 0 0 0 0 0 0 0 0 0 0 0 0 0 0 0 0 0 0 0 0 0 0 0 0 0 0 0 0 0 0 0 0 0 0 0 0 0
2.88297 1.08531e-12 1.08446e-12 8.44445e-16 0.00077807 0.00162458 0 0 0 0 0 0 0 0 0 0 0 0 0 0 0 0 0 0 0 0 0 0 0 0 0 0 0 0 0 0 0 0 0 0 0 0 0 0 0 0 0 0
3.03095 1.10027e-12 1.09957e-12 6.97386e-16 0.000633835 0.00146811 0 0 0 0 0 0 0 0 0 0 0 0 0 0 0 0 0 0 0 0 0 0 0 0 0 0 0 0 0 0 0 0 0 0 0 0 0 0 0 0 0 0
3.18653 1.10496e-12 1.10438e-12 5.77312e-16 0.000522473 0.00132644 0 0 0 0 0 0 0 0 0 0 0 0 0 0 0 0 0 0 0 0 0 0 0 0 0 0 0 0 0 0 0 0 0 0 0 0 0 0 0 0 0 0
3.35009 1.13239e-12 1.13192e-12 4.71978e-16 0.000416798 0.0011981 0 0 0 0 0 0 0 0 0 0 0 0 0 0 0 0 0 0 0 0 0 0 0 0 0 0 0 0 0 0 0 0 0 0 0 0 0 0 0 0 0 0
3.52205 1.12811e-12 1.1277e-12 4.10682e-16 0.000364045 0.00108191 0 0 0 0 0 0 0 0 0 0 0 0 0 0 0 0 0 0 0 0 0 0 0 0 0 0 0 0 0 0 0 0 0 0 0 0 0 0 0 0 0 0
3.70284 1.05268e-12 1.05234e-12 3.34079e-16 0.000317361 0.000976819 0 0 0 0 0 0 0 0 0 0 0 0 0 0 0 0 0 0 0 0 0 0 0 0 0 0 0 0 0 0 0 0 0 0 0 0 0 0 0 0 0 0
3.89291 1.03089e-12 1.03062e-12 2.73732e-16 0.00026553 0.000881572 0 0 0 0 0 0 0 0 0 0 0 0 0 0 0 0 0 0 0 0 0 0 0 0 0 0 0 0 0 0 0 0 0 0 0 0 0 0 0 0 0 0
4.09273 1.01374e-12 1.01351e-12 2.2445e-16 0.000221408 0.00079519 0 0 0 0 0 0 0 0 0 0 0 0 0 0 0 0 0 0 0 0 0 0 0 0 0 0 0 0 0 0 0 0 0 0 0 0 0 0 0 0 0 0
4.30281 1.00141e-12 1.00123e-12 1.84112e-16 0.000183852 0.00071691 0 0 0 0 0 0 0 0 0 0 0 0 0 0 0 0 0 0 0 0 0 0 0 0 0 0 0 0 0 0 0 0 0 0 0 0 0 0 0 0 0 0
4.52368 9.94021e-13 9.93869e-13 1.51193e-16 0.000152102 0.000646065 0 0 0 0 0 0 0 0 0 0 0 0 0 0 0 0 0 0 0 0 0 0 0 0 0 0 0 0 0 0 0 0 0 0 0 0 0 0 0 0 0 0
4.75588 9.90418e-13 9.90293e-13 1.24362e-16 0.000125565 0.000581791 0 0 0 0 0 0 0 0 0 0 0 0 0 0 0 0 0 0 0 0 0 0 0 0 0 0 0 0 0 0 0 0 0 0 0 0 0 0 0 0 0 0
5 9.87768e-13 9.87666e-13 1.02499e-16 0.000103769 0.000523346 0 0 0 0 0 0 0 0 0 0 0 0 0 0 0 0 0 0 0 0 0 0 0 0 0 0 0 0 0 0 0 0 0 0 0 0 0 0 0 0 0 0
5.25665 9.83709e-13 9.83624e-13 8.45775e-17 8.59782e-05 0.000470231 0 0 0 0 0 0 0 0 0 0 0 0 0 0 0 0 0 0 0 0 0 0 0 0 0 0 0 0 0 0 0 0 0 0 0 0 0 0 0 0 0 0
5.52648 9.78345e-13 9.78276e-13 6.97839e-17 7.13285e-05 0.000422156 0 0 0 0 0 0 0 0 0 0 0 0 0 0 0 0 0 0 0 0 0 0 0 0 0 0 0 0 0 0 0 0 0 0 0 0 0 0 0 0 0 0
5.81015 9.71007e-13 9.70949e-13 5.75139e-17 5.92312e-05 0.000378332 0 0 0 0 0 0 0 0 0 0 0 0 0 0 0 0 0 0 0 0 0 0 0 0 0 0 0 0 0 0 0 0 1.4013e-45 0 1.4013e-45 0 5.60519e-45 0 1.26117e-44 0 2.8026e-44 0
6.10839 9.6276e-13 9.62713e-13 4.73026e-17 4.91323e-05 0.000338499 0 0 0 0 0 0 0 0 0 0 0 0 0 0 0 0 0 0 0 0 0 0 0 0 0 0 2.8026e-45 0 8.40779e-45 0 2.8026e-44 0 7.9874e-44 0 2.07392e-43 0 5.15678e-43 0 1.21212e-42 0 2.68629e-42 0
6.42193 9.53341e-13 9.53302e-13 3.87635e-17 4.06606e-05 0.000302158 0 0 0 0 0 0 0 0 0 0 0 0 0 0 0 0 0 0 0 0 4.2039e-45 0 1.82169e-44 0 7.56701e-44 0 2.73253e-43 0 8.67404e-43 0 2.56297e-42 0 7.07516e-42 0 1.75471e-41 0 4.1868e-41 0 9.43018e-41 0 2.01046e-40 0
6.75157 9.46539e-13 9.46507e-13 3.1516e-17 3.32961e-05 0.000268665 0 0 0 0 0 0 0 0 0 0 0 0 0 0 1.4013e-45 0 9.80909e-45 0 7.00649e-44 0 3.85357e-43 0 1.74181e-42 0 6.68559e-42 0 2.26043e-41 0 6.78845e-41 0 1.90333e-40 0 5.00122e-40 0 1.18652e-39 0 2.71329e-39 0 5.87384e-39 0 1.20682e-38 0
7.09813 9.3119e-13 9.31165e-13 2.56085e-17 2.75008e-05 0.000237126 0 0 0 0 0 0 0 0 0 0 0 0 9.80909e-45 0 1.17709e-43 0 9.96323e-43 0 6.07042e-42 0 3.07739e-41 0 1.28966e-40 0 4.6366e-40 0 1.47719e-39 0 4.20427e-39 0 1.12092e-38 0 2.80964e-38 0 6.39042e-38 0 1.4035e-37 0 2.92592e-37 0 5.80383e-37 0
7.46248 9.18752e-13 9.18732e-13 2.0296e-17 2.20908e-05 0.000206426 0 0 0 0 0 0 0 0 1.4013e-45 0 5.04467e-44 0 9.24857e-43 0 9.8189e-42 0 7.50942e-41 0 4.18763e-40 0 1.96105e-39 0 7.66288e-39 0 2.58813e-38 0 7.79203e-38 0 2.10731e-37 0 5.35571e-37 0 1.28354e-36 0 2.80456e-36 0 5.92743e-36 0 1.19217e-35 0 2.287e-35 0
7.84553 9.05816e-13 9.05801e-13 1.53613e-17 1.69585e-05 0.000177142 0 0 0 0 0 0 1.4013e-45 0 1.31722e-43 0 4.35944e-42 0 6.89425e-41 0 6.52686e-40 0 4.5194e-39 0 2.31742e-38 0 1.00644e-37 0 3.67954e-37 0 1.17106e-36 0 3.34097e-36 0 8.60705e-36 0 2.09009e-35 0 4.79983e-35 0 1.0095e-34 0 2.05703e-34 0 3.99848e-34 0 7.43037e-34 0
8.24824 1.00955e-12 1.00954e-12 1.13019e-17 1.1195e-05 0.000152263 0 0 0 0 0 0 1.33123e-43 0 1.20329e-41 0 3.36474e-40 0 4.64959e-39 0 3.94428e-38 0 2.48493e-37 0 1.17646e-36 0 4.75578e-36 0 1.63207e-35 0 4.90881e-35 0 1.33058e-34 0 3.27308e-34 0 7.61124e-34 0 1.67837e-33 0 3.40411e-33 0 6.69953e-33 0 1.26068e-32 0 2.27291e-32 0
8.67162 1.2261e-12 1.22609e-12 9.79937e-18 7.99232e-06 0.000132514 0 0 0 0 2.24208e-44 0 1.3126e-41 0 9.56304e-40 0 2.27284e-38 0 2.7628e-37 0 2.11138e-36 0 1.21587e-35 0 5.33557e-35 0 2.01468e-34 0 6.50993e-34 0 1.85551e-33 0 4.79055e-33 0 1.12775e-32 0 2.51663e-32 0 5.33929e-32 0 1.04618e-31 0 1.992e-31 0 3.63451e-31 0 6.36684e-31 0
9.11674 1.68287e-12 1.68286e-12 1.16562e-17 6.9264e-06 0.000113056 0 0 0 0 2.75495e-42 0 1.17074e-39 0 6.91833e-38 0 1.40862e-36 0 1.51569e-35 0 1.04883e-34 0 5.54504e-34 0 2.26381e-33 0 8.01109e-33 0 2.44451e-32 0 6.6202e-32 0 1.63185e-31 0 3.68431e-31 0 7.9057e-31 0 1.6168e-30 0 3.06559e-30 0 5.65644e-30 0 1.00219e-29 0 1.7082e-29 0
9.5847 2.0515e-12 2.05149e-12 1.61685e-17 7.88128e-06 0.00010117 0 0 4.2039e-45 0 2.36249e-40 0 7.47281e-38 0 3.61851e-36 0 6.35948e-35 0 6.09343e-34 0 3.83654e-33 0 1.86994e-32 0 7.12745e-32 0 2.37132e-31 0 6.85228e-31 0 1.76762e-30 0 4.16935e-30 0 9.04639e-30 0 1.87013e-29 0 3.69331e-29 0 6.78747e-29 0 1.21548e-28 0 2.09424e-28 0 3.47784e-28 0
10.0767 1.98593e-12 1.98591e-12 1.77896e-17 8.9578e-06 9.60618e-05 0 0 4.13383e-43 0 1.29149e-38 0 3.08417e-36 0 1.2357e-34 0 1.8881e-33 0 1.62012e-32 0 9.32419e-32 0 4.20643e-31 0 1.50192e-30 0 4.7121e-30 0 1.29288e-29 0 3.18434e-29 0 7.20283e-29 0 1.50482e-28 0 3.00249e-28 0 5.73584e-28 0 1.02326e-27 0 1.78103e-27 0 2.98823e-27 0 4.84108e-27 0
10.5939 1.69093e-12 1.69091e-12 1.57916e-17 9.33901e-06 9.44658e-05 0 0 2.66933e-41 0 5.0378e-37 0 9.20837e-35 0 3.08109e-33 0 4.121e-32 0 3.1838e-31 0 1.68229e-30 0 7.05112e-30 0 2.36595e-29 0 7.01984e-29 0 1.83346e-28 0 4.32134e-28 0 9.3928e-28 0 1.89302e-27 0 3.65177e-27 0 6.75917e-27 0 1.17222e-26 0 1.98584e-26 0 3.24872e-26 0 5.14056e-26 0
11.1377 1.41274e-12 1.41273e-12 1.32718e-17 9.3944e-06 9.67459e-05 3.36312e-44 0 1.35421e-39 0 1.58039e-35 0 2.2401e-33 0 6.31475e-32 0 7.44157e-31 0 5.20302e-30 0 2.53462e-29 0 9.90566e-29 0 3.13301e-28 0 8.81502e-28 0 2.1969e-27 0 4.96567e-27 0 1.03918e-26 0 2.02391e-26 0 3.78102e-26 0 6.79116e-26 0 1.14653e-25 0 1.89296e-25 0 3.02325e-25 0 4.67779e-25 0
11.7094 1.13445e-12 1.13444e-12 1.03777e-17 9.14777e-06 9.73277e-05 2.2673e-42 0 5.33801e-38 0 3.94355e-34 0 4.38881e-32 0 1.05108e-30 0 1.09809e-29 0 6.98221e-29 0 3.1483e-28 0 1.15118e-27 0 3.44197e-27 0 9.20733e-27 0 2.19461e-26 0 4.76687e-26 0 9.62253e-26 0 1.81407e-25 0 3.28715e-25 0 5.73769e-25 0 9.4422e-25 0 1.52124e-24 0 2.37467e-24 0 3.59679e-24 0
12.3105 9.11275e-13 9.11267e-13 7.73286e-18 8.48576e-06 9.68105e-05 1.19399e-40 0 1.7193e-36 0 8.22212e-33 0 7.26988e-31 0 1.49099e-29 0 1.38907e-28 0 8.06967e-28 0 3.38068e-27 0 1.16033e-26 0 3.28867e-26 0 8.38461e-26 0 1.91553e-25 0 4.00606e-25 0 7.8141e-25 0 1.42823e-24 0 2.51397e-24 0 4.27038e-24 0 6.85867e-24 0 1.07957e-23 0 1.64898e-23 0 2.4475e-23 0
