# 0.00026607 0 155 : grain size, compostion index, size index
# Heating and cooling timescale: 3.80589e-05 4.13384e+09
# Ratio of heating to cooling to determine stochastic cutoff: 100
# Equilibrium emission is recorded even for those grains in the stochastic regime.
# Emission spectrum was computed for: 
# Type: IRSF
# Scales: 0.25 0.5 1 1.5 2 2.5 3 3.5 4 4.5 5 5.5 6 6.5 7 7.5 8 8.5 9 9.5 10
# StochasticallyHeated: 0 0 0 0 0 0 0 0 0 0 0 0 0 0 0 0 0 0 0 0 0
# Temperature: -1
# Wavelength  CExt  CAbs  CSca  Albedo G EqEm1 StEm1 EqEm2 StEm2 EqEm3 StEm3 EqEm4 StEm4 EqEm5 StEm5 EqEm6 StEm6 EqEm7 StEm7 EqEm8 StEm8 EqEm9 StEm9 EqEm10 StEm10 EqEm11 StEm11 EqEm12 StEm12 EqEm13 StEm13 EqEm14 StEm14 EqEm15 StEm15 EqEm16 StEm16 EqEm17 StEm17 EqEm18 StEm18 EqEm19 StEm19 EqEm20 StEm20 EqEm21 StEm21
0.05 1.15253e-07 4.21025e-08 7.31502e-08 0.634694 0.00576547 0 0 0 0 0 0 0 0 0 0 0 0 0 0 0 0 0 0 0 0 0 0 0 0 0 0 0 0 0 0 0 0 0 0 0 0 0 0 0 0 0 0
0.0525665 1.27388e-07 4.65357e-08 8.08525e-08 0.634694 0.00637255 0 0 0 0 0 0 0 0 0 0 0 0 0 0 0 0 0 0 0 0 0 0 0 0 0 0 0 0 0 0 0 0 0 0 0 0 0 0 0 0 0 0
0.0552647 1.40802e-07 5.14357e-08 8.93659e-08 0.634694 0.00704355 0 0 0 0 0 0 0 0 0 0 0 0 0 0 0 0 0 0 0 0 0 0 0 0 0 0 0 0 0 0 0 0 0 0 0 0 0 0 0 0 0 0
0.0581015 1.55627e-07 5.68516e-08 9.87757e-08 0.634694 0.0077852 0 0 0 0 0 0 0 0 0 0 0 0 0 0 0 0 0 0 0 0 0 0 0 0 0 0 0 0 0 0 0 0 0 0 0 0 0 0 0 0 0 0
0.0610839 1.72014e-07 6.28378e-08 1.09176e-07 0.634694 0.00860494 0 0 0 0 0 0 0 0 0 0 0 0 0 0 0 0 0 0 0 0 0 0 0 0 0 0 0 0 0 0 0 0 0 0 0 0 0 0 0 0 0 0
0.0642193 1.90126e-07 6.94543e-08 1.20672e-07 0.634694 0.009511 0 0 0 0 0 0 0 0 0 0 0 0 0 0 0 0 0 0 0 0 0 0 0 0 0 0 0 0 0 0 0 0 0 0 0 0 0 0 0 0 0 0
0.0675157 2.10146e-07 7.67675e-08 1.33378e-07 0.634694 0.0105125 0 0 0 0 0 0 0 0 0 0 0 0 0 0 0 0 0 0 0 0 0 0 0 0 0 0 0 0 0 0 0 0 0 0 0 0 0 0 0 0 0 0
0.0709813 2.32273e-07 8.48507e-08 1.47422e-07 0.634694 0.0116194 0 0 0 0 0 0 0 0 0 0 0 0 0 0 0 0 0 0 0 0 0 0 0 0 0 0 0 0 0 0 0 0 0 0 0 0 0 0 0 0 0 0
0.0746248 2.5673e-07 9.37851e-08 1.62945e-07 0.634694 0.0128428 0 0 0 0 0 0 0 0 0 0 0 0 0 0 0 0 0 0 0 0 0 0 0 0 0 0 0 0 0 0 0 0 0 0 0 0 0 0 0 0 0 0
0.0784553 2.83763e-07 1.0366e-07 1.80102e-07 0.634694 0.0141951 0 0 0 0 0 0 0 0 0 0 0 0 0 0 0 0 0 0 0 0 0 0 0 0 0 0 0 0 0 0 0 0 0 0 0 0 0 0 0 0 0 0
0.0824824 3.13641e-07 1.14575e-07 1.99066e-07 0.634694 0.0156898 0 0 0 0 0 0 0 0 0 0 0 0 0 0 0 0 0 0 0 0 0 0 0 0 0 0 0 0 0 0 0 0 0 0 0 0 0 0 0 0 0 0
0.0867162 3.46667e-07 1.26639e-07 2.20027e-07 0.634694 0.0173419 0 0 0 0 0 0 0 0 0 0 0 0 0 0 0 0 0 0 0 0 0 0 0 0 0 0 0 0 0 0 0 0 0 0 0 0 0 0 0 0 0 0
0.0911674 3.83169e-07 1.39974e-07 2.43195e-07 0.634694 0.0191679 0 0 0 0 0 0 0 0 0 0 0 0 0 0 0 0 0 0 0 0 0 0 0 0 0 0 0 0 0 0 0 0 0 0 0 0 0 0 0 0 0 0
0.095847 4.23515e-07 1.54712e-07 2.68802e-07 0.634694 0.0211862 0 0 0 0 0 0 0 0 0 0 0 0 0 0 0 0 0 0 0 0 0 0 0 0 0 0 0 0 0 0 0 0 0 0 0 0 0 0 0 0 0 0
0.100767 4.60998e-07 1.69744e-07 2.91254e-07 0.631789 0.0235692 0 0 0 0 0 0 0 0 0 0 0 0 0 0 0 0 0 0 0 0 0 0 0 0 0 0 0 0 0 0 0 0 0 0 0 0 0 0 0 0 0 0
0.105939 4.61004e-07 1.77249e-07 2.83755e-07 0.615515 0.0256046 0 0 0 0 0 0 0 0 0 0 0 0 0 0 0 0 0 0 0 0 0 0 0 0 0 0 0 0 0 0 0 0 0 0 0 0 0 0 0 0 0 0
0.111377 4.61386e-07 1.78952e-07 2.82435e-07 0.612144 0.0289403 0 0 0 0 0 0 0 0 0 0 0 0 0 0 0 0 0 0 0 0 0 0 0 0 0 0 0 0 0 0 0 0 0 0 0 0 0 0 0 0 0 0
0.117094 4.61375e-07 1.85239e-07 2.76136e-07 0.598507 0.0274507 0 0 0 0 0 0 0 0 0 0 0 0 0 0 0 0 0 0 0 0 0 0 0 0 0 0 0 0 0 0 0 0 0 0 0 0 0 0 0 0 0 0
0.123105 4.61568e-07 1.92464e-07 2.69104e-07 0.583021 0.0236555 0 0 0 0 0 0 0 0 0 0 0 0 0 0 0 0 0 0 0 0 0 0 0 0 0 0 0 0 0 0 0 0 0 0 0 0 0 0 0 0 0 0
0.129424 4.61957e-07 1.97959e-07 2.63998e-07 0.571477 0.0199126 0 0 0 0 0 0 0 0 0 0 0 0 0 0 0 0 0 0 0 0 0 0 0 0 0 0 0 0 0 0 0 0 0 0 0 0 0 0 0 0 0 0
0.136067 4.62377e-07 2.0229e-07 2.60088e-07 0.562501 0.0168557 0 0 0 0 0 0 0 0 0 0 0 0 0 0 0 0 0 0 0 0 0 0 0 0 0 0 0 0 0 0 0 0 0 0 0 0 0 0 0 0 0 0
0.143051 4.62768e-07 2.05905e-07 2.56863e-07 0.555058 0.0143876 0 0 0 0 0 0 0 0 0 0 0 0 0 0 0 0 0 0 0 0 0 0 0 0 0 0 0 0 0 0 0 0 0 0 0 0 0 0 0 0 0 0
0.150394 4.63056e-07 2.08854e-07 2.54202e-07 0.548966 0.0122986 0 0 0 0 0 0 0 0 0 0 0 0 0 0 0 0 0 0 0 0 0 0 0 0 0 0 0 0 0 0 0 0 0 0 0 0 0 0 0 0 0 0
0.158114 4.63101e-07 2.1075e-07 2.52351e-07 0.544916 0.01055 0 0 0 0 0 0 0 0 0 0 0 0 0 0 0 0 0 0 0 0 0 0 0 0 0 0 0 0 0 0 0 0 0 0 0 0 0 0 0 0 0 0
0.16623 4.62937e-07 2.10643e-07 2.52294e-07 0.544986 0.00908216 0 0 0 0 0 0 0 0 0 0 0 0 0 0 0 0 0 0 0 0 0 0 0 0 0 0 0 0 0 0 0 0 0 0 0 0 0 0 0 0 0 0
0.174762 4.62869e-07 2.07613e-07 2.55256e-07 0.551466 0.00782097 0 0 0 0 0 0 0 0 0 0 0 0 0 0 0 0 0 0 0 0 0 0 0 0 0 0 0 0 0 0 0 0 0 0 0 0 0 0 0 0 0 0
0.183733 4.6336e-07 2.00689e-07 2.62671e-07 0.566884 0.00667218 0 0 0 0 0 0 0 0 0 0 0 0 0 0 0 0 0 0 0 0 0 0 0 0 0 0 0 0 0 0 0 0 0 0 0 0 0 0 0 0 0 0
0.193164 4.649e-07 1.88889e-07 2.7601e-07 0.593699 0.00556038 0 0 0 0 0 0 0 0 0 0 0 0 0 0 0 0 0 0 0 0 0 0 0 0 0 0 0 0 0 0 0 0 0 0 0 0 0 0 0 0 0 0
0.203079 4.67302e-07 1.74382e-07 2.92919e-07 0.626831 0.00446034 0 0 0 0 0 0 0 0 0 0 0 0 0 0 0 0 0 0 0 0 0 0 0 0 0 0 0 0 0 0 0 0 0 0 0 0 0 0 0 0 0 0
0.213503 4.70226e-07 1.61233e-07 3.08992e-07 0.657115 0.00342932 0 0 0 0 0 0 0 0 0 0 0 0 0 0 0 0 0 0 0 0 0 0 0 0 0 0 0 0 0 0 0 0 0 0 0 0 0 0 0 0 0 0
0.224463 4.73428e-07 1.52239e-07 3.21189e-07 0.678432 0.00254317 0 0 0 0 0 0 0 0 0 0 0 0 0 0 0 0 0 0 0 0 0 0 0 0 0 0 0 0 0 0 0 0 0 0 0 0 0 0 0 0 0 0
0.235984 4.76649e-07 1.47905e-07 3.28744e-07 0.689699 0.00182186 0 0 0 0 0 0 0 0 0 0 0 0 0 0 0 0 0 0 0 0 0 0 0 0 0 0 0 0 0 0 0 0 0 0 0 0 0 0 0 0 0 0
0.248097 4.79376e-07 1.47396e-07 3.31981e-07 0.692527 0.00138916 0 0 0 0 0 0 0 0 0 0 0 0 0 0 0 0 0 0 0 0 0 0 0 0 0 0 0 0 0 0 0 0 0 0 0 0 0 0 0 0 0 0
0.260832 4.80809e-07 1.50025e-07 3.30784e-07 0.687973 0.00141961 0 0 0 0 0 0 0 0 0 0 0 0 0 0 0 0 0 0 0 0 0 0 0 0 0 0 0 0 0 0 0 0 0 0 0 0 0 0 0 0 0 0
0.274221 4.80548e-07 1.55353e-07 3.25195e-07 0.676716 0.00187131 0 0 0 0 0 0 0 0 0 0 0 0 0 0 0 0 0 0 0 0 0 0 0 0 0 0 0 0 0 0 0 0 0 0 0 0 0 0 0 0 0 0
0.288297 4.79436e-07 1.62459e-07 3.16977e-07 0.661145 0.00251556 0 0 0 0 0 0 0 0 0 0 0 0 0 0 0 0 0 0 0 0 0 0 0 0 0 0 0 0 0 0 0 0 0 0 0 0 0 0 0 0 0 0
0.303095 4.78747e-07 1.69648e-07 3.09099e-07 0.645642 0.0028362 0 0 0 0 0 0 0 0 0 0 0 0 0 0 0 0 0 0 0 0 0 0 0 0 0 0 0 0 0 0 0 0 0 0 0 0 0 0 0 0 0 0
0.318653 4.78796e-07 1.7568e-07 3.03117e-07 0.633081 0.00297223 0 0 0 0 0 0 0 0 0 0 0 0 0 0 0 0 0 0 0 0 0 0 0 0 0 0 0 0 0 0 0 0 0 0 0 0 0 0 0 0 0 0
0.335009 4.79384e-07 1.80209e-07 2.99174e-07 0.624081 0.00293231 0 0 0 0 0 0 0 0 0 0 0 0 0 0 0 0 0 0 0 0 0 0 0 0 0 0 0 0 0 0 0 0 0 0 0 0 0 0 0 0 0 0
0.352205 4.80281e-07 1.83364e-07 2.96917e-07 0.618216 0.00278811 0 0 0 0 0 0 0 0 0 0 0 0 0 0 0 0 0 0 0 0 0 0 0 0 0 0 0 0 0 0 0 0 0 0 0 0 0 0 0 0 0 0
0.370284 4.81382e-07 1.85432e-07 2.95949e-07 0.614791 0.00261033 0 0 0 0 0 0 0 0 0 0 0 0 0 0 0 0 0 0 0 0 0 0 0 0 0 0 0 0 0 0 0 0 0 0 0 0 0 0 0 0 0 0
0.389291 4.82611e-07 1.86695e-07 2.95916e-07 0.613156 0.00243645 0 0 0 0 0 0 0 0 0 0 0 0 0 0 0 0 0 0 0 0 0 0 0 0 0 0 0 0 0 0 0 0 0 0 0 0 0 0 0 0 0 0
0.409273 4.839e-07 1.8748e-07 2.9642e-07 0.612564 0.00226652 0 0 0 0 0 0 0 0 0 0 0 0 0 0 0 0 0 0 0 0 0 0 0 0 0 0 0 0 0 0 0 0 0 0 0 0 0 0 0 0 0 0
0.430281 4.85215e-07 1.88037e-07 2.97178e-07 0.612467 0.00210471 0 0 0 0 0 0 0 0 0 0 0 0 0 0 0 0 0 0 0 0 0 0 0 0 0 0 0 0 0 0 0 0 0 0 0 0 0 0 0 0 0 0
0.452368 4.8655e-07 1.88542e-07 2.98007e-07 0.612491 0.00193723 0 0 0 0 0 0 0 0 0 0 0 0 0 0 0 0 0 0 0 0 0 0 0 0 0 0 0 0 0 0 0 0 0 0 0 0 0 0 0 0 0 0
0.475588 4.87883e-07 1.89088e-07 2.98795e-07 0.612431 0.00177642 0 0 0 0 0 0 0 0 0 0 0 0 0 0 0 0 0 0 0 0 0 0 0 0 0 0 0 0 0 0 0 0 0 0 0 0 0 0 0 0 0 0
0.5 4.8924e-07 1.89713e-07 2.99527e-07 0.61223 0.00162159 0 0 0 0 0 0 0 0 0 0 0 0 0 0 0 0 0 0 0 0 0 0 0 0 0 0 0 0 0 0 0 0 0 0 0 0 0 0 0 0 0 0
0.525665 4.90638e-07 1.90411e-07 3.00227e-07 0.611911 0.0014751 0 0 0 0 0 0 0 0 0 0 0 0 0 0 0 0 0 0 0 0 0 0 0 0 0 0 0 0 0 0 0 0 0 0 0 0 0 0 0 0 0 0
0.552648 4.92073e-07 1.91139e-07 3.00933e-07 0.611563 0.00134175 0 0 0 0 0 0 0 0 0 0 0 0 0 0 0 0 0 0 0 0 0 0 0 0 0 0 0 0 0 0 0 0 0 0 0 0 0 0 0 0 0 0
0.581015 4.93583e-07 1.91883e-07 3.017e-07 0.611245 0.00121775 0 0 0 0 0 0 0 0 0 0 0 0 0 0 0 0 0 0 0 0 0 0 0 0 0 0 0 0 0 0 0 0 0 0 0 0 0 0 0 0 0 0
0.610839 4.95163e-07 1.92599e-07 3.02564e-07 0.611039 0.00110516 0 0 0 0 0 0 0 0 0 0 0 0 0 0 0 0 0 0 0 0 0 0 0 0 0 0 0 0 0 0 0 0 0 0 0 0 0 0 0 0 0 0
0.642193 4.96818e-07 1.93267e-07 3.03551e-07 0.61099 0.00100302 0 0 0 0 0 0 0 0 0 0 0 0 0 0 0 0 0 0 0 0 0 0 0 0 0 0 0 0 0 0 0 0 0 0 0 0 0 0 0 0 0 0
0.675157 4.98535e-07 1.93859e-07 3.04677e-07 0.611143 0.000910957 0 0 0 0 0 0 0 0 0 0 0 0 0 0 0 0 0 0 0 0 0 0 0 0 0 0 0 0 0 0 0 0 0 0 0 0 0 0 0 0 0 0
0.709813 5.00344e-07 1.94379e-07 3.05965e-07 0.611509 0.00082817 0 0 0 0 0 0 0 0 0 0 0 0 0 0 0 0 0 0 0 0 0 0 0 0 0 0 0 0 0 0 0 0 0 0 0 0 0 0 0 0 0 0
0.746248 5.02209e-07 1.94811e-07 3.07399e-07 0.612093 0.000754183 0 0 0 0 0 0 0 0 0 0 0 0 0 0 0 0 0 0 0 0 0 0 0 0 0 0 0 0 0 0 0 0 0 0 0 0 0 0 0 0 0 0
0.784553 5.04147e-07 1.95164e-07 3.08983e-07 0.612883 0.000686995 0 0 0 0 0 0 0 0 0 0 0 0 0 0 0 0 0 0 0 0 0 0 0 0 0 0 0 0 0 0 0 0 0 0 0 0 0 0 0 0 0 0
0.824824 5.06142e-07 1.95438e-07 3.10704e-07 0.613867 0.000626788 0 0 0 0 0 0 0 0 0 0 0 0 0 0 0 0 0 0 0 0 0 0 0 0 0 0 0 0 0 0 0 0 0 0 0 0 0 0 0 0 0 0
0.867162 5.08185e-07 1.95634e-07 3.12551e-07 0.615033 0.000572518 0 0 0 0 0 0 0 0 0 0 0 0 0 0 0 0 0 0 0 0 0 0 0 0 0 0 0 0 0 0 0 0 0 0 0 0 0 0 0 0 0 0
0.911674 5.10276e-07 1.95771e-07 3.14505e-07 0.616342 0.000523427 0 0 0 0 0 0 0 0 0 0 0 0 0 0 0 0 0 0 0 0 0 0 0 0 0 0 0 0 0 0 0 0 0 0 0 0 0 0 0 0 0 0
0.95847 5.12379e-07 1.9584e-07 3.16539e-07 0.617782 0.00047944 0 0 0 0 0 0 0 0 0 0 0 0 0 0 0 0 0 0 0 0 0 0 0 0 0 0 0 0 0 0 0 0 0 0 0 0 0 0 0 0 0 0
1.00767 5.145e-07 1.9587e-07 3.1863e-07 0.6193 0.0004395 0 0 0 0 0 0 0 0 0 0 0 0 0 0 0 0 0 0 0 0 0 0 0 0 0 0 0 0 0 0 0 0 0 0 0 0 0 0 0 0 0 0
1.05939 5.16639e-07 1.9586e-07 3.20779e-07 0.620895 0.000403275 0 0 0 0 0 0 0 0 0 0 0 0 0 0 0 0 0 0 0 0 0 0 0 0 0 0 0 0 0 0 0 0 0 0 0 0 0 0 0 0 0 0
1.11377 5.18802e-07 1.95821e-07 3.22982e-07 0.622552 0.000370298 0 0 0 0 0 0 0 0 0 0 0 0 0 0 0 0 0 0 0 0 0 0 0 0 0 0 0 0 0 0 0 0 0 0 0 0 0 0 0 0 0 0
1.17094 5.20933e-07 1.95752e-07 3.25181e-07 0.624228 0.000339515 0 0 0 0 0 0 0 0 0 0 0 0 0 0 0 0 0 0 0 0 0 0 0 0 0 0 0 0 0 0 0 0 0 0 0 0 0 0 0 0 0 0
1.23105 5.23048e-07 1.95664e-07 3.27384e-07 0.625916 0.000311294 0 0 0 0 0 0 0 0 0 0 0 0 0 0 0 0 0 0 0 0 0 0 0 0 0 0 0 0 0 0 0 0 0 0 0 0 0 0 0 0 0 0
1.29424 5.25157e-07 1.95574e-07 3.29583e-07 0.62759 0.000285362 0 0 0 0 0 0 0 0 0 0 0 0 0 0 0 0 0 0 0 0 0 0 0 0 0 0 0 0 0 0 0 0 0 0 0 0 0 0 0 0 0 0
1.36067 5.27246e-07 1.95474e-07 3.31772e-07 0.629254 0.000261742 0 0 0 0 0 0 0 0 0 0 0 0 0 0 0 0 0 0 0 0 0 0 0 0 0 0 0 0 0 0 0 0 0 0 0 0 0 0 0 0 0 0
1.43051 5.29278e-07 1.95377e-07 3.33901e-07 0.630861 0.000240209 0 0 0 0 0 0 0 0 0 0 0 0 0 0 0 0 0 0 0 0 0 0 0 0 0 0 0 0 0 0 0 0 0 0 0 0 0 0 0 0 0 0
1.50394 5.31312e-07 1.95296e-07 3.36016e-07 0.632427 0.000220279 0 0 0 0 0 0 0 0 0 0 0 0 0 0 0 0 0 0 0 0 0 0 0 0 0 0 0 0 0 0 0 0 0 0 0 0 0 0 0 0 0 0
1.58114 5.33305e-07 1.95216e-07 3.38089e-07 0.63395 0.000201732 0 0 0 0 0 0 0 0 0 0 0 0 0 0 0 0 0 0 0 0 0 0 0 0 0 0 0 0 0 0 0 0 0 0 0 0 0 0 0 0 0 0
1.6623 5.35278e-07 1.95174e-07 3.40105e-07 0.635379 0.000184534 0 0 0 0 0 0 0 0 0 0 0 0 0 0 0 0 0 0 0 0 0 0 0 0 0 0 0 0 0 0 0 0 0 0 0 0 0 0 0 0 0 0
1.74763 5.37225e-07 1.9515e-07 3.42075e-07 0.636744 0.000169005 0 0 0 0 0 0 0 0 0 0 0 0 0 0 0 0 0 0 0 0 0 0 0 0 0 0 0 0 0 0 0 0 0 0 0 0 0 0 0 0 0 0
1.83733 5.39162e-07 1.9517e-07 3.43992e-07 0.638012 0.000154804 0 0 0 0 0 0 0 0 0 0 0 0 0 0 0 0 0 0 0 0 0 0 0 0 0 0 0 0 0 0 0 0 0 0 0 0 0 0 0 0 0 0
1.93164 5.41061e-07 1.95211e-07 3.4585e-07 0.639207 0.000141793 0 0 0 0 0 0 0 0 0 0 0 0 0 0 0 0 0 0 0 0 0 0 0 0 0 0 0 0 0 0 0 0 0 0 0 0 0 0 0 0 0 0
2.03079 5.42986e-07 1.9533e-07 3.47655e-07 0.640266 0.000129725 0 0 0 0 0 0 0 0 0 0 0 0 0 0 0 0 0 0 0 0 0 0 0 0 0 0 0 0 0 0 0 0 0 0 0 0 0 0 0 0 0 0
2.13503 5.44863e-07 1.95469e-07 3.49394e-07 0.641251 0.000118657 0 0 0 0 0 0 0 0 0 0 0 0 0 0 0 0 0 0 0 0 0 0 0 0 0 0 0 0 0 0 0 0 0 0 0 0 0 0 0 0 0 0
2.24463 5.46792e-07 1.95711e-07 3.51081e-07 0.642074 0.000108569 0 0 0 0 0 0 0 0 0 0 0 0 0 0 0 0 0 0 0 0 0 0 0 0 0 0 0 0 0 0 0 0 0 0 0 0 0 0 0 0 0 0
2.35984 5.48667e-07 1.95978e-07 3.52689e-07 0.64281 9.92926e-05 0 0 0 0 0 0 0 0 0 0 0 0 0 0 0 0 0 0 0 0 0 0 0 0 0 0 0 0 0 0 0 0 0 0 0 0 0 0 0 0 0 0
2.48097 5.5062e-07 1.96341e-07 3.54279e-07 0.643418 9.07218e-05 0 0 0 0 0 0 0 0 0 0 0 0 0 0 0 0 0 0 0 0 0 0 0 0 0 0 0 0 0 0 0 0 0 0 0 0 0 0 0 0 0 0
2.60832 5.52583e-07 1.96817e-07 3.55766e-07 0.643823 8.27967e-05 0 0 0 0 0 0 0 0 0 0 0 0 0 0 0 0 0 0 0 0 0 0 0 0 0 0 0 0 0 0 0 0 0 0 0 0 0 0 0 0 0 0
2.74221 5.54489e-07 1.97289e-07 3.572e-07 0.644197 7.55862e-05 0 0 0 0 0 0 0 0 0 0 0 0 0 0 0 0 0 0 0 0 0 0 0 0 0 0 0 0 0 0 0 0 0 0 0 0 0 0 0 0 0 0
2.88297 5.56574e-07 1.97923e-07 3.5865e-07 0.644389 6.90729e-05 0 0 0 0 0 0 0 0 0 0 0 0 0 0 0 0 0 0 0 0 0 0 0 0 0 0 0 0 0 0 0 0 0 0 0 0 0 0 0 0 0 0
3.03095 5.58655e-07 1.98704e-07 3.59951e-07 0.644318 6.31538e-05 0 0 0 0 0 0 0 0 0 0 0 0 0 0 0 0 0 0 0 0 0 0 0 0 0 0 0 0 0 0 0 0 0 0 0 0 0 0 0 0 0 0
3.18653 5.60602e-07 1.99427e-07 3.61175e-07 0.644262 5.76567e-05 0 0 0 0 0 0 0 0 0 0 0 0 0 0 0 0 0 0 0 0 0 0 0 0 0 0 0 0 0 0 0 0 0 0 0 0 0 0 0 0 0 0
3.35009 5.62829e-07 2.00314e-07 3.62515e-07 0.644095 5.2603e-05 0 0 0 0 0 0 0 0 0 0 0 0 0 0 0 0 0 0 0 0 0 0 0 0 0 0 0 0 0 0 0 0 0 0 0 0 0 0 0 0 0 0
3.52205 5.65254e-07 2.01499e-07 3.63755e-07 0.643524 4.80102e-05 0 0 0 0 0 0 0 0 0 0 0 0 0 0 0 0 0 0 0 0 0 0 0 0 0 0 0 0 0 0 0 0 0 0 0 0 0 0 0 0 0 0
3.70284 5.67378e-07 2.02665e-07 3.64713e-07 0.642804 4.38066e-05 0 0 0 0 0 0 0 0 0 0 0 0 0 0 0 0 0 0 0 0 0 0 0 0 0 0 0 0 0 0 0 0 0 0 0 0 0 0 0 0 0 0
3.89291 5.69436e-07 2.03717e-07 3.65719e-07 0.642247 3.9926e-05 0 0 0 0 0 0 0 0 0 0 0 0 0 0 0 0 0 0 0 0 0 0 0 0 0 0 0 0 0 0 0 0 0 0 0 0 0 0 0 0 0 0
4.09273 5.72038e-07 2.0504e-07 3.66998e-07 0.641562 3.62643e-05 0 0 0 0 0 0 0 0 0 0 0 0 0 0 0 0 0 0 0 0 0 0 0 0 0 0 0 0 0 0 0 0 0 0 0 0 0 0 0 0 0 0
4.30281 5.74991e-07 2.06825e-07 3.68166e-07 0.640299 3.29535e-05 0 0 0 0 0 0 0 0 0 0 0 0 0 0 0 0 0 0 0 0 0 0 0 0 0 0 0 0 0 0 0 0 0 0 0 0 0 0 0 0 0 0
4.52368 5.77523e-07 2.0866e-07 3.68863e-07 0.638699 2.99416e-05 0 0 0 0 0 0 0 0 0 0 0 0 0 0 0 0 0 0 0 0 0 0 0 0 0 0 0 0 0 0 0 0 0 0 0 0 0 0 0 0 0 0
4.75588 5.79502e-07 2.10171e-07 3.6933e-07 0.637324 2.71796e-05 0 0 0 0 0 0 0 0 0 0 0 0 0 0 0 0 0 0 0 0 0 0 0 0 0 0 0 0 0 0 0 0 0 0 0 0 0 0 0 0 0 0
5 5.81804e-07 2.11625e-07 3.70179e-07 0.636261 2.45398e-05 0 0 0 0 0 0 0 0 0 0 0 0 0 0 0 0 0 0 0 0 0 0 0 0 0 0 0 0 0 0 0 0 0 0 0 0 0 0 0 0 0 0
5.25665 5.85108e-07 2.13573e-07 3.71535e-07 0.634985 2.21678e-05 0 0 0 0 0 0 0 0 0 0 0 0 0 0 0 0 0 0 0 0 0 0 0 0 0 0 0 0 0 0 0 0 0 0 0 0 0 0 0 0 0 0
5.52648 5.89016e-07 2.16205e-07 3.72811e-07 0.632939 2.00489e-05 0 0 0 0 0 0 0 0 0 0 0 0 0 0 0 0 0 0 0 0 0 0 0 0 0 0 0 0 0 0 0 0 0 0 0 0 0 0 0 0 0 0
5.81015 5.92444e-07 2.19064e-07 3.7338e-07 0.630236 1.8115e-05 0 0 0 0 0 0 0 0 0 0 0 0 0 0 0 0 0 0 0 0 0 0 0 0 0 0 0 0 0 0 0 0 0 0 0 0 0 0 0 0 0 0
6.10839 5.94583e-07 2.21412e-07 3.73171e-07 0.627618 1.63023e-05 0 0 0 0 0 0 0 0 0 0 0 0 0 0 0 0 0 0 0 0 0 0 0 0 0 0 0 0 0 0 0 0 0 0 0 0 0 0 0 0 0 0
6.42193 5.96128e-07 2.24089e-07 3.7204e-07 0.624093 1.48144e-05 0 0 0 0 0 0 0 0 0 0 0 0 0 0 0 0 0 0 0 0 0 0 0 0 0 0 0 0 0 0 0 0 0 0 0 0 0 0 0 0 0 0
6.75157 5.97937e-07 2.25399e-07 3.72538e-07 0.623039 1.32279e-05 0 0 0 0 0 0 0 0 0 0 0 0 0 0 0 0 0 0 0 0 0 0 0 0 0 0 0 0 0 0 0 0 0 0 0 0 0 0 0 0 0 0
7.09813 6.01502e-07 2.27555e-07 3.73947e-07 0.621688 1.18448e-05 0 0 0 0 0 0 0 0 0 0 0 0 0 0 0 0 0 0 0 0 0 0 0 0 0 0 0 0 0 0 0 0 0 0 0 0 0 0 0 0 0 0
7.46248 6.06906e-07 2.30731e-07 3.76175e-07 0.619825 1.05694e-05 0 0 0 0 0 0 0 0 0 0 0 0 0 0 0 0 0 0 0 0 0 0 0 0 0 0 0 0 0 0 0 0 0 0 0 0 0 0 0 0 0 0
7.84553 6.12963e-07 2.34882e-07 3.78081e-07 0.616809 9.34187e-06 0 0 0 0 0 0 0 0 0 0 0 0 0 0 0 0 0 0 0 0 0 0 0 0 0 0 0 0 0 0 0 0 0 0 0 0 0 0 0 0 0 0
8.24824 6.17797e-07 2.39438e-07 3.78359e-07 0.612433 8.19911e-06 0 0 0 0 0 0 0 0 0 0 0 0 0 0 0 0 0 0 0 0 0 0 0 0 0 0 0 0 0 0 0 0 0 0 0 0 0 0 0 0 0 0
8.67162 6.20239e-07 2.43783e-07 3.76456e-07 0.606953 7.20916e-06 0 0 0 0 0 0 0 0 0 0 0 0 0 0 0 0 0 0 0 0 0 0 0 0 0 0 0 0 0 0 0 0 1.4013e-45 0 5.60519e-45 0 1.82169e-44 0 4.76441e-44 0 1.20512e-43 0
9.11674 6.2025e-07 2.47495e-07 3.72755e-07 0.600976 6.32492e-06 0 0 0 0 0 0 0 0 0 0 0 0 0 0 0 0 0 0 0 0 0 0 0 0 1.4013e-45 0 8.40779e-45 0 3.36312e-44 0 1.17709e-43 0 3.74147e-43 0 1.09301e-42 0 2.94413e-42 0 7.49134e-42 0 1.80501e-41 0
9.5847 6.18581e-07 2.50304e-07 3.68276e-07 0.595357 5.52644e-06 0 0 0 0 0 0 0 0 0 0 0 0 0 0 0 0 0 0 1.4013e-45 0 1.4013e-44 0 7.56701e-44 0 3.5593e-43 0 1.49519e-42 0 5.35016e-42 0 1.7491e-41 0 5.25137e-41 0 1.45472e-40 0 3.73352e-40 0 9.07589e-40 0 2.09481e-39 0
10.0767 6.16232e-07 2.5207e-07 3.64162e-07 0.59095 4.78203e-06 0 0 0 0 0 0 0 0 0 0 0 0 0 0 4.2039e-45 0 4.2039e-44 0 3.48923e-43 0 2.21125e-42 0 1.13827e-41 0 4.92823e-41 0 1.92918e-40 0 6.48543e-40 0 2.00096e-39 0 5.69355e-39 0 1.50065e-38 0 3.6782e-38 0 8.56189e-38 0 1.8971e-37 0
10.5939 6.15039e-07 2.53278e-07 3.61761e-07 0.588192 4.06995e-06 0 0 0 0 0 0 0 0 0 0 1.4013e-45 0 4.06377e-44 0 6.24979e-43 0 6.44878e-42 0 4.75811e-41 0 2.75986e-40 0 1.3111e-39 0 5.28456e-39 0 1.93532e-38 0 6.13214e-38 0 1.79069e-37 0 4.84165e-37 0 1.21713e-36 0 2.85552e-36 0 6.3783e-36 0 1.35942e-35 0
11.1377 6.18192e-07 2.55355e-07 3.62838e-07 0.586933 3.40803e-06 0 0 0 0 0 0 0 0 4.2039e-45 0 2.53635e-43 0 6.10265e-42 0 8.2245e-41 0 7.57179e-40 0 5.06717e-39 0 2.69735e-38 0 1.18753e-37 0 4.47159e-37 0 1.53703e-36 0 4.60349e-36 0 1.27577e-35 0 3.2859e-35 0 7.89683e-35 0 1.77712e-34 0 3.81678e-34 0 7.83973e-34 0
11.7094 6.22078e-07 2.53403e-07 3.68676e-07 0.592652 2.82232e-06 0 0 0 0 0 0 4.2039e-45 0 7.38484e-43 0 3.38624e-41 0 6.98819e-40 0 8.29501e-39 0 6.85233e-38 0 4.17924e-37 0 2.05029e-36 0 8.39643e-36 0 2.96345e-35 0 9.59041e-35 0 2.72259e-34 0 7.17883e-34 0 1.76553e-33 0 4.06519e-33 0 8.7932e-33 0 1.81935e-32 0 3.60794e-32 0
12.3105 6.38284e-07 2.60038e-07 3.78245e-07 0.592598 2.20615e-06 0 0 0 0 0 0 7.16064e-43 0 9.57984e-41 0 3.64192e-39 0 6.4833e-38 0 6.82008e-37 0 5.08204e-36 0 2.83764e-35 0 1.2881e-34 0 4.92422e-34 0 1.63417e-33 0 4.99386e-33 0 1.34728e-32 0 3.38821e-32 0 7.9746e-32 0 1.76292e-31 0 3.6723e-31 0 7.33317e-31 0 1.40642e-30 0
12.9424 6.53815e-07 2.65215e-07 3.886e-07 0.594357 1.60871e-06 0 0 0 0 8.96831e-44 0 9.13142e-41 0 9.6272e-39 0 3.06431e-37 0 4.73965e-36 0 4.44469e-35 0 3.00264e-34 0 1.54154e-33 0 6.49938e-33 0 2.32715e-32 0 7.28365e-32 0 2.10766e-31 0 5.41722e-31 0 1.30237e-30 0 2.93985e-30 0 6.2521e-30 0 1.25653e-29 0 2.42583e-29 0 4.50689e-29 0
13.6067 6.65661e-07 2.71261e-07 3.944e-07 0.592494 1.1081e-06 0 0 0 0 1.25248e-41 0 9.1209e-39 0 7.65997e-37 0 2.05914e-35 0 2.7863e-34 0 2.3424e-33 0 1.4415e-32 0 6.83251e-32 0 2.68526e-31 0 9.03424e-31 0 2.67438e-30 0 7.3476e-30 0 1.80345e-29 0 4.15397e-29 0 9.01134e-29 0 1.8471e-28 0 3.58787e-28 0 6.70775e-28 0 1.20909e-27 0
14.3051 6.69623e-07 2.77847e-07 3.91776e-07 0.585069 6.74396e-07 0 0 9.80909e-45 0 1.36524e-39 0 7.20629e-37 0 4.87477e-35 0 1.11589e-33 0 1.32962e-32 0 1.00743e-31 0 5.67335e-31 0 2.49236e-30 0 9.16212e-30 0 2.9052e-29 0 8.15634e-29 0 2.13298e-28 0 5.0108e-28 0 1.10809e-27 0 2.31462e-27 0 4.58102e-27 0 8.61448e-27 0 1.56208e-26 0 2.73584e-26 0
15.0394 6.63608e-07 2.84027e-07 3.79581e-07 0.571996 2.84373e-07 0 0 1.58627e-42 0 1.16812e-37 0 4.54013e-35 0 2.50007e-33 0 4.91173e-32 0 5.1856e-31 0 3.55917e-30 0 1.84215e-29 0 7.52858e-29 0 2.59713e-28 0 7.78402e-28 0 2.07795e-27 0 5.18493e-27 0 1.1683e-26 0 2.48537e-26 0 5.00816e-26 0 9.58706e-26 0 1.74808e-25 0 3.07904e-25 0 5.24711e-25 0
