# 1.70392e-07 0 15 : grain size, compostion index, size index
# This grain was stochastically heated: Yes
# Heating and cooling timescale: 164086 80.8693
# Ratio of heating to cooling to determine stochastic cutoff: 100
# Equilibrium emission is recorded even for those grains in the stochastic regime.
# Emission spectrum was computed for: 
# Type: IRSF
# Scale: 1
# Temperature: -1
# Wavelength  CExt  CAbs  CSca  Albedo G EqEmission StEmission
0.05 2.06325e-14 2.05561e-14 7.64372e-17 0.0037047 0.00641664 0 0
0.0525665 2.38964e-14 2.38143e-14 8.20844e-17 0.00343501 0.00571449 0 0
0.0552647 2.75841e-14 2.74961e-14 8.80698e-17 0.00319277 0.00508682 0 0
0.0581015 3.27239e-14 3.26308e-14 9.30389e-17 0.00284315 0.00452508 0 0
0.0610839 4.59011e-14 4.5802e-14 9.91423e-17 0.00215991 0.00398421 0 0
0.0642193 5.79955e-14 5.78847e-14 1.1082e-16 0.00191084 0.00344591 0 0
0.0675157 6.93702e-14 6.92393e-14 1.30949e-16 0.00188768 0.00290255 0 0
0.0709813 7.96885e-14 7.95521e-14 1.36396e-16 0.00171161 0.00242914 0 2.13245e-314
0.0746248 7.44434e-14 7.43232e-14 1.20203e-16 0.00161469 0.00209025 0 1.4485e-299
0.0784553 5.84983e-14 5.84045e-14 9.38581e-17 0.00160446 0.00186471 0 1.52616e-285
0.0824824 4.64255e-14 4.63593e-14 6.61983e-17 0.0014259 0.00173916 0 3.2904e-272
0.0867162 3.88863e-14 3.88353e-14 5.09915e-17 0.0013113 0.00166658 0 1.63899e-259
0.0911674 3.39292e-14 3.38864e-14 4.28006e-17 0.00126147 0.00161525 0 2.00625e-247
0.095847 3.03605e-14 3.03265e-14 3.40154e-17 0.00112038 0.00170041 0 6.37315e-236
0.100767 2.66455e-14 2.66223e-14 2.32112e-17 0.000871113 0.00198378 0 5.37758e-225
0.105939 2.32271e-14 2.3211e-14 1.60762e-17 0.000692129 0.0021424 0 1.30024e-214
0.111377 1.99296e-14 1.99198e-14 9.81939e-18 0.000492703 0.00245268 0 9.48864e-205
0.117094 1.68901e-14 1.68839e-14 6.113e-18 0.000361929 0.00225093 0 2.22209e-195
0.123105 1.41967e-14 1.41928e-14 3.97929e-18 0.000280296 0.00193199 0 1.77162e-186
0.129424 1.19414e-14 1.19389e-14 2.55779e-18 0.000214194 0.00162502 0 5.11241e-178
0.136067 1.08291e-14 1.08275e-14 1.65621e-18 0.00015294 0.00137504 0 6.04732e-170
0.143051 9.82832e-15 9.82723e-15 1.0874e-18 0.000110639 0.00117308 0 2.85362e-162
0.150394 9.28377e-15 9.28303e-15 7.40506e-19 7.97635e-05 0.00100149 0 5.84403e-155
0.158114 9.17594e-15 9.17538e-15 5.5976e-19 6.1003e-05 0.00085771 0 5.45088e-148
0.16623 9.54042e-15 9.5399e-15 5.1675e-19 5.41643e-05 0.000737434 0 2.42469e-141
0.174762 1.04523e-14 1.04517e-14 6.22176e-19 5.9525e-05 0.000634149 0 5.35669e-135
0.183733 1.20769e-14 1.2076e-14 8.87895e-19 7.35203e-05 0.000540165 0 6.10366e-129
0.193164 1.49494e-14 1.49479e-14 1.41019e-18 9.4331e-05 0.000449535 0 3.77413e-123
0.203079 1.95813e-14 1.95791e-14 2.15407e-18 0.000110007 0.000360483 0 1.29336e-117
0.213503 2.41224e-14 2.41198e-14 2.64801e-18 0.000109774 0.000277237 0 2.25392e-112
0.224463 2.31651e-14 2.31629e-14 2.20287e-18 9.50942e-05 0.000205285 0 1.70638e-107
0.235984 1.79003e-14 1.78988e-14 1.49428e-18 8.34783e-05 0.000146545 0 5.96235e-103
0.248097 1.35197e-14 1.35187e-14 9.66709e-19 7.15039e-05 0.000112207 0 1.20044e-98
0.260832 1.08202e-14 1.08195e-14 6.63591e-19 6.1329e-05 0.00011659 0 1.54967e-94
0.274221 9.20387e-15 9.20339e-15 4.78466e-19 5.19853e-05 0.000155755 0 1.31883e-90
0.288297 8.19502e-15 8.19467e-15 3.56535e-19 4.35063e-05 0.000209044 0 7.4616e-87
0.303095 7.42574e-15 7.42547e-15 2.74695e-19 3.69923e-05 0.000234489 0 2.79046e-83
0.318653 6.49169e-15 6.49148e-15 2.13867e-19 3.29448e-05 0.000244748 0 6.68069e-80
0.335009 5.70457e-15 5.7044e-15 1.68435e-19 2.95263e-05 0.000240738 0 1.0887e-76
0.352205 4.98014e-15 4.98e-15 1.34292e-19 2.69655e-05 0.000228465 0 1.21689e-73
0.370284 4.31702e-15 4.31692e-15 1.08019e-19 2.50217e-05 0.000213612 0 9.49711e-71
0.389291 3.71432e-15 3.71423e-15 8.7556e-20 2.35726e-05 0.00019917 0 5.26452e-68
0.409273 3.17195e-15 3.17188e-15 7.11817e-20 2.2441e-05 0.000185145 0 2.1075e-65
0.430281 2.68673e-15 2.68667e-15 5.79274e-20 2.15606e-05 0.000171819 0 6.18553e-63
0.452368 2.25596e-15 2.25591e-15 4.71344e-20 2.08933e-05 0.00015805 3.55752e-293 1.35043e-60
0.475588 1.87705e-15 1.87701e-15 3.83779e-20 2.04459e-05 0.000144862 5.57433e-279 2.22373e-58
0.5 1.54756e-15 1.54753e-15 3.13308e-20 2.02453e-05 0.000132207 1.71786e-265 2.79947e-56
0.525665 1.26285e-15 1.26283e-15 2.5605e-20 2.02755e-05 0.000120241 1.12553e-252 2.72623e-54
0.552647 1.01926e-15 1.01924e-15 2.09336e-20 2.0538e-05 0.000109341 1.68868e-240 2.0775e-52
0.581015 8.13381e-16 8.13363e-16 1.71979e-20 2.11437e-05 9.92096e-05 6.23027e-229 1.25291e-50
0.610839 6.41083e-16 6.41069e-16 1.41329e-20 2.20454e-05 9.00328e-05 6.04298e-218 6.03991e-49
0.642193 4.97864e-16 4.97853e-16 1.16123e-20 2.33242e-05 8.17075e-05 1.63975e-207 2.34634e-47
0.675157 3.79438e-16 3.79429e-16 9.55221e-21 2.51746e-05 7.41875e-05 1.31846e-197 7.38939e-46
0.709813 2.80927e-16 2.80919e-16 7.87087e-21 2.80175e-05 6.74423e-05 3.29679e-188 1.88545e-44
0.746248 1.93135e-16 1.93128e-16 6.48663e-21 3.3586e-05 6.14158e-05 2.59091e-179 3.76012e-43
0.784553 1.07696e-16 1.07691e-16 5.34419e-21 4.96229e-05 5.59427e-05 5.89229e-171 5.16523e-42
0.824824 6.06196e-17 6.06152e-17 4.40197e-21 7.26163e-05 5.10307e-05 5.07531e-163 6.13716e-41
0.867162 4.23796e-17 4.2376e-17 3.62722e-21 8.55888e-05 4.66111e-05 2.13729e-155 7.83333e-40
0.911674 2.38376e-17 2.38346e-17 2.98724e-21 0.000125316 4.26129e-05 2.98301e-148 7.0292e-39
0.95847 7.27813e-18 7.27567e-18 2.45813e-21 0.000337742 3.90295e-05 9.72052e-142 3.02774e-38
1.00767 1.95771e-18 1.95568e-18 2.02289e-21 0.00103329 3.57756e-05 1.25031e-135 1.03076e-37
1.05939 6.29777e-19 6.28113e-19 1.66401e-21 0.00264223 3.28241e-05 8.95813e-130 3.83018e-37
1.11377 2.32361e-19 2.30993e-19 1.36838e-21 0.00588901 3.01372e-05 3.55604e-124 1.51732e-36
1.17094 9.64025e-20 9.52777e-20 1.12479e-21 0.0116676 2.76289e-05 7.93741e-119 6.3813e-36
1.23105 4.62629e-20 4.5338e-20 9.24982e-22 0.019994 2.53325e-05 1.05986e-113 2.95676e-35
1.29424 2.65557e-20 2.57948e-20 7.60913e-22 0.0286535 2.322e-05 9.05951e-109 1.56227e-34
1.36067 1.89604e-20 1.83348e-20 6.25582e-22 0.0329942 2.12957e-05 5.34038e-104 9.74704e-34
1.43051 1.64968e-20 1.59827e-20 5.14082e-22 0.0311625 1.95426e-05 2.19389e-99 6.96774e-33
1.50394 1.6335e-20 1.59124e-20 4.22608e-22 0.0258713 1.79221e-05 6.01311e-95 5.26275e-32
1.58114 1.72824e-20 1.6935e-20 3.47417e-22 0.0201023 1.64114e-05 1.05649e-90 3.90572e-31
1.6623 1.88714e-20 1.85858e-20 2.85632e-22 0.0151357 1.501e-05 1.17691e-86 2.73913e-30
1.74762 2.09252e-20 2.06904e-20 2.34862e-22 0.0112238 1.37474e-05 8.37342e-83 1.78473e-29
1.83733 2.34009e-20 2.32078e-20 1.93095e-22 0.00825159 1.25932e-05 3.86561e-79 1.07442e-28
1.93164 2.63303e-20 2.61716e-20 1.58695e-22 0.00602706 1.15335e-05 1.18057e-75 5.97642e-28
2.03079 2.98037e-20 2.96733e-20 1.30393e-22 0.00437507 1.05502e-05 2.43446e-72 3.08039e-27
2.13503 3.39862e-20 3.38789e-20 1.07223e-22 0.00315489 9.65071e-06 3.46173e-69 1.47817e-26
2.24463 3.91285e-20 3.90404e-20 8.81289e-23 0.00225229 8.83104e-06 3.4654e-66 6.64054e-26
2.35984 4.56672e-20 4.55948e-20 7.24081e-23 0.00158556 8.07545e-06 2.49595e-63 2.81365e-25
2.48097 5.44267e-20 5.43672e-20 5.94812e-23 0.00109287 7.37754e-06 1.325e-60 1.13644e-24
2.60832 6.72008e-20 6.71519e-20 4.89032e-23 0.000727717 6.73363e-06 5.34401e-58 4.45336e-24
2.74221 8.82738e-20 8.82336e-20 4.01927e-23 0.000455318 6.1476e-06 1.70738e-55 1.74418e-23
2.88297 1.30946e-19 1.30913e-19 3.30082e-23 0.000252076 5.6173e-06 4.65338e-53 7.26887e-23
3.03095 2.58629e-19 2.58602e-19 2.71126e-23 0.000104832 5.13571e-06 1.29318e-50 3.81143e-22
3.18653 1.32536e-18 1.32534e-18 2.22739e-23 1.68058e-05 4.68889e-06 7.23434e-48 4.91349e-21
3.35009 7.15047e-18 7.15045e-18 1.82926e-23 2.55824e-06 4.27806e-06 3.3469e-45 6.33559e-20
3.52205 4.23092e-19 4.23077e-19 1.50158e-23 3.54906e-05 3.90422e-06 1.3498e-44 8.53387e-21
3.70284 2.06136e-19 2.06123e-19 1.23314e-23 5.98216e-05 3.56245e-06 3.60319e-43 9.0378e-21
3.89291 1.64212e-19 1.64202e-19 1.01232e-23 6.16471e-05 3.24694e-06 1.27777e-41 1.49785e-20
4.09273 1.60122e-19 1.60113e-19 8.30922e-24 5.18931e-05 2.94918e-06 4.55222e-40 2.91462e-20
4.30281 1.72072e-19 1.72065e-19 6.81892e-24 3.96284e-05 2.6799e-06 1.48116e-38 6.00822e-20
4.52368 1.96531e-19 1.96526e-19 5.59762e-24 2.84821e-05 2.43485e-06 4.28375e-37 1.26793e-19
4.75588 2.38454e-19 2.38449e-19 4.59328e-24 1.92628e-05 2.21027e-06 1.11036e-35 2.74319e-19
5 3.31025e-19 3.31022e-19 3.76804e-24 1.13829e-05 1.99539e-06 2.80131e-34 6.56561e-19
5.25665 9.10059e-19 9.10056e-19 3.09178e-24 3.39734e-06 1.80281e-06 1.2001e-32 3.01431e-18
5.52648 7.83973e-19 7.83971e-19 2.53672e-24 3.23572e-06 1.63038e-06 1.3917e-31 4.2072e-18
5.81015 1.33081e-18 1.3308e-18 2.07998e-24 1.56295e-06 1.47301e-06 2.76716e-30 1.12449e-17
6.10839 4.37227e-18 4.37227e-18 1.70503e-24 3.89963e-07 1.32556e-06 9.32838e-29 5.66147e-17
6.42193 2.91838e-18 2.91838e-18 1.39765e-24 4.78913e-07 1.20467e-06 5.6332e-28 5.64426e-17
6.75157 2.39861e-18 2.39861e-18 1.14586e-24 4.77717e-07 1.07564e-06 3.71591e-27 6.76267e-17
7.09813 2.69507e-18 2.69507e-18 9.3889e-25 3.48373e-07 9.63107e-07 2.99029e-26 1.08252e-16
7.46248 6.18872e-18 6.18872e-18 7.69075e-25 1.2427e-07 8.59431e-07 4.41284e-25 3.46507e-16
7.84553 7.74919e-18 7.74919e-18 6.30207e-25 8.13255e-08 7.59723e-07 3.20333e-24 5.92442e-16
8.24824 3.13455e-18 3.13455e-18 5.16241e-25 1.64694e-07 6.66912e-07 6.81033e-24 3.20875e-16
8.67162 3.35925e-18 3.35925e-18 4.22602e-25 1.25803e-07 5.85921e-07 3.49461e-23 4.51962e-16
9.11674 1.26325e-18 1.26325e-18 3.45947e-25 2.73854e-07 5.14505e-07 5.75823e-23 2.19472e-16
9.5847 1.05059e-18 1.05059e-18 2.83081e-25 2.69449e-07 4.49448e-07 1.92863e-22 2.31772e-16
10.0767 1.1184e-18 1.1184e-18 2.31538e-25 2.07025e-07 3.88729e-07 7.63084e-22 3.08333e-16
10.5939 1.53714e-18 1.53714e-18 1.89238e-25 1.2311e-07 3.30581e-07 3.61169e-21 5.21572e-16
11.1377 7.86121e-18 7.86121e-18 1.54547e-25 1.96595e-08 2.77215e-07 5.91535e-20 3.23562e-15
11.7094 4.12807e-18 4.12807e-18 1.27394e-25 3.08603e-08 2.30024e-07 9.28415e-20 2.03261e-15
12.3105 4.25012e-18 4.25012e-18 1.03584e-25 2.43721e-08 1.79474e-07 2.67536e-19 2.47051e-15
12.9424 3.47056e-18 3.47056e-18 8.45817e-26 2.43712e-08 1.30938e-07 5.74423e-19 2.35153e-15
13.6067 2.61269e-18 2.61269e-18 6.90671e-26 2.64352e-08 8.99673e-08 1.07144e-18 2.03855e-15
14.3051 1.99974e-18 1.99974e-18 5.63532e-26 2.81803e-08 5.4605e-08 1.92023e-18 1.77596e-15
15.0394 1.63399e-18 1.63399e-18 4.59527e-26 2.8123e-08 2.43335e-08 3.48163e-18 1.63337e-15
15.8114 1.68326e-18 1.68326e-18 3.74707e-26 2.22608e-08 -5.95915e-09 7.56186e-18 1.87375e-15
16.623 2.34802e-18 2.34802e-18 3.05487e-26 1.30104e-08 -3.71065e-08 2.11838e-17 2.88092e-15
17.4762 2.01177e-18 2.01177e-18 2.48924e-26 1.23734e-08 -6.55537e-08 3.48023e-17 2.69401e-15
18.3733 1.31999e-18 1.31999e-18 2.02725e-26 1.53581e-08 -9.24104e-08 4.19007e-17 1.91111e-15
19.3164 1.10656e-18 1.10656e-18 1.65312e-26 1.49393e-08 -1.19995e-07 6.1811e-17 1.71656e-15
20.3079 9.44314e-19 9.44314e-19 1.3489e-26 1.42845e-08 -1.5184e-07 8.91991e-17 1.55599e-15
21.3503 8.15801e-19 8.15801e-19 1.10184e-26 1.35063e-08 -1.76428e-07 1.25468e-16 1.41606e-15
22.4463 7.0757e-19 7.0757e-19 9.02945e-27 1.27612e-08 -1.93955e-07 1.70915e-16 1.2836e-15
23.5984 6.14744e-19 6.14744e-19 7.44374e-27 1.21087e-08 -2.10859e-07 2.25366e-16 1.15671e-15
24.8097 5.3475e-19 5.3475e-19 6.18951e-27 1.15746e-08 -2.33809e-07 2.87988e-16 1.03611e-15
26.0832 4.6589e-19 4.6589e-19 5.21324e-27 1.11898e-08 -2.50042e-07 3.57335e-16 9.23134e-16
27.4221 4.06805e-19 4.06805e-19 4.45165e-27 1.0943e-08 -2.58311e-07 4.31464e-16 8.18904e-16
28.8297 3.56013e-19 3.56013e-19 3.86537e-27 1.08574e-08 -2.65781e-07 5.07703e-16 7.23518e-16
30.3095 3.1224e-19 3.1224e-19 3.39772e-27 1.08817e-08 -2.66536e-07 5.8296e-16 6.36815e-16
31.8653 2.74453e-19 2.74453e-19 2.98529e-27 1.08772e-08 -2.64411e-07 6.54047e-16 5.58549e-16
33.5009 2.41873e-19 2.41873e-19 2.61843e-27 1.08256e-08 -2.58565e-07 7.18195e-16 4.88537e-16
35.2206 2.13597e-19 2.13597e-19 2.2424e-27 1.04983e-08 -2.46303e-07 7.72331e-16 4.25974e-16
37.0284 1.88993e-19 1.88993e-19 1.89677e-27 1.00362e-08 -2.30013e-07 8.1421e-16 3.70326e-16
38.9291 1.67552e-19 1.67552e-19 1.5757e-27 9.40428e-09 -2.10508e-07 8.42405e-16 3.21082e-16
40.9273 1.48835e-19 1.48835e-19 1.29636e-27 8.71005e-09 -1.85889e-07 8.56251e-16 2.77699e-16
43.0282 1.32413e-19 1.32413e-19 1.05759e-27 7.9871e-09 -1.63671e-07 8.55494e-16 2.39535e-16
45.2368 1.1797e-19 1.1797e-19 8.59905e-28 7.28917e-09 -1.33115e-07 8.40866e-16 2.0608e-16
47.5588 1.05268e-19 1.05268e-19 6.97428e-28 6.62529e-09 -7.35434e-08 8.13923e-16 1.76897e-16
50 9.40544e-20 9.40544e-20 5.65748e-28 6.01512e-09 -2.60797e-08 7.76316e-16 1.51489e-16
52.5665 8.41248e-20 8.41248e-20 4.58655e-28 5.45208e-09 2.83228e-08 7.30047e-16 1.29415e-16
55.2648 7.53176e-20 7.53176e-20 3.71908e-28 4.93787e-09 6.90328e-08 6.7737e-16 1.10298e-16
58.1015 6.75148e-20 6.75148e-20 3.01984e-28 4.47286e-09 1.16531e-07 6.2072e-16 9.38183e-17
61.0839 6.05675e-20 6.05675e-20 2.45304e-28 4.0501e-09 1.54961e-07 5.61931e-16 7.96176e-17
64.2193 5.43734e-20 5.43734e-20 1.99345e-28 3.66622e-09 1.79921e-07 5.02869e-16 6.74135e-17
67.5157 4.88502e-20 4.88502e-20 1.62122e-28 3.31877e-09 2.00791e-07 4.45171e-16 5.69604e-17
70.9813 4.39221e-20 4.39221e-20 1.3198e-28 3.00486e-09 2.04684e-07 3.90104e-16 4.80319e-17
74.6248 3.95111e-20 3.95111e-20 1.07471e-28 2.72002e-09 2.09953e-07 3.38503e-16 4.0414e-17
78.4553 3.55591e-20 3.55591e-20 8.75331e-29 2.46162e-09 2.23824e-07 2.91005e-16 3.39299e-17
82.4824 3.20228e-20 3.20228e-20 7.13581e-29 2.22835e-09 1.94402e-07 2.48038e-16 2.84309e-17
86.7162 2.88511e-20 2.88511e-20 5.8195e-29 2.01708e-09 1.97559e-07 2.09684e-16 2.37732e-17
91.1674 2.60017e-20 2.60017e-20 4.74645e-29 1.82544e-09 1.58339e-07 1.75873e-16 1.9835e-17
95.847 2.34406e-20 2.34406e-20 3.87169e-29 1.6517e-09 1.32928e-07 1.46429e-16 1.6513e-17
100.767 2.11433e-20 2.11433e-20 3.16099e-29 1.49503e-09 1.57854e-07 1.21101e-16 1.3721e-17
105.939 1.90752e-20 1.90752e-20 2.58052e-29 1.35281e-09 1.17263e-07 9.94979e-17 1.13754e-17
111.377 1.72125e-20 1.72125e-20 2.10636e-29 1.22374e-09 9.08261e-08 8.12425e-17 9.40918e-18
117.094 1.55362e-20 1.55362e-20 1.72007e-29 1.10714e-09 1.04057e-07 6.59595e-17 7.76592e-18
123.105 1.40277e-20 1.40277e-20 1.40576e-29 1.00213e-09 6.49297e-08 5.32681e-17 6.39579e-18
129.424 1.2667e-20 1.2667e-20 1.14989e-29 9.07785e-10 4.59548e-08 4.27968e-17 5.2548e-18
136.067 1.14395e-20 1.14395e-20 9.41358e-30 8.229e-10 -3.20193e-08 3.42174e-17 4.3069e-18
143.051 1.03341e-20 1.03341e-20 7.7175e-30 7.46797e-10 -2.03783e-08 2.72396e-17 3.52211e-18
150.394 9.33695e-21 9.33695e-21 6.32522e-30 6.7744e-10 5.60187e-08 2.15936e-17 2.87334e-18
158.114 8.43636e-21 8.43636e-21 5.17647e-30 6.13591e-10 4.94681e-08 1.70488e-17 2.33811e-18
166.23 7.62314e-21 7.62314e-21 4.23364e-30 5.55367e-10 7.74766e-08 1.34099e-17 1.89772e-18
174.763 6.89043e-21 6.89043e-21 3.46395e-30 5.0272e-10 -1.33064e-08 1.05132e-17 1.5367e-18
183.733 6.22824e-21 6.22824e-21 2.83283e-30 4.54836e-10 -6.29071e-08 8.21455e-18 1.24108e-18
193.164 5.62973e-21 5.62973e-21 2.31614e-30 4.11413e-10 -8.52293e-08 6.39831e-18 9.99672e-19
203.079 5.08938e-21 5.08938e-21 1.8941e-30 3.72166e-10 -4.58261e-08 4.9695e-18 8.03167e-19
213.503 4.60166e-21 4.60166e-21 1.54956e-30 3.3674e-10 -2.58751e-08 3.8497e-18 6.43671e-19
224.463 4.16062e-21 4.16062e-21 1.26745e-30 3.04629e-10 -5.86156e-08 2.97441e-18 5.14463e-19
235.984 3.76176e-21 3.76176e-21 1.03647e-30 2.75529e-10 -1.13523e-07 2.29246e-18 4.10089e-19
248.097 3.40183e-21 3.40183e-21 8.48056e-31 2.49294e-10 -4.43065e-08 1.76316e-18 3.2609e-19
260.832 3.07645e-21 3.07645e-21 6.93931e-31 2.25562e-10 3.26099e-08 1.3532e-18 2.58627e-19
274.221 2.78209e-21 2.78209e-21 5.67684e-31 2.04049e-10 -7.73377e-09 1.03642e-18 2.04581e-19
288.297 2.51587e-21 2.51587e-21 4.64345e-31 1.84567e-10 6.45632e-08 7.92272e-19 1.61413e-19
303.095 2.27563e-21 2.27563e-21 3.80072e-31 1.67018e-10 2.30886e-07 6.04693e-19 1.27061e-19
318.653 2.05823e-21 2.05823e-21 3.11023e-31 1.51112e-10 -2.6951e-07 4.60728e-19 9.97681e-20
335.009 1.86151e-21 1.86151e-21 2.54455e-31 1.36693e-10 -1.57375e-07 3.50466e-19 7.81438e-20
352.206 1.68372e-21 1.68372e-21 2.08218e-31 1.23666e-10 -5.62921e-07 2.66213e-19 6.10657e-20
370.284 1.52308e-21 1.52308e-21 1.70436e-31 1.11903e-10 2.72632e-07 2.01956e-19 4.76153e-20
389.291 1.37768e-21 1.37768e-21 1.39475e-31 1.01239e-10 -2.42306e-07 1.52997e-19 3.70417e-20
409.273 1.24609e-21 1.24609e-21 1.1411e-31 9.15747e-11 1.48212e-08 1.15757e-19 2.87516e-20
430.282 1.12725e-21 1.12725e-21 9.34073e-32 8.28628e-11 3.57699e-07 8.74924e-20 2.22732e-20
452.368 1.01975e-21 1.01975e-21 7.64568e-32 7.49762e-11 -1.71737e-07 6.60566e-20 1.72192e-20
475.588 9.22439e-22 9.22439e-22 6.25666e-32 6.78274e-11 -4.40659e-07 4.98178e-20 1.32849e-20
500 8.3439e-22 8.3439e-22 5.11931e-32 6.13539e-11 5.32174e-07 3.7533e-20 1.02296e-20
525.665 7.54889e-22 7.54889e-22 4.19132e-32 5.55223e-11 -2.06015e-07 2.82569e-20 7.86404e-21
552.648 6.82914e-22 6.82914e-22 3.43062e-32 5.02351e-11 4.41906e-07 2.12531e-20 6.03436e-21
581.015 6.17758e-22 6.17758e-22 2.80726e-32 4.54426e-11 -6.53753e-07 1.59711e-20 4.62223e-21
610.838 5.58856e-22 5.58856e-22 2.29763e-32 4.1113e-11 -6.05817e-07 1.19933e-20 3.53504e-21
642.193 5.05614e-22 5.05614e-22 1.88099e-32 3.72021e-11 -8.79209e-07 9.00037e-21 2.69958e-21
675.157 4.57409e-22 4.57409e-22 1.53949e-32 3.36568e-11 -1.04857e-08 6.7491e-21 2.05833e-21
709.813 4.1377e-22 4.1377e-22 1.25969e-32 3.04442e-11 1.41292e-06 5.05729e-21 1.56706e-21
746.247 3.74356e-22 3.74356e-22 1.03129e-32 2.75482e-11 -1.19175e-07 3.78785e-21 1.19162e-21
784.553 3.3869e-22 3.3869e-22 8.4423e-33 2.49263e-11 4.96673e-07 2.83532e-21 9.0492e-22
824.824 3.06398e-22 3.06398e-22 6.90918e-33 2.25497e-11 -2.57515e-07 2.12099e-21 6.86299e-22
867.162 2.77177e-22 2.77177e-22 5.65385e-33 2.0398e-11 -9.22462e-07 1.58576e-21 5.19865e-22
911.674 2.50786e-22 2.50786e-22 4.62925e-33 1.84589e-11 2.24381e-06 1.18521e-21 3.93418e-22
958.471 2.2689e-22 2.2689e-22 3.78925e-33 1.67008e-11 -2.8566e-06 8.85345e-22 2.97382e-22
1007.67 2.05256e-22 2.05256e-22 3.10086e-33 1.51073e-11 1.91336e-06 6.61009e-22 2.24543e-22
1059.39 1.85697e-22 1.85697e-22 2.53817e-33 1.36683e-11 9.67494e-07 4.93343e-22 1.69392e-22
1113.77 1.68014e-22 1.68014e-22 2.07803e-33 1.23682e-11 -3.01148e-06 3.68085e-22 1.27678e-22
1170.94 1.52002e-22 1.52002e-22 1.7008e-33 1.11893e-11 -2.58375e-07 2.74503e-22 9.61433e-23
1231.05 1.37506e-22 1.37506e-22 1.39176e-33 1.01215e-11 5.0939e-06 2.04625e-22 7.23313e-23
1294.24 1.24414e-22 1.24414e-22 1.13948e-33 9.15878e-12 -2.14778e-06 1.5251e-22 5.43832e-23
1360.67 1.12564e-22 1.12564e-22 9.32808e-34 8.28694e-12 3.8782e-06 1.13628e-22 4.08563e-23
1430.51 1.01835e-22 1.01835e-22 7.63421e-34 7.49666e-12 -1.2177e-06 8.46257e-23 3.06696e-23
1503.94 9.21252e-23 9.21252e-23 6.24745e-34 6.78148e-12 3.47656e-06 6.30061e-23 2.30063e-23
1581.14 8.33561e-23 8.33561e-23 5.11546e-34 6.13687e-12 3.86656e-06 4.69051e-23 1.72497e-23
1662.3 7.54154e-23 7.54154e-23 4.18733e-34 5.55236e-12 -3.62649e-06 3.49067e-23 1.29244e-23
1747.63 6.82255e-23 6.82255e-23 3.42668e-34 5.02258e-12 3.24786e-06 2.59689e-23 9.67723e-24
1837.33 6.17257e-23 6.17257e-23 2.80489e-34 4.54412e-12 -7.37007e-06 1.93166e-23 7.24243e-24
1931.64 5.58487e-23 5.58487e-23 2.29645e-34 4.11191e-12 -2.7239e-06 1.43662e-23 5.41772e-24
2030.79 5.05272e-23 5.05272e-23 1.87964e-34 3.72006e-12 6.36472e-06 1.06813e-23 4.05039e-24
2135.03 4.5709e-23 4.5709e-23 1.53808e-34 3.36493e-12 1.05881e-05 7.93936e-24 3.02645e-24
2244.63 4.13574e-23 4.13574e-23 1.25931e-34 3.04493e-12 -2.15853e-06 5.9012e-24 2.26075e-24
2359.84 3.74188e-23 3.74188e-23 1.03094e-34 2.75515e-12 1.14534e-05 4.38533e-24 1.68798e-24
2480.97 3.38524e-23 3.38524e-23 8.43734e-35 2.49239e-12 2.07682e-06 3.25801e-24 1.25971e-24
2608.32 3.06254e-23 3.06254e-23 6.90487e-35 2.25462e-12 -7.38854e-07 2.42006e-24 9.39722e-25
