# 0.000137403 0 79 : grain size, compostion index, size index
# Heating and cooling timescale: 0.000112681 2.51418e+07
# Ratio of heating to cooling to determine stochastic cutoff: 100
# Equilibrium emission is recorded even for those grains in the stochastic regime.
# Emission spectrum was computed for: 
# Type: ISRF
# Scales: 0.25 0.5 1 1.5 2 2.5 3 3.5 4 4.5 5 5.5 6 6.5 7 7.5 8 8.5 9 9.5 10
# StochasticallyHeated: 0 0 0 0 0 0 0 0 0 0 0 0 0 0 0 0 0 0 0 0 0
# Temperature: -1
# Wavelength  CExt  CAbs  CSca  Albedo G EqEm1 StEm1 EqEm2 StEm2 EqEm3 StEm3 EqEm4 StEm4 EqEm5 StEm5 EqEm6 StEm6 EqEm7 StEm7 EqEm8 StEm8 EqEm9 StEm9 EqEm10 StEm10 EqEm11 StEm11 EqEm12 StEm12 EqEm13 StEm13 EqEm14 StEm14 EqEm15 StEm15 EqEm16 StEm16 EqEm17 StEm17 EqEm18 StEm18 EqEm19 StEm19 EqEm20 StEm20 EqEm21 StEm21
0.05 1.1961e-07 5.65084e-08 6.3102e-08 0.527562 0.989393 0 0 0 0 0 0 0 0 0 0 0 0 0 0 0 0 0 0 0 0 0 0 0 0 0 0 0 0 0 0 0 0 0 0 0 0 0 0 0 0 0 0
0.0525665 1.20135e-07 5.55374e-08 6.45974e-08 0.537708 0.982762 0 0 0 0 0 0 0 0 0 0 0 0 0 0 0 0 0 0 0 0 0 0 0 0 0 0 0 0 0 0 0 0 0 0 0 0 0 0 0 0 0 0
0.0552647 1.20443e-07 5.53436e-08 6.50991e-08 0.540499 0.979159 0 0 0 0 0 0 0 0 0 0 0 0 0 0 0 0 0 0 0 0 0 0 0 0 0 0 0 0 0 0 0 0 0 0 0 0 0 0 0 0 0 0
0.0581015 1.20682e-07 5.53184e-08 6.53635e-08 0.541618 0.976649 0 0 0 0 0 0 0 0 0 0 0 0 0 0 0 0 0 0 0 0 0 0 0 0 0 0 0 0 0 0 0 0 0 0 0 0 0 0 0 0 0 0
0.0610839 1.20882e-07 5.53527e-08 6.55295e-08 0.542094 0.974765 0 0 0 0 0 0 0 0 0 0 0 0 0 0 0 0 0 0 0 0 0 0 0 0 0 0 0 0 0 0 0 0 0 0 0 0 0 0 0 0 0 0
0.0642193 1.21061e-07 5.53831e-08 6.56781e-08 0.54252 0.973107 0 0 0 0 0 0 0 0 0 0 0 0 0 0 0 0 0 0 0 0 0 0 0 0 0 0 0 0 0 0 0 0 0 0 0 0 0 0 0 0 0 0
0.0675157 1.21231e-07 5.53749e-08 6.58557e-08 0.543227 0.971365 0 0 0 0 0 0 0 0 0 0 0 0 0 0 0 0 0 0 0 0 0 0 0 0 0 0 0 0 0 0 0 0 0 0 0 0 0 0 0 0 0 0
0.0709813 1.21403e-07 5.53283e-08 6.60747e-08 0.54426 0.969373 0 0 0 0 0 0 0 0 0 0 0 0 0 0 0 0 0 0 0 0 0 0 0 0 0 0 0 0 0 0 0 0 0 0 0 0 0 0 0 0 0 0
0.0746248 1.21587e-07 5.52619e-08 6.63246e-08 0.545493 0.967124 0 0 0 0 0 0 0 0 0 0 0 0 0 0 0 0 0 0 0 0 0 0 0 0 0 0 0 0 0 0 0 0 0 0 0 0 0 0 0 0 0 0
0.0784553 1.21779e-07 5.52005e-08 6.65782e-08 0.546715 0.964778 0 0 0 0 0 0 0 0 0 0 0 0 0 0 0 0 0 0 0 0 0 0 0 0 0 0 0 0 0 0 0 0 0 0 0 0 0 0 0 0 0 0
0.0824824 1.21978e-07 5.51495e-08 6.68282e-08 0.547873 0.962391 0 0 0 0 0 0 0 0 0 0 0 0 0 0 0 0 0 0 0 0 0 0 0 0 0 0 0 0 0 0 0 0 0 0 0 0 0 0 0 0 0 0
0.0867162 1.22184e-07 5.51055e-08 6.70782e-08 0.548995 0.959956 0 0 0 0 0 0 0 0 0 0 0 0 0 0 0 0 0 0 0 0 0 0 0 0 0 0 0 0 0 0 0 0 0 0 0 0 0 0 0 0 0 0
0.0911674 1.22398e-07 5.50687e-08 6.73295e-08 0.550086 0.957459 0 0 0 0 0 0 0 0 0 0 0 0 0 0 0 0 0 0 0 0 0 0 0 0 0 0 0 0 0 0 0 0 0 0 0 0 0 0 0 0 0 0
0.095847 1.22623e-07 5.50425e-08 6.75805e-08 0.551124 0.954909 0 0 0 0 0 0 0 0 0 0 0 0 0 0 0 0 0 0 0 0 0 0 0 0 0 0 0 0 0 0 0 0 0 0 0 0 0 0 0 0 0 0
0.100767 1.22859e-07 5.50352e-08 6.78242e-08 0.552047 0.952363 0 0 0 0 0 0 0 0 0 0 0 0 0 0 0 0 0 0 0 0 0 0 0 0 0 0 0 0 0 0 0 0 0 0 0 0 0 0 0 0 0 0
0.105939 1.2311e-07 5.50783e-08 6.80321e-08 0.552611 0.95002 0 0 0 0 0 0 0 0 0 0 0 0 0 0 0 0 0 0 0 0 0 0 0 0 0 0 0 0 0 0 0 0 0 0 0 0 0 0 0 0 0 0
0.111377 1.23359e-07 5.51868e-08 6.81727e-08 0.552635 0.948245 0 0 0 0 0 0 0 0 0 0 0 0 0 0 0 0 0 0 0 0 0 0 0 0 0 0 0 0 0 0 0 0 0 0 0 0 0 0 0 0 0 0
0.117094 1.23594e-07 5.53325e-08 6.82618e-08 0.552306 0.947004 0 0 0 0 0 0 0 0 0 0 0 0 0 0 0 0 0 0 0 0 0 0 0 0 0 0 0 0 0 0 0 0 0 0 0 0 0 0 0 0 0 0
0.123105 1.23836e-07 5.54537e-08 6.8382e-08 0.552199 0.945552 0 0 0 0 0 0 0 0 0 0 0 0 0 0 0 0 0 0 0 0 0 0 0 0 0 0 0 0 0 0 0 0 0 0 0 0 0 0 0 0 0 0
0.129424 1.24092e-07 5.5628e-08 6.84635e-08 0.551718 0.944388 0 0 0 0 0 0 0 0 0 0 0 0 0 0 0 0 0 0 0 0 0 0 0 0 0 0 0 0 0 0 0 0 0 0 0 0 0 0 0 0 0 0
0.136067 1.24321e-07 5.58992e-08 6.84214e-08 0.550363 0.944388 0 0 0 0 0 0 0 0 0 0 0 0 0 0 0 0 0 0 0 0 0 0 0 0 0 0 0 0 0 0 0 0 0 0 0 0 0 0 0 0 0 0
0.143051 1.24543e-07 5.61046e-08 6.84382e-08 0.549516 0.943987 0 0 0 0 0 0 0 0 0 0 0 0 0 0 0 0 0 0 0 0 0 0 0 0 0 0 0 0 0 0 0 0 0 0 0 0 0 0 0 0 0 0
0.150394 1.24789e-07 5.64569e-08 6.83323e-08 0.547582 0.944517 0 0 0 0 0 0 0 0 0 0 0 0 0 0 0 0 0 0 0 0 0 0 0 0 0 0 0 0 0 0 0 0 0 0 0 0 0 0 0 0 0 0
0.158114 1.24861e-07 5.70551e-08 6.78063e-08 0.543053 0.948884 0 0 0 0 0 0 0 0 0 0 0 0 0 0 0 0 0 0 0 0 0 0 0 0 0 0 0 0 0 0 0 0 0 0 0 0 0 0 0 0 0 0
0.16623 1.24808e-07 5.71295e-08 6.76785e-08 0.542261 0.950149 0 0 0 0 0 0 0 0 0 0 0 0 0 0 0 0 0 0 0 0 0 0 0 0 0 0 0 0 0 0 0 0 0 0 0 0 0 0 0 0 0 0
0.174762 1.24882e-07 5.67439e-08 6.8138e-08 0.545619 0.94666 0 0 0 0 0 0 0 0 0 0 0 0 0 0 0 0 0 0 0 0 0 0 0 0 0 0 0 0 0 0 0 0 0 0 0 0 0 0 0 0 0 0
0.183733 1.25084e-07 5.61648e-08 6.89191e-08 0.550983 0.940542 0 0 0 0 0 0 0 0 0 0 0 0 0 0 0 0 0 0 0 0 0 0 0 0 0 0 0 0 0 0 0 0 0 0 0 0 0 0 0 0 0 0
0.193164 1.25435e-07 5.53363e-08 7.00986e-08 0.558844 0.930998 0 0 0 0 0 0 0 0 0 0 0 0 0 0 0 0 0 0 0 0 0 0 0 0 0 0 0 0 0 0 0 0 0 0 0 0 0 0 0 0 0 0
0.203079 1.25979e-07 5.45906e-08 7.1388e-08 0.566668 0.919744 0 0 0 0 0 0 0 0 0 0 0 0 0 0 0 0 0 0 0 0 0 0 0 0 0 0 0 0 0 0 0 0 0 0 0 0 0 0 0 0 0 0
0.213503 1.26528e-07 5.41152e-08 7.24125e-08 0.572306 0.910348 0 0 0 0 0 0 0 0 0 0 0 0 0 0 0 0 0 0 0 0 0 0 0 0 0 0 0 0 0 0 0 0 0 0 0 0 0 0 0 0 0 0
0.224463 1.27081e-07 5.37667e-08 7.33139e-08 0.576909 0.901899 0 0 0 0 0 0 0 0 0 0 0 0 0 0 0 0 0 0 0 0 0 0 0 0 0 0 0 0 0 0 0 0 0 0 0 0 0 0 0 0 0 0
0.235984 1.27644e-07 5.34193e-08 7.42251e-08 0.581499 0.89342 0 0 0 0 0 0 0 0 0 0 0 0 0 0 0 0 0 0 0 0 0 0 0 0 0 0 0 0 0 0 0 0 0 0 0 0 0 0 0 0 0 0
0.248097 1.28297e-07 5.30021e-08 7.52945e-08 0.586878 0.883448 0 0 0 0 0 0 0 0 0 0 0 0 0 0 0 0 0 0 0 0 0 0 0 0 0 0 0 0 0 0 0 0 0 0 0 0 0 0 0 0 0 0
0.260832 1.28985e-07 5.28072e-08 7.61777e-08 0.590594 0.874963 0 0 0 0 0 0 0 0 0 0 0 0 0 0 0 0 0 0 0 0 0 0 0 0 0 0 0 0 0 0 0 0 0 0 0 0 0 0 0 0 0 0
0.274221 1.29679e-07 5.27648e-08 7.69138e-08 0.593111 0.867805 0 0 0 0 0 0 0 0 0 0 0 0 0 0 0 0 0 0 0 0 0 0 0 0 0 0 0 0 0 0 0 0 0 0 0 0 0 0 0 0 0 0
0.288297 1.30353e-07 5.28221e-08 7.75307e-08 0.594776 0.861844 0 0 0 0 0 0 0 0 0 0 0 0 0 0 0 0 0 0 0 0 0 0 0 0 0 0 0 0 0 0 0 0 0 0 0 0 0 0 0 0 0 0
0.303095 1.31035e-07 5.29573e-08 7.80777e-08 0.595854 0.856525 0 0 0 0 0 0 0 0 0 0 0 0 0 0 0 0 0 0 0 0 0 0 0 0 0 0 0 0 0 0 0 0 0 0 0 0 0 0 0 0 0 0
0.318653 1.31706e-07 5.31441e-08 7.85614e-08 0.596493 0.851879 0 0 0 0 0 0 0 0 0 0 0 0 0 0 0 0 0 0 0 0 0 0 0 0 0 0 0 0 0 0 0 0 0 0 0 0 0 0 0 0 0 0
0.335009 1.32374e-07 5.33637e-08 7.90102e-08 0.596872 0.8476 0 0 0 0 0 0 0 0 0 0 0 0 0 0 0 0 0 0 0 0 0 0 0 0 0 0 0 0 0 0 0 0 0 0 0 0 0 0 0 0 0 0
0.352205 1.3304e-07 5.36137e-08 7.94266e-08 0.597012 0.843654 0 0 0 0 0 0 0 0 0 0 0 0 0 0 0 0 0 0 0 0 0 0 0 0 0 0 0 0 0 0 0 0 0 0 0 0 0 0 0 0 0 0
0.370284 1.3371e-07 5.38665e-08 7.98439e-08 0.59714 0.839757 0 0 0 0 0 0 0 0 0 0 0 0 0 0 0 0 0 0 0 0 0 0 0 0 0 0 0 0 0 0 0 0 0 0 0 0 0 0 0 0 0 0
0.389291 1.34382e-07 5.41293e-08 8.02526e-08 0.597198 0.835968 0 0 0 0 0 0 0 0 0 0 0 0 0 0 0 0 0 0 0 0 0 0 0 0 0 0 0 0 0 0 0 0 0 0 0 0 0 0 0 0 0 0
0.409273 1.3506e-07 5.43855e-08 8.06749e-08 0.597325 0.8321 0 0 0 0 0 0 0 0 0 0 0 0 0 0 0 0 0 0 0 0 0 0 0 0 0 0 0 0 0 0 0 0 0 0 0 0 0 0 0 0 0 0
0.430281 1.35745e-07 5.46407e-08 8.11041e-08 0.597475 0.828177 0 0 0 0 0 0 0 0 0 0 0 0 0 0 0 0 0 0 0 0 0 0 0 0 0 0 0 0 0 0 0 0 0 0 0 0 0 0 0 0 0 0
0.452368 1.36426e-07 5.49081e-08 8.15178e-08 0.597524 0.82434 0 0 0 0 0 0 0 0 0 0 0 0 0 0 0 0 0 0 0 0 0 0 0 0 0 0 0 0 0 0 0 0 0 0 0 0 0 0 0 0 0 0
0.475588 1.37104e-07 5.51762e-08 8.19278e-08 0.597559 0.8205 0 0 0 0 0 0 0 0 0 0 0 0 0 0 0 0 0 0 0 0 0 0 0 0 0 0 0 0 0 0 0 0 0 0 0 0 0 0 0 0 0 0
0.5 1.37761e-07 5.54707e-08 8.22899e-08 0.59734 0.816956 0 0 0 0 0 0 0 0 0 0 0 0 0 0 0 0 0 0 0 0 0 0 0 0 0 0 0 0 0 0 0 0 0 0 0 0 0 0 0 0 0 0
0.525665 1.38395e-07 5.57874e-08 8.26073e-08 0.596896 0.813711 0 0 0 0 0 0 0 0 0 0 0 0 0 0 0 0 0 0 0 0 0 0 0 0 0 0 0 0 0 0 0 0 0 0 0 0 0 0 0 0 0 0
0.552648 1.39008e-07 5.6124e-08 8.28841e-08 0.596254 0.81074 0 0 0 0 0 0 0 0 0 0 0 0 0 0 0 0 0 0 0 0 0 0 0 0 0 0 0 0 0 0 0 0 0 0 0 0 0 0 0 0 0 0
0.581015 1.39609e-07 5.64723e-08 8.31363e-08 0.595496 0.807929 0 0 0 0 0 0 0 0 0 0 0 0 0 0 0 0 0 0 0 0 0 0 0 0 0 0 0 0 0 0 0 0 0 0 0 0 0 0 0 0 0 0
0.610839 1.40203e-07 5.68214e-08 8.33812e-08 0.59472 0.805126 0 0 0 0 0 0 0 0 0 0 0 0 0 0 0 0 0 0 0 0 0 0 0 0 0 0 0 0 0 0 0 0 0 0 0 0 0 0 0 0 0 0
0.642193 1.40793e-07 5.71746e-08 8.36185e-08 0.59391 0.802344 0 0 0 0 0 0 0 0 0 0 0 0 0 0 0 0 0 0 0 0 0 0 0 0 0 0 0 0 0 0 0 0 0 0 0 0 0 0 0 0 0 0
0.675157 1.41385e-07 5.7527e-08 8.38575e-08 0.593117 0.799505 0 0 0 0 0 0 0 0 0 0 0 0 0 0 0 0 0 0 0 0 0 0 0 0 0 0 0 0 0 0 0 0 0 0 0 0 0 0 0 0 0 0
0.709813 1.41974e-07 5.7877e-08 8.40966e-08 0.59234 0.796579 0 0 0 0 0 0 0 0 0 0 0 0 0 0 0 0 0 0 0 0 0 0 0 0 0 0 0 0 0 0 0 0 0 0 0 0 0 0 0 0 0 0
0.746248 1.4256e-07 5.82336e-08 8.43265e-08 0.591516 0.793631 0 0 0 0 0 0 0 0 0 0 0 0 0 0 0 0 0 0 0 0 0 0 0 0 0 0 0 0 0 0 0 0 0 0 0 0 0 0 0 0 0 0
0.784553 1.43137e-07 5.85995e-08 8.45375e-08 0.590605 0.790689 0 0 0 0 0 0 0 0 0 0 0 0 0 0 0 0 0 0 0 0 0 0 0 0 0 0 0 0 0 0 0 0 0 0 0 0 0 0 0 0 0 0
0.824824 1.43696e-07 5.90083e-08 8.46872e-08 0.589352 0.788072 0 0 0 0 0 0 0 0 0 0 0 0 0 0 0 0 0 0 0 0 0 0 0 0 0 0 0 0 0 0 0 0 0 0 0 0 0 0 0 0 0 0
0.867162 1.44266e-07 5.94794e-08 8.47862e-08 0.587709 0.785844 0 0 0 0 0 0 0 0 0 0 0 0 0 0 0 0 0 0 0 0 0 0 0 0 0 0 0 0 0 0 0 0 0 0 0 0 0 0 0 0 0 0
0.911674 1.44863e-07 5.99724e-08 8.48906e-08 0.586006 0.783613 0 0 0 0 0 0 0 0 0 0 0 0 0 0 0 0 0 0 0 0 0 0 0 0 0 0 0 0 0 0 0 0 0 0 0 0 0 0 0 0 0 0
0.95847 1.45504e-07 6.04494e-08 8.50548e-08 0.584552 0.780921 0 0 0 0 0 0 0 0 0 0 0 0 0 0 0 0 0 0 0 0 0 0 0 0 0 0 0 0 0 0 0 0 0 0 0 0 0 0 0 0 0 0
1.00767 1.46155e-07 6.09018e-08 8.5253e-08 0.583306 0.777841 0 0 0 0 0 0 0 0 0 0 0 0 0 0 0 0 0 0 0 0 0 0 0 0 0 0 0 0 0 0 0 0 0 0 0 0 0 0 0 0 0 0
1.05939 1.46825e-07 6.13815e-08 8.54433e-08 0.581941 0.774684 0 0 0 0 0 0 0 0 0 0 0 0 0 0 0 0 0 0 0 0 0 0 0 0 0 0 0 0 0 0 0 0 0 0 0 0 0 0 0 0 0 0
1.11377 1.47499e-07 6.1864e-08 8.56346e-08 0.580579 0.771369 0 0 0 0 0 0 0 0 0 0 0 0 0 0 0 0 0 0 0 0 0 0 0 0 0 0 0 0 0 0 0 0 0 0 0 0 0 0 0 0 0 0
1.17094 1.48207e-07 6.2362e-08 8.58446e-08 0.579222 0.76784 0 0 0 0 0 0 0 0 0 0 0 0 0 0 0 0 0 0 0 0 0 0 0 0 0 0 0 0 0 0 0 0 0 0 0 0 0 0 0 0 0 0
1.23105 1.48913e-07 6.28611e-08 8.60518e-08 0.577866 0.764041 0 0 0 0 0 0 0 0 0 0 0 0 0 0 0 0 0 0 0 0 0 0 0 0 0 0 0 0 0 0 0 0 0 0 0 0 0 0 0 0 0 0
1.29424 1.49643e-07 6.33829e-08 8.62598e-08 0.576438 0.7602 0 0 0 0 0 0 0 0 0 0 0 0 0 0 0 0 0 0 0 0 0 0 0 0 0 0 0 0 0 0 0 0 0 0 0 0 0 0 0 0 0 0
1.36067 1.50397e-07 6.39822e-08 8.64144e-08 0.574577 0.756478 0 0 0 0 0 0 0 0 0 0 0 0 0 0 0 0 0 0 0 0 0 0 0 0 0 0 0 0 0 0 0 0 0 0 0 0 0 0 0 0 0 0
1.43051 1.51166e-07 6.45827e-08 8.65828e-08 0.572768 0.752461 0 0 0 0 0 0 0 0 0 0 0 0 0 0 0 0 0 0 0 0 0 0 0 0 0 0 0 0 0 0 0 0 0 0 0 0 0 0 0 0 0 0
1.50394 1.51997e-07 6.5168e-08 8.68285e-08 0.571254 0.747995 0 0 0 0 0 0 0 0 0 0 0 0 0 0 0 0 0 0 0 0 0 0 0 0 0 0 0 0 0 0 0 0 0 0 0 0 0 0 0 0 0 0
1.58114 1.52848e-07 6.57835e-08 8.70643e-08 0.569614 0.743165 0 0 0 0 0 0 0 0 0 0 0 0 0 0 0 0 0 0 0 0 0 0 0 0 0 0 0 0 0 0 0 0 0 0 0 0 0 0 0 0 0 0
1.6623 1.53649e-07 6.63724e-08 8.72764e-08 0.568026 0.737837 0 0 0 0 0 0 0 0 0 0 0 0 0 0 0 0 0 0 0 0 0 0 0 0 0 0 0 0 0 0 0 0 0 0 0 0 0 0 0 0 0 0
1.74763 1.54507e-07 6.70013e-08 8.75059e-08 0.566355 0.732541 0 0 0 0 0 0 0 0 0 0 0 0 0 0 0 0 0 0 0 0 0 0 0 0 0 0 0 0 0 0 0 0 0 0 0 0 0 0 0 0 0 0
1.83733 1.55479e-07 6.7732e-08 8.77466e-08 0.564364 0.727272 0 0 0 0 0 0 0 0 0 0 0 0 0 0 0 0 0 0 0 0 0 0 0 0 0 0 0 0 0 0 0 0 0 0 0 0 0 0 0 0 0 0
1.93164 1.56388e-07 6.84069e-08 8.79815e-08 0.562583 0.720954 0 0 0 0 0 0 0 0 0 0 0 0 0 0 0 0 0 0 0 0 0 0 0 0 0 0 0 0 0 0 0 0 0 0 0 0 0 0 0 0 0 0
2.03079 1.57224e-07 6.90349e-08 8.81896e-08 0.560915 0.713968 0 0 0 0 0 0 0 0 0 0 0 0 0 0 0 0 0 0 0 0 0 0 0 0 0 0 0 0 0 0 0 0 0 0 0 0 0 0 0 0 0 0
2.13503 1.5818e-07 6.97293e-08 8.8451e-08 0.559178 0.707078 0 0 0 0 0 0 0 0 0 0 0 0 0 0 0 0 0 0 0 0 0 0 0 0 0 0 0 0 0 0 0 0 0 0 0 0 0 0 0 0 0 0
2.24463 1.59284e-07 7.0569e-08 8.87155e-08 0.556962 0.700456 0 0 0 0 0 0 0 0 0 0 0 0 0 0 0 0 0 0 0 0 0 0 0 0 0 0 0 0 0 0 0 0 0 0 0 0 0 0 0 0 0 0
2.35984 1.60351e-07 7.14548e-08 8.88967e-08 0.554386 0.693177 0 0 0 0 0 0 0 0 0 0 0 0 0 0 0 0 0 0 0 0 0 0 0 0 0 0 0 0 0 0 0 0 0 0 0 0 0 0 0 0 0 0
2.48097 1.61228e-07 7.21896e-08 8.9038e-08 0.55225 0.684084 0 0 0 0 0 0 0 0 0 0 0 0 0 0 0 0 0 0 0 0 0 0 0 0 0 0 0 0 0 0 0 0 0 0 0 0 0 0 0 0 0 0
2.60832 1.6211e-07 7.29291e-08 8.91804e-08 0.550125 0.674327 0 0 0 0 0 0 0 0 0 0 0 0 0 0 0 0 0 0 0 0 0 0 0 0 0 0 0 0 0 0 0 0 0 0 0 0 0 0 0 0 0 0
2.74221 1.63278e-07 7.36929e-08 8.95856e-08 0.548668 0.664302 0 0 0 0 0 0 0 0 0 0 0 0 0 0 0 0 0 0 0 0 0 0 0 0 0 0 0 0 0 0 0 0 0 0 0 0 0 0 0 0 0 0
2.88297 1.64662e-07 7.46341e-08 9.00278e-08 0.546743 0.655013 0 0 0 0 0 0 0 0 0 0 0 0 0 0 0 0 0 0 0 0 0 0 0 0 0 0 0 0 0 0 0 0 0 0 0 0 0 0 0 0 0 0
3.03095 1.66065e-07 7.5765e-08 9.02997e-08 0.543762 0.646096 0 0 0 0 0 0 0 0 0 0 0 0 0 0 0 0 0 0 0 0 0 0 0 0 0 0 0 0 0 0 0 0 0 0 0 0 0 0 0 0 0 0
3.18653 1.67141e-07 7.66652e-08 9.04757e-08 0.541314 0.634592 0 0 0 0 0 0 0 0 0 0 0 0 0 0 0 0 0 0 0 0 0 0 0 0 0 0 0 0 0 0 0 0 0 0 0 0 0 0 0 0 0 0
3.35009 1.67849e-07 7.7286e-08 9.05632e-08 0.539551 0.619822 0 0 0 0 0 0 0 0 0 0 0 0 0 0 0 0 0 0 0 0 0 0 0 0 0 0 0 0 0 0 0 0 0 0 0 0 0 0 0 0 0 0
3.52205 1.6867e-07 7.79426e-08 9.07272e-08 0.537898 0.603502 0 0 0 0 0 0 0 0 0 0 0 0 0 0 0 0 0 0 0 0 0 0 0 0 0 0 0 0 0 0 0 0 0 0 0 0 0 0 0 0 0 0
3.70284 1.69739e-07 7.85966e-08 9.11423e-08 0.536956 0.586191 0 0 0 0 0 0 0 0 0 0 0 0 0 0 0 0 0 0 0 0 0 0 0 0 0 0 0 0 0 0 0 0 0 0 0 0 0 0 0 0 0 0
3.89291 1.71127e-07 7.94676e-08 9.16595e-08 0.535622 0.56981 0 0 0 0 0 0 0 0 0 0 0 0 0 0 0 0 0 0 0 0 0 0 0 0 0 0 0 0 0 0 0 0 0 0 0 0 0 0 0 0 0 0
4.09273 1.72678e-07 8.06836e-08 9.19944e-08 0.532751 0.555153 0 0 0 0 0 0 0 0 0 0 0 0 0 0 0 0 0 0 0 0 0 0 0 0 0 0 0 0 0 0 0 0 0 0 0 0 0 0 0 0 0 0
4.30281 1.7408e-07 8.21879e-08 9.18919e-08 0.527873 0.541378 0 0 0 0 0 0 0 0 0 0 0 0 0 0 0 0 0 0 0 0 0 0 0 0 0 0 0 0 0 0 0 0 0 0 0 0 0 0 0 0 0 0
4.52368 1.75075e-07 8.36859e-08 9.1389e-08 0.521999 0.525984 0 0 0 0 0 0 0 0 0 0 0 0 0 0 0 0 0 0 0 0 0 0 0 0 0 0 0 0 0 0 0 0 0 0 0 0 0 0 0 0 0 0
4.75588 1.75619e-07 8.50042e-08 9.06146e-08 0.515973 0.506911 0 0 0 0 0 0 0 0 0 0 0 0 0 0 0 0 0 0 0 0 0 0 0 0 0 0 0 0 0 0 0 0 0 0 0 0 0 0 0 0 0 0
5 1.75644e-07 8.605e-08 8.95939e-08 0.510088 0.482754 0 0 0 0 0 0 0 0 0 0 0 0 0 0 0 0 0 0 0 0 0 0 0 0 0 0 0 0 0 0 0 0 0 0 0 0 0 0 0 0 0 0
5.25665 1.75412e-07 8.69987e-08 8.84136e-08 0.504033 0.453543 0 0 0 0 0 0 0 0 0 0 0 0 0 0 0 0 0 0 0 0 0 0 0 0 0 0 0 0 0 0 0 0 0 0 0 0 0 0 0 0 0 0
5.52648 1.75055e-07 8.76614e-08 8.73932e-08 0.499234 0.418614 0 0 0 0 0 0 0 0 0 0 0 0 0 0 0 0 0 0 0 0 0 0 0 0 0 0 0 0 0 0 0 0 0 0 0 0 0 0 0 0 0 0
5.81015 1.75219e-07 8.83798e-08 8.68392e-08 0.495604 0.379767 0 0 0 0 0 0 0 0 0 0 0 0 0 0 0 0 0 0 0 0 0 0 0 0 0 0 0 0 0 0 0 0 0 0 0 0 0 0 0 0 0 0
6.10839 1.76577e-07 8.87527e-08 8.78247e-08 0.497372 0.33543 0 0 0 0 0 0 0 0 0 0 0 0 0 0 0 0 0 0 0 0 0 0 0 0 0 0 0 0 0 0 0 0 0 0 0 0 0 0 0 0 0 0
6.42193 1.78658e-07 8.86857e-08 8.99721e-08 0.5036 0.286366 0 0 0 0 0 0 0 0 0 0 0 0 0 0 0 0 0 0 0 0 0 0 0 0 0 0 0 0 0 0 0 0 0 0 0 0 0 0 0 0 1.4013e-45 0
6.75157 1.82424e-07 9.01436e-08 9.22807e-08 0.505857 0.244262 0 0 0 0 0 0 0 0 0 0 0 0 0 0 0 0 0 0 0 0 0 0 0 0 0 0 0 0 0 0 0 0 2.8026e-45 0 7.00649e-45 0 2.10195e-44 0 6.16571e-44 0 1.63952e-43 0
7.09813 1.87702e-07 9.21121e-08 9.55902e-08 0.509265 0.207048 0 0 0 0 0 0 0 0 0 0 0 0 0 0 0 0 0 0 0 0 0 0 0 0 1.4013e-45 0 8.40779e-45 0 3.36312e-44 0 1.27518e-43 0 4.18988e-43 0 1.30461e-42 0 3.61815e-42 0 9.83852e-42 0 2.47441e-41 0
7.46248 1.92411e-07 9.37829e-08 9.86278e-08 0.51259 0.17134 0 0 0 0 0 0 0 0 0 0 0 0 0 0 0 0 0 0 1.4013e-45 0 9.80909e-45 0 6.44597e-44 0 3.29305e-43 0 1.41251e-42 0 5.46226e-42 0 1.91726e-41 0 5.96267e-41 0 1.75597e-40 0 4.63215e-40 0 1.19938e-39 0 2.88352e-39 0
7.84553 1.96559e-07 9.58056e-08 1.00753e-07 0.512585 0.140541 0 0 0 0 0 0 0 0 0 0 0 0 0 0 1.4013e-45 0 2.66247e-44 0 2.52234e-43 0 1.74882e-42 0 9.95202e-42 0 4.70808e-41 0 1.87861e-40 0 6.79781e-40 0 2.24426e-39 0 6.60377e-39 0 1.84486e-38 0 4.64153e-38 0 1.14726e-37 0 2.64258e-37 0
8.24824 1.9892e-07 9.73548e-08 1.01565e-07 0.510582 0.112337 0 0 0 0 0 0 0 0 0 0 0 0 2.10195e-44 0 3.75548e-43 0 4.27957e-42 0 3.57948e-41 0 2.26413e-40 0 1.18317e-39 0 5.1885e-39 0 1.93507e-38 0 6.57594e-38 0 2.04803e-37 0 5.71704e-37 0 1.519e-36 0 3.65336e-36 0 8.63983e-36 0 1.91064e-35 0
8.67162 1.9926e-07 9.85806e-08 1.0068e-07 0.505268 0.0881538 0 0 0 0 0 0 0 0 1.4013e-45 0 1.16308e-43 0 3.27203e-42 0 5.15706e-41 0 5.22391e-40 0 3.93846e-39 0 2.27669e-38 0 1.09745e-37 0 4.47751e-37 0 1.56596e-36 0 5.01306e-36 0 1.47704e-35 0 3.92157e-35 0 9.93408e-35 0 2.28904e-34 0 5.19056e-34 0 1.10423e-33 0
9.11674 1.96974e-07 9.91232e-08 9.78508e-08 0.49677 0.0674884 0 0 0 0 0 0 1.4013e-45 0 2.92871e-43 0 1.65325e-41 0 3.97239e-40 0 5.47113e-39 0 4.94966e-38 0 3.38121e-37 0 1.7941e-36 0 8.00898e-36 0 3.0508e-35 0 1.00371e-34 0 3.03571e-34 0 8.48473e-34 0 2.14783e-33 0 5.19947e-33 0 1.15023e-32 0 2.50603e-32 0 5.13837e-32 0
9.5847 1.91663e-07 9.87185e-08 9.2945e-08 0.484938 0.0504396 0 0 0 0 0 0 2.158e-43 0 3.91537e-41 0 1.81463e-39 0 3.73328e-38 0 4.52382e-37 0 3.67539e-36 0 2.28589e-35 0 1.11801e-34 0 4.6393e-34 0 1.6555e-33 0 5.13895e-33 0 1.47251e-32 0 3.91419e-32 0 9.46913e-32 0 2.19544e-31 0 4.6721e-31 0 9.79944e-31 0 1.94006e-30 0
10.0767 1.83315e-07 9.73827e-08 8.59321e-08 0.468768 0.0388573 0 0 0 0 1.68156e-44 0 2.85529e-41 0 4.031e-39 0 1.5491e-37 0 2.74955e-36 0 2.94971e-35 0 2.16351e-34 0 1.23071e-33 0 5.5704e-33 0 2.15636e-32 0 7.23142e-32 0 2.12398e-31 0 5.78112e-31 0 1.46509e-30 0 3.3947e-30 0 7.5541e-30 0 1.54938e-29 0 3.13431e-29 0 6.0017e-29 0
10.5939 1.72026e-07 9.51744e-08 7.68518e-08 0.446745 0.0349304 0 0 0 0 2.53355e-42 0 2.9197e-39 0 3.23698e-37 0 1.04097e-35 0 1.60557e-34 0 1.53403e-33 0 1.02085e-32 0 5.33454e-32 0 2.24291e-31 0 8.12727e-31 0 2.56916e-30 0 7.1593e-30 0 1.85567e-29 0 4.49404e-29 0 9.99437e-29 0 2.13883e-28 0 4.23565e-28 0 8.27873e-28 0 1.53575e-27 0
11.1377 1.5773e-07 9.14194e-08 6.63111e-08 0.420408 0.034336 0 0 1.4013e-45 0 2.82741e-40 0 2.30988e-37 0 2.03496e-35 0 5.52409e-34 0 7.45489e-33 0 6.37951e-32 0 3.87013e-31 0 1.86552e-30 0 7.31244e-30 0 2.48827e-29 0 7.43598e-29 0 1.97101e-28 0 4.87667e-28 0 1.13111e-27 0 2.41922e-27 0 4.98842e-27 0 9.55474e-27 0 1.80739e-26 0 3.25318e-26 0
11.7094 1.43245e-07 8.69281e-08 5.63168e-08 0.39315 0.0325872 0 0 1.48538e-43 0 2.44675e-38 0 1.44081e-35 0 1.02002e-33 0 2.35677e-32 0 2.80102e-31 0 2.15845e-30 0 1.1991e-29 0 5.35276e-29 0 1.9628e-28 0 6.29134e-28 0 1.78226e-27 0 4.50455e-27 0 1.0663e-26 0 2.37366e-26 0 4.89181e-26 0 9.73673e-26 0 1.80671e-25 0 3.31288e-25 0 5.79427e-25 0
12.3105 1.29152e-07 8.21849e-08 4.69668e-08 0.363656 0.0368077 0 0 1.82225e-41 0 1.66857e-36 0 7.19644e-34 0 4.13807e-32 0 8.20203e-31 0 8.63845e-30 0 6.02508e-29 0 3.07833e-28 0 1.27737e-27 0 4.39605e-27 0 1.33117e-26 0 3.58411e-26 0 8.65766e-26 0 1.96497e-25 0 4.20657e-25 0 8.36847e-25 0 1.61062e-24 0 2.89975e-24 0 5.16205e-24 0 8.78538e-24 0
12.9424 1.14523e-07 7.62857e-08 3.8237e-08 0.333881 0.0475687 8.40779e-45 0 1.70845e-39 0 8.95557e-35 0 2.87227e-32 0 1.35516e-30 0 2.32158e-29 0 2.17959e-28 0 1.38267e-27 0 6.52357e-27 0 2.5253e-26 0 8.18187e-26 0 2.34709e-25 0 6.02112e-25 0 1.39314e-24 0 3.03789e-24 0 6.26621e-24 0 1.20542e-23 0 2.247e-23 0 3.93098e-23 0 6.80353e-23 0 1.12823e-22 0
13.6067 1.02557e-07 7.10666e-08 3.14906e-08 0.307054 0.0493656 1.05238e-42 0 1.26767e-37 0 3.90904e-33 0 9.45895e-31 0 3.69733e-29 0 5.51369e-28 0 4.64032e-27 0 2.68978e-26 0 1.17649e-25 0 4.26301e-25 0 1.30416e-24 0 3.55354e-24 0 8.70627e-24 0 1.93359e-23 0 4.0589e-23 0 8.08146e-23 0 1.50574e-22 0 2.72276e-22 0 4.63499e-22 0 7.80999e-22 0 1.26354e-21 0
