# 1.75e-05 1 13 : grain size, compostion index, size index
# Heating and cooling timescale: 0.0164721 26497.6
# Ratio of heating to cooling to determine stochastic cutoff: 100
# Equilibrium emission is recorded even for those grains in the stochastic regime.
# Emission spectrum was computed for: 
# Type: ISRF
# Scales: 0.25 0.5 1 1.5 2 2.5 3 3.5 4 4.5 5 5.5 6 6.5 7 7.5 8 8.5 9 9.5 10
# StochasticallyHeated: 0 0 0 0 0 0 0 0 0 0 0 0 0 0 0 0 0 0 0 0 0
# Temperature: -1
# Wavelength  CExt  CAbs  CSca  Albedo G EqEm1 StEm1 EqEm2 StEm2 EqEm3 StEm3 EqEm4 StEm4 EqEm5 StEm5 EqEm6 StEm6 EqEm7 StEm7 EqEm8 StEm8 EqEm9 StEm9 EqEm10 StEm10 EqEm11 StEm11 EqEm12 StEm12 EqEm13 StEm13 EqEm14 StEm14 EqEm15 StEm15 EqEm16 StEm16 EqEm17 StEm17 EqEm18 StEm18 EqEm19 StEm19 EqEm20 StEm20 EqEm21 StEm21
0.05 2.10738e-09 8.54398e-10 1.25299e-09 0.594569 0.883523 0 0 0 0 0 0 0 0 0 0 0 0 0 0 0 0 0 0 0 0 0 0 0 0 0 0 0 0 0 0 0 0 0 0 0 0 0 0 0 0 0 0
0.0525665 2.11157e-09 8.62726e-10 1.24885e-09 0.59143 0.884216 0 0 0 0 0 0 0 0 0 0 0 0 0 0 0 0 0 0 0 0 0 0 0 0 0 0 0 0 0 0 0 0 0 0 0 0 0 0 0 0 0 0
0.0552647 2.11592e-09 8.71488e-10 1.24444e-09 0.588129 0.884942 0 0 0 0 0 0 0 0 0 0 0 0 0 0 0 0 0 0 0 0 0 0 0 0 0 0 0 0 0 0 0 0 0 0 0 0 0 0 0 0 0 0
0.0581015 2.12052e-09 8.80701e-10 1.23982e-09 0.584677 0.885708 0 0 0 0 0 0 0 0 0 0 0 0 0 0 0 0 0 0 0 0 0 0 0 0 0 0 0 0 0 0 0 0 0 0 0 0 0 0 0 0 0 0
0.0610839 2.12538e-09 8.9039e-10 1.23499e-09 0.581068 0.886516 0 0 0 0 0 0 0 0 0 0 0 0 0 0 0 0 0 0 0 0 0 0 0 0 0 0 0 0 0 0 0 0 0 0 0 0 0 0 0 0 0 0
0.0642193 2.13044e-09 9.0057e-10 1.22987e-09 0.577284 0.887357 0 0 0 0 0 0 0 0 0 0 0 0 0 0 0 0 0 0 0 0 0 0 0 0 0 0 0 0 0 0 0 0 0 0 0 0 0 0 0 0 0 0
0.0675157 2.1358e-09 9.1127e-10 1.22453e-09 0.573336 0.888249 0 0 0 0 0 0 0 0 0 0 0 0 0 0 0 0 0 0 0 0 0 0 0 0 0 0 0 0 0 0 0 0 0 0 0 0 0 0 0 0 0 0
0.0709813 2.14143e-09 9.22532e-10 1.2189e-09 0.569198 0.889183 0 0 0 0 0 0 0 0 0 0 0 0 0 0 0 0 0 0 0 0 0 0 0 0 0 0 0 0 0 0 0 0 0 0 0 0 0 0 0 0 0 0
0.0746248 2.14735e-09 9.34363e-10 1.21299e-09 0.564876 0.89016 0 0 0 0 0 0 0 0 0 0 0 0 0 0 0 0 0 0 0 0 0 0 0 0 0 0 0 0 0 0 0 0 0 0 0 0 0 0 0 0 0 0
0.0784553 2.15355e-09 9.468e-10 1.20675e-09 0.560355 0.891198 0 0 0 0 0 0 0 0 0 0 0 0 0 0 0 0 0 0 0 0 0 0 0 0 0 0 0 0 0 0 0 0 0 0 0 0 0 0 0 0 0 0
0.0824824 2.16009e-09 9.5987e-10 1.20022e-09 0.555634 0.892285 0 0 0 0 0 0 0 0 0 0 0 0 0 0 0 0 0 0 0 0 0 0 0 0 0 0 0 0 0 0 0 0 0 0 0 0 0 0 0 0 0 0
0.0867162 2.16694e-09 9.73612e-10 1.19333e-09 0.550698 0.893426 0 0 0 0 0 0 0 0 0 0 0 0 0 0 0 0 0 0 0 0 0 0 0 0 0 0 0 0 0 0 0 0 0 0 0 0 0 0 0 0 0 0
0.0911674 2.17419e-09 9.88101e-10 1.18609e-09 0.545531 0.894625 0 0 0 0 0 0 0 0 0 0 0 0 0 0 0 0 0 0 0 0 0 0 0 0 0 0 0 0 0 0 0 0 0 0 0 0 0 0 0 0 0 0
0.095847 2.1818e-09 1.00326e-09 1.17854e-09 0.540169 0.895887 0 0 0 0 0 0 0 0 0 0 0 0 0 0 0 0 0 0 0 0 0 0 0 0 0 0 0 0 0 0 0 0 0 0 0 0 0 0 0 0 0 0
0.100767 2.18977e-09 1.01924e-09 1.17053e-09 0.534544 0.897218 0 0 0 0 0 0 0 0 0 0 0 0 0 0 0 0 0 0 0 0 0 0 0 0 0 0 0 0 0 0 0 0 0 0 0 0 0 0 0 0 0 0
0.105939 2.1981e-09 1.03602e-09 1.16208e-09 0.528675 0.898608 0 0 0 0 0 0 0 0 0 0 0 0 0 0 0 0 0 0 0 0 0 0 0 0 0 0 0 0 0 0 0 0 0 0 0 0 0 0 0 0 0 0
0.111377 2.20695e-09 1.05371e-09 1.15324e-09 0.522548 0.900078 0 0 0 0 0 0 0 0 0 0 0 0 0 0 0 0 0 0 0 0 0 0 0 0 0 0 0 0 0 0 0 0 0 0 0 0 0 0 0 0 0 0
0.117094 2.21629e-09 1.07231e-09 1.14398e-09 0.516168 0.901623 0 0 0 0 0 0 0 0 0 0 0 0 0 0 0 0 0 0 0 0 0 0 0 0 0 0 0 0 0 0 0 0 0 0 0 0 0 0 0 0 0 0
0.123105 2.22603e-09 1.09179e-09 1.13424e-09 0.509536 0.903239 0 0 0 0 0 0 0 0 0 0 0 0 0 0 0 0 0 0 0 0 0 0 0 0 0 0 0 0 0 0 0 0 0 0 0 0 0 0 0 0 0 0
0.129424 2.2363e-09 1.11232e-09 1.12398e-09 0.502607 0.904951 0 0 0 0 0 0 0 0 0 0 0 0 0 0 0 0 0 0 0 0 0 0 0 0 0 0 0 0 0 0 0 0 0 0 0 0 0 0 0 0 0 0
0.136067 2.24705e-09 1.13391e-09 1.11314e-09 0.495378 0.906737 0 0 0 0 0 0 0 0 0 0 0 0 0 0 0 0 0 0 0 0 0 0 0 0 0 0 0 0 0 0 0 0 0 0 0 0 0 0 0 0 0 0
0.143051 2.25833e-09 1.15655e-09 1.10178e-09 0.487874 0.908625 0 0 0 0 0 0 0 0 0 0 0 0 0 0 0 0 0 0 0 0 0 0 0 0 0 0 0 0 0 0 0 0 0 0 0 0 0 0 0 0 0 0
0.150394 2.26916e-09 1.17658e-09 1.09258e-09 0.48149 0.908929 0 0 0 0 0 0 0 0 0 0 0 0 0 0 0 0 0 0 0 0 0 0 0 0 0 0 0 0 0 0 0 0 0 0 0 0 0 0 0 0 0 0
0.158114 2.2747e-09 1.17786e-09 1.09684e-09 0.482192 0.900595 0 0 0 0 0 0 0 0 0 0 0 0 0 0 0 0 0 0 0 0 0 0 0 0 0 0 0 0 0 0 0 0 0 0 0 0 0 0 0 0 0 0
0.16623 2.2805e-09 1.17918e-09 1.10132e-09 0.482929 0.891835 0 0 0 0 0 0 0 0 0 0 0 0 0 0 0 0 0 0 0 0 0 0 0 0 0 0 0 0 0 0 0 0 0 0 0 0 0 0 0 0 0 0
0.174762 2.28661e-09 1.18056e-09 1.10605e-09 0.483707 0.882622 0 0 0 0 0 0 0 0 0 0 0 0 0 0 0 0 0 0 0 0 0 0 0 0 0 0 0 0 0 0 0 0 0 0 0 0 0 0 0 0 0 0
0.183733 2.29307e-09 1.18204e-09 1.11103e-09 0.484516 0.872939 0 0 0 0 0 0 0 0 0 0 0 0 0 0 0 0 0 0 0 0 0 0 0 0 0 0 0 0 0 0 0 0 0 0 0 0 0 0 0 0 0 0
0.193164 2.29982e-09 1.18361e-09 1.11621e-09 0.485346 0.862764 0 0 0 0 0 0 0 0 0 0 0 0 0 0 0 0 0 0 0 0 0 0 0 0 0 0 0 0 0 0 0 0 0 0 0 0 0 0 0 0 0 0
0.203079 2.32712e-09 1.19356e-09 1.13356e-09 0.487109 0.852157 0 0 0 0 0 0 0 0 0 0 0 0 0 0 0 0 0 0 0 0 0 0 0 0 0 0 0 0 0 0 0 0 0 0 0 0 0 0 0 0 0 0
0.213503 2.37864e-09 1.21339e-09 1.16526e-09 0.489882 0.841128 0 0 0 0 0 0 0 0 0 0 0 0 0 0 0 0 0 0 0 0 0 0 0 0 0 0 0 0 0 0 0 0 0 0 0 0 0 0 0 0 0 0
0.224463 2.43289e-09 1.23423e-09 1.19866e-09 0.492689 0.829526 0 0 0 0 0 0 0 0 0 0 0 0 0 0 0 0 0 0 0 0 0 0 0 0 0 0 0 0 0 0 0 0 0 0 0 0 0 0 0 0 0 0
0.235984 2.48984e-09 1.25616e-09 1.23368e-09 0.495484 0.81733 0 0 0 0 0 0 0 0 0 0 0 0 0 0 0 0 0 0 0 0 0 0 0 0 0 0 0 0 0 0 0 0 0 0 0 0 0 0 0 0 0 0
0.248097 2.54952e-09 1.2788e-09 1.27072e-09 0.498414 0.804791 0 0 0 0 0 0 0 0 0 0 0 0 0 0 0 0 0 0 0 0 0 0 0 0 0 0 0 0 0 0 0 0 0 0 0 0 0 0 0 0 0 0
0.260832 2.60616e-09 1.29489e-09 1.31127e-09 0.503142 0.796947 0 0 0 0 0 0 0 0 0 0 0 0 0 0 0 0 0 0 0 0 0 0 0 0 0 0 0 0 0 0 0 0 0 0 0 0 0 0 0 0 0 0
0.274221 2.66586e-09 1.31186e-09 1.354e-09 0.507904 0.788687 0 0 0 0 0 0 0 0 0 0 0 0 0 0 0 0 0 0 0 0 0 0 0 0 0 0 0 0 0 0 0 0 0 0 0 0 0 0 0 0 0 0
0.288297 2.72855e-09 1.32968e-09 1.39887e-09 0.51268 0.780006 0 0 0 0 0 0 0 0 0 0 0 0 0 0 0 0 0 0 0 0 0 0 0 0 0 0 0 0 0 0 0 0 0 0 0 0 0 0 0 0 0 0
0.303095 2.80429e-09 1.34197e-09 1.46232e-09 0.521457 0.772869 0 0 0 0 0 0 0 0 0 0 0 0 0 0 0 0 0 0 0 0 0 0 0 0 0 0 0 0 0 0 0 0 0 0 0 0 0 0 0 0 0 0
0.318653 2.89708e-09 1.34615e-09 1.55094e-09 0.535344 0.768042 0 0 0 0 0 0 0 0 0 0 0 0 0 0 0 0 0 0 0 0 0 0 0 0 0 0 0 0 0 0 0 0 0 0 0 0 0 0 0 0 0 0
0.335009 2.99468e-09 1.35058e-09 1.6441e-09 0.549007 0.762975 0 0 0 0 0 0 0 0 0 0 0 0 0 0 0 0 0 0 0 0 0 0 0 0 0 0 0 0 0 0 0 0 0 0 0 0 0 0 0 0 0 0
0.352205 3.10572e-09 1.3537e-09 1.75202e-09 0.564128 0.758478 0 0 0 0 0 0 0 0 0 0 0 0 0 0 0 0 0 0 0 0 0 0 0 0 0 0 0 0 0 0 0 0 0 0 0 0 0 0 0 0 0 0
0.370284 3.23731e-09 1.35429e-09 1.88302e-09 0.581662 0.755224 0 0 0 0 0 0 0 0 0 0 0 0 0 0 0 0 0 0 0 0 0 0 0 0 0 0 0 0 0 0 0 0 0 0 0 0 0 0 0 0 0 0
0.389291 3.37579e-09 1.35497e-09 2.02081e-09 0.59862 0.751806 0 0 0 0 0 0 0 0 0 0 0 0 0 0 0 0 0 0 0 0 0 0 0 0 0 0 0 0 0 0 0 0 0 0 0 0 0 0 0 0 0 0
0.409273 3.48468e-09 1.35256e-09 2.13212e-09 0.611856 0.745847 0 0 0 0 0 0 0 0 0 0 0 0 0 0 0 0 0 0 0 0 0 0 0 0 0 0 0 0 0 0 0 0 0 0 0 0 0 0 0 0 0 0
0.430281 3.58432e-09 1.34884e-09 2.23548e-09 0.623684 0.738614 0 0 0 0 0 0 0 0 0 0 0 0 0 0 0 0 0 0 0 0 0 0 0 0 0 0 0 0 0 0 0 0 0 0 0 0 0 0 0 0 0 0
0.452368 3.65307e-09 1.33995e-09 2.31313e-09 0.6332 0.728808 0 0 0 0 0 0 0 0 0 0 0 0 0 0 0 0 0 0 0 0 0 0 0 0 0 0 0 0 0 0 0 0 0 0 0 0 0 0 0 0 0 0
0.475588 3.66271e-09 1.32204e-09 2.34067e-09 0.639054 0.714647 0 0 0 0 0 0 0 0 0 0 0 0 0 0 0 0 0 0 0 0 0 0 0 0 0 0 0 0 0 0 0 0 0 0 0 0 0 0 0 0 0 0
0.5 3.65342e-09 1.30252e-09 2.3509e-09 0.643479 0.699181 0 0 0 0 0 0 0 0 0 0 0 0 0 0 0 0 0 0 0 0 0 0 0 0 0 0 0 0 0 0 0 0 0 0 0 0 0 0 0 0 0 0
0.525665 3.59069e-09 1.27984e-09 2.31085e-09 0.643568 0.681351 0 0 0 0 0 0 0 0 0 0 0 0 0 0 0 0 0 0 0 0 0 0 0 0 0 0 0 0 0 0 0 0 0 0 0 0 0 0 0 0 0 0
0.552648 3.50752e-09 1.25795e-09 2.24957e-09 0.641356 0.664618 0 0 0 0 0 0 0 0 0 0 0 0 0 0 0 0 0 0 0 0 0 0 0 0 0 0 0 0 0 0 0 0 0 0 0 0 0 0 0 0 0 0
0.581015 3.39039e-09 1.23821e-09 2.15218e-09 0.634789 0.650469 0 0 0 0 0 0 0 0 0 0 0 0 0 0 0 0 0 0 0 0 0 0 0 0 0 0 0 0 0 0 0 0 0 0 0 0 0 0 0 0 0 0
0.610839 3.25197e-09 1.21303e-09 2.03894e-09 0.626986 0.635808 0 0 0 0 0 0 0 0 0 0 0 0 0 0 0 0 0 0 0 0 0 0 0 0 0 0 0 0 0 0 0 0 0 0 0 0 0 0 0 0 0 0
0.642193 3.09639e-09 1.18314e-09 1.91326e-09 0.617898 0.620343 0 0 0 0 0 0 0 0 0 0 0 0 0 0 0 0 0 0 0 0 0 0 0 0 0 0 0 0 0 0 0 0 0 0 0 0 0 0 0 0 0 0
0.675157 2.921e-09 1.14389e-09 1.7771e-09 0.608389 0.602433 0 0 0 0 0 0 0 0 0 0 0 0 0 0 0 0 0 0 0 0 0 0 0 0 0 0 0 0 0 0 0 0 0 0 0 0 0 0 0 0 0 0
0.709813 2.73317e-09 1.09933e-09 1.63384e-09 0.597782 0.583116 0 0 0 0 0 0 0 0 0 0 0 0 0 0 0 0 0 0 0 0 0 0 0 0 0 0 0 0 0 0 0 0 0 0 0 0 0 0 0 0 0 0
0.746248 2.534e-09 1.0494e-09 1.4846e-09 0.585872 0.562402 0 0 0 0 0 0 0 0 0 0 0 0 0 0 0 0 0 0 0 0 0 0 0 0 0 0 0 0 0 0 0 0 0 0 0 0 0 0 0 0 0 0
0.784553 2.32675e-09 9.93557e-10 1.33319e-09 0.572985 0.540155 0 0 0 0 0 0 0 0 0 0 0 0 0 0 0 0 0 0 0 0 0 0 0 0 0 0 0 0 0 0 0 0 0 0 0 0 0 0 0 0 0 0
0.824824 2.11867e-09 9.31927e-10 1.18675e-09 0.560136 0.515073 0 0 0 0 0 0 0 0 0 0 0 0 0 0 0 0 0 0 0 0 0 0 0 0 0 0 0 0 0 0 0 0 0 0 0 0 0 0 0 0 0 0
0.867162 1.91419e-09 8.66625e-10 1.04757e-09 0.547264 0.48699 0 0 0 0 0 0 0 0 0 0 0 0 0 0 0 0 0 0 0 0 0 0 0 0 0 0 0 0 0 0 0 0 0 0 0 0 0 0 0 0 0 0
0.911674 1.71848e-09 7.99914e-10 9.18571e-10 0.534524 0.455949 0 0 0 0 0 0 0 0 0 0 0 0 0 0 0 0 0 0 0 0 0 0 0 0 0 0 0 0 0 0 0 0 0 0 0 0 0 0 0 0 0 0
0.95847 1.53584e-09 7.34454e-10 8.01381e-10 0.521789 0.422722 0 0 0 0 0 0 0 0 0 0 0 0 0 0 0 0 0 0 0 0 0 0 0 0 0 0 0 0 0 0 0 0 0 0 0 0 0 0 0 0 0 0
1.00767 1.36862e-09 6.7245e-10 6.96165e-10 0.508664 0.38869 0 0 0 0 0 0 0 0 0 0 0 0 0 0 0 0 0 0 0 0 0 0 0 0 0 0 0 0 0 0 0 0 0 0 0 0 0 0 0 0 0 0
1.05939 1.21725e-09 6.1511e-10 6.02145e-10 0.494674 0.35513 0 0 0 0 0 0 0 0 0 0 0 0 0 0 0 0 0 0 0 0 0 0 0 0 0 0 0 0 0 0 0 0 0 0 0 0 0 0 0 0 0 0
1.11377 1.08106e-09 5.62743e-10 5.18315e-10 0.479451 0.32301 0 0 0 0 0 0 0 0 0 0 0 0 0 0 0 0 0 0 0 0 0 0 0 0 0 0 0 0 0 0 0 0 0 0 0 0 0 0 0 0 0 0
1.17094 9.59056e-10 5.152e-10 4.43855e-10 0.462805 0.293055 0 0 0 0 0 0 0 0 0 0 0 0 0 0 0 0 0 0 0 0 0 0 0 0 0 0 0 0 0 0 0 0 0 0 0 0 0 0 0 0 0 0
1.23105 8.50241e-10 4.72109e-10 3.78131e-10 0.444734 0.26559 0 0 0 0 0 0 0 0 0 0 0 0 0 0 0 0 0 0 0 0 0 0 0 0 0 0 0 0 0 0 0 0 0 0 0 0 0 0 0 0 0 0
1.29424 7.53802e-10 4.33089e-10 3.20713e-10 0.425461 0.240826 0 0 0 0 0 0 0 0 0 0 0 0 0 0 0 0 0 0 0 0 0 0 0 0 0 0 0 0 0 0 0 0 0 0 0 0 0 0 0 0 0 0
1.36067 6.6832e-10 3.9758e-10 2.7074e-10 0.405106 0.218371 0 0 0 0 0 0 0 0 0 0 0 0 0 0 0 0 0 0 0 0 0 0 0 0 0 0 0 0 0 0 0 0 0 0 0 0 0 0 0 0 0 0
1.43051 5.92731e-10 3.65193e-10 2.27538e-10 0.383881 0.198122 0 0 0 0 0 0 0 0 0 0 0 0 0 0 0 0 0 0 0 0 0 0 0 0 0 0 0 0 0 0 0 0 0 0 0 0 0 0 0 0 0 0
1.50394 5.26211e-10 3.35664e-10 1.90547e-10 0.362111 0.179885 0 0 0 0 0 0 0 0 0 0 0 0 0 0 0 0 0 0 0 0 0 0 0 0 0 0 0 0 0 0 0 0 0 0 0 0 0 0 0 0 0 0
1.58114 4.67767e-10 3.08708e-10 1.59059e-10 0.340039 0.16345 0 0 0 0 0 0 0 0 0 0 0 0 0 0 0 0 0 0 0 0 0 0 0 0 0 0 0 0 0 0 0 0 0 0 0 0 0 0 0 0 0 0
1.6623 4.16399e-10 2.84055e-10 1.32345e-10 0.317831 0.148579 0 0 0 0 0 0 0 0 0 0 0 0 0 0 0 0 0 0 0 0 0 0 0 0 0 0 0 0 0 0 0 0 0 0 0 0 0 0 0 0 0 0
1.74763 3.71646e-10 2.61644e-10 1.10002e-10 0.295985 0.135268 0 0 0 0 0 0 0 0 0 0 0 0 0 0 0 0 0 0 0 0 0 0 0 0 0 0 0 0 0 0 0 0 0 0 0 0 0 0 0 0 0 0
1.83733 3.32383e-10 2.41154e-10 9.12285e-11 0.274468 0.123104 0 0 0 0 0 0 0 0 0 0 0 0 0 0 0 0 0 0 0 0 0 0 0 0 0 0 0 0 0 0 0 0 0 0 0 0 0 0 0 0 0 0
1.93164 2.97961e-10 2.2244e-10 7.55213e-11 0.25346 0.112063 0 0 0 0 0 0 0 0 0 0 0 0 0 0 0 0 0 0 0 0 0 0 0 0 0 0 0 0 0 0 0 0 0 0 0 0 0 0 0 0 0 0
2.03079 2.67851e-10 2.05385e-10 6.24666e-11 0.233214 0.102043 0 0 0 0 0 0 0 0 0 0 0 0 0 0 0 0 0 0 0 0 0 0 0 0 0 0 0 0 0 0 0 0 0 0 0 0 0 0 0 0 0 0
2.13503 2.41459e-10 1.89823e-10 5.16353e-11 0.213847 0.0929288 0 0 0 0 0 0 0 0 0 0 0 0 0 0 0 0 0 0 0 0 0 0 0 0 0 0 0 0 0 0 0 0 0 0 0 0 0 0 0 0 0 0
2.24463 2.18271e-10 1.75617e-10 4.26544e-11 0.195419 0.0846417 0 0 0 0 0 0 0 0 0 0 0 0 0 0 0 0 0 0 0 0 0 0 0 0 0 0 0 0 0 0 0 0 0 0 0 0 0 0 0 0 0 0
2.35984 1.97811e-10 1.6261e-10 3.52016e-11 0.177955 0.0770843 0 0 0 0 0 0 0 0 0 0 0 0 0 0 0 0 0 0 0 0 0 0 0 0 0 0 0 0 0 0 0 0 0 0 0 0 0 0 0 0 0 0
2.48097 1.79739e-10 1.50709e-10 2.903e-11 0.161512 0.0702233 0 0 0 0 0 0 0 0 0 0 0 0 0 0 0 0 0 0 0 0 0 0 0 0 0 0 0 0 0 0 0 0 0 0 0 0 0 0 0 0 0 0
2.60832 1.63799e-10 1.39849e-10 2.39499e-11 0.146215 0.0639944 0 0 0 0 0 0 0 0 0 0 0 0 0 0 0 0 0 0 0 0 0 0 0 0 0 0 0 0 0 0 0 0 0 0 0 0 0 0 0 0 0 0
2.74221 1.49632e-10 1.29893e-10 1.97382e-11 0.131912 0.058272 0 0 0 0 0 0 0 0 0 0 0 0 0 0 0 0 0 0 0 0 0 0 0 0 0 0 0 0 0 0 0 0 0 0 0 0 0 0 0 0 0 0
2.88297 1.37015e-10 1.20759e-10 1.62556e-11 0.118641 0.053052 0 0 0 0 0 0 0 0 0 0 0 0 0 0 0 0 0 0 0 0 0 0 0 0 0 0 0 0 0 0 0 0 0 0 0 0 0 0 0 0 0 0
3.03095 1.2583e-10 1.12449e-10 1.3381e-11 0.106342 0.0483005 0 0 0 0 0 0 0 0 0 0 0 0 0 0 0 0 0 0 0 0 0 0 0 0 0 0 0 0 0 0 0 0 0 0 0 0 0 0 0 0 0 0
3.18653 1.16108e-10 1.05122e-10 1.09867e-11 0.0946243 0.0439715 0 0 0 0 0 0 0 0 0 0 0 0 0 0 0 0 0 0 0 0 0 0 0 0 0 0 0 0 0 0 0 0 0 0 0 0 0 0 0 0 0 0
3.35009 1.11434e-10 1.02409e-10 9.02526e-12 0.0809918 0.0400411 0 0 0 0 0 0 0 0 0 0 0 0 0 0 0 0 0 0 0 0 0 0 0 0 0 0 0 0 0 0 0 0 0 0 0 0 0 0 0 0 0 0
3.52205 1.01701e-10 9.40271e-11 7.6737e-12 0.0754537 0.0363324 0 0 0 0 0 0 0 0 0 0 0 0 0 0 0 0 0 0 0 0 0 0 0 0 0 0 0 0 0 0 0 0 0 0 0 0 0 0 0 0 0 0
3.70284 9.06338e-11 8.44021e-11 6.23169e-12 0.0687568 0.0331033 0 0 0 0 0 0 0 0 0 0 0 0 0 0 0 0 0 0 0 0 0 0 0 0 0 0 0 0 0 0 0 0 0 0 0 0 0 0 0 0 0 0
3.89291 8.3943e-11 7.88229e-11 5.12011e-12 0.0609951 0.0301255 0 0 0 0 0 0 0 0 0 0 0 0 0 0 0 0 0 0 0 0 0 0 0 0 0 0 0 0 0 0 0 0 0 0 0 0 0 0 0 0 0 0
4.09273 7.78805e-11 7.36674e-11 4.21309e-12 0.0540969 0.0274091 0 0 0 0 0 0 0 0 0 0 0 0 0 0 0 0 0 0 0 0 0 0 0 0 0 0 0 0 0 0 0 0 0 0 0 0 0 0 0 0 0 0
4.30281 7.23523e-11 6.88842e-11 3.46809e-12 0.0479334 0.0249331 0 0 0 0 0 0 0 0 0 0 0 0 0 0 0 0 0 0 0 0 0 0 0 0 0 0 0 0 0 0 0 0 0 0 0 0 0 0 0 0 0 0
4.52368 6.73033e-11 6.44479e-11 2.85543e-12 0.0424263 0.022679 0 0 0 0 0 0 0 0 0 0 0 0 0 0 0 0 0 0 0 0 0 0 0 0 0 0 0 0 0 0 0 0 0 0 0 0 0 0 0 0 0 0
4.75588 6.26808e-11 6.03299e-11 2.35089e-12 0.0375058 0.020668 0 0 0 0 0 0 0 0 0 0 0 0 0 0 0 0 0 0 0 0 0 0 0 0 0 0 0 0 0 0 0 0 0 0 0 0 1.4013e-45 0 2.8026e-45 0 8.40779e-45 0
5 5.84448e-11 5.65093e-11 1.93551e-12 0.0331168 0.0187975 0 0 0 0 0 0 0 0 0 0 0 0 0 0 0 0 0 0 0 0 0 0 0 0 0 0 0 0 1.4013e-45 0 2.8026e-45 0 1.26117e-44 0 4.06377e-44 0 1.24716e-43 0 3.61535e-43 0 9.8231e-43 0
5.25665 5.45597e-11 5.29667e-11 1.59302e-12 0.0291978 0.017093 0 0 0 0 0 0 0 0 0 0 0 0 0 0 0 0 0 0 0 0 0 0 1.4013e-45 0 5.60519e-45 0 2.52234e-44 0 1.09301e-43 0 4.17587e-43 0 1.45034e-42 0 4.51779e-42 0 1.3182e-41 0 3.61745e-41 0 9.36292e-41 0
5.52648 5.1009e-11 4.96982e-11 1.31081e-12 0.0256977 0.0155412 0 0 0 0 0 0 0 0 0 0 0 0 0 0 0 0 0 0 1.4013e-45 0 1.68156e-44 0 1.13505e-43 0 6.12367e-43 0 2.81661e-42 0 1.13856e-41 0 4.08563e-41 0 1.33747e-40 0 3.94048e-40 0 1.09139e-39 0 2.85085e-39 0 7.04397e-39 0
5.81015 4.78306e-11 4.6753e-11 1.07759e-12 0.0225294 0.0141242 0 0 0 0 0 0 0 0 0 0 0 0 0 0 1.4013e-45 0 2.66247e-44 0 2.57839e-43 0 1.95061e-42 0 1.17078e-41 0 5.81959e-41 0 2.4824e-40 0 9.37399e-40 0 3.16034e-39 0 9.76351e-39 0 2.72874e-38 0 7.19103e-38 0 1.79237e-37 0 4.2373e-37 0
6.10839 4.58011e-11 4.49164e-11 8.84705e-13 0.0193162 0.0128191 0 0 0 0 0 0 0 0 0 0 0 0 1.12104e-44 0 2.28412e-43 0 2.95113e-42 0 2.5725e-41 0 1.76061e-40 0 9.68223e-40 0 4.45025e-39 0 1.7685e-38 0 6.25867e-38 0 1.98849e-37 0 5.81403e-37 0 1.5454e-36 0 3.88439e-36 0 9.25961e-36 0 2.099e-35 0
6.42193 4.25687e-11 4.18314e-11 7.37318e-13 0.0173207 0.0117281 0 0 0 0 0 0 0 0 0 0 3.64338e-44 0 1.22894e-42 0 2.19149e-41 0 2.49435e-40 0 1.95661e-39 0 1.21907e-38 0 6.16873e-38 0 2.63187e-37 0 9.77748e-37 0 3.25317e-36 0 9.76867e-36 0 2.71044e-35 0 6.8687e-35 0 1.65049e-34 0 3.77106e-34 0 8.21353e-34 0
6.75157 3.97696e-11 3.91662e-11 6.03447e-13 0.0151736 0.0106478 0 0 0 0 0 0 0 0 5.46506e-44 0 3.82134e-42 0 1.07317e-40 0 1.66253e-39 0 1.68047e-38 0 1.19207e-37 0 6.79257e-37 0 3.17557e-36 0 1.26219e-35 0 4.39807e-35 0 1.37991e-34 0 3.92704e-34 0 1.03665e-33 0 2.51043e-33 0 5.77961e-33 0 1.26832e-32 0 2.65943e-32 0
7.09813 3.78033e-11 3.73056e-11 4.97652e-13 0.0131642 0.00967013 0 0 0 0 0 0 2.24208e-44 0 5.49729e-42 0 3.16277e-40 0 7.54707e-39 0 1.02276e-37 0 9.23384e-37 0 5.95262e-36 0 3.11562e-35 0 1.35092e-34 0 5.01966e-34 0 1.64566e-33 0 4.88298e-33 0 1.32045e-32 0 3.32434e-32 0 7.71025e-32 0 1.70426e-31 0 3.59916e-31 0 7.27883e-31 0
7.46248 3.56144e-11 3.51861e-11 4.28293e-13 0.0120258 0.00892324 0 0 0 0 1.4013e-45 0 2.35698e-42 0 4.36226e-40 0 2.05898e-38 0 4.2082e-37 0 5.02138e-36 0 4.0717e-35 0 2.39655e-34 0 1.15698e-33 0 4.66989e-33 0 1.62749e-32 0 5.03511e-32 0 1.41674e-31 0 3.64951e-31 0 8.78295e-31 0 1.95508e-30 0 4.15734e-30 0 8.46503e-30 0 1.65408e-29 0
7.84553 3.32838e-11 3.29275e-11 3.56344e-13 0.0107062 0.00814528 0 0 0 0 1.09301e-43 0 1.90533e-40 0 2.73227e-38 0 1.0684e-36 0 1.88451e-35 0 1.9923e-34 0 1.45857e-33 0 7.87326e-33 0 3.51975e-32 0 1.3271e-31 0 4.35156e-31 0 1.27405e-30 0 3.40826e-30 0 8.38325e-30 0 1.93284e-29 0 4.13765e-29 0 8.4802e-29 0 1.66779e-28 0 3.15402e-28 0
8.24824 3.08652e-11 3.05826e-11 2.82539e-13 0.00915398 0.00734047 0 0 0 0 1.00123e-41 0 1.2144e-38 0 1.36654e-36 0 4.46783e-35 0 6.85019e-34 0 6.45439e-33 0 4.28763e-32 0 2.13154e-31 0 8.85721e-31 0 3.13003e-30 0 9.68518e-30 0 2.69074e-29 0 6.86046e-29 0 1.61491e-28 0 3.57453e-28 0 7.37289e-28 0 1.45906e-27 0 2.77631e-27 0 5.08956e-27 0
8.67162 2.89537e-11 2.87117e-11 2.42024e-13 0.00835901 0.00676076 0 0 1.4013e-45 0 7.33103e-40 0 6.28706e-37 0 5.6177e-35 0 1.54914e-33 0 2.07879e-32 0 1.7555e-31 0 1.06319e-30 0 4.88745e-30 0 1.89445e-29 0 6.29458e-29 0 1.84321e-28 0 4.87161e-28 0 1.18661e-27 0 2.67886e-27 0 5.70393e-27 0 1.13564e-26 0 2.17372e-26 0 4.00827e-26 0 7.13376e-26 0
9.11674 2.69508e-11 2.6751e-11 1.99796e-13 0.00741337 0.00615388 0 0 2.07392e-43 0 4.25431e-38 0 2.6236e-35 0 1.88255e-33 0 4.41515e-32 0 5.21922e-31 0 3.97152e-30 0 2.20281e-29 0 9.39947e-29 0 3.41017e-28 0 1.06856e-27 0 2.9691e-27 0 7.48366e-27 0 1.74531e-26 0 3.7866e-26 0 7.77047e-26 0 1.49593e-25 0 2.77402e-25 0 4.96463e-25 0 8.59063e-25 0
9.5847 2.49164e-11 2.4759e-11 1.57339e-13 0.00631469 0.00553466 0 0 1.75485e-41 0 1.98012e-36 0 8.92354e-34 0 5.19729e-32 0 1.0449e-30 0 1.09488e-29 0 7.54544e-29 0 3.84927e-28 0 1.53017e-27 0 5.213e-27 0 1.54487e-26 0 4.08366e-26 0 9.83865e-26 0 2.2016e-25 0 4.5993e-25 0 9.11271e-25 0 1.69912e-24 0 3.05722e-24 0 5.31817e-24 0 8.95928e-24 0
10.0767 2.35755e-11 2.34408e-11 1.34734e-13 0.00571497 0.00509773 4.2039e-45 0 1.20297e-39 0 7.69162e-35 0 2.57212e-32 0 1.22842e-30 0 2.13311e-29 0 1.99291e-28 0 1.2499e-27 0 5.88868e-27 0 2.18835e-26 0 7.02218e-26 0 1.97352e-25 0 4.97493e-25 0 1.14823e-24 0 2.47032e-24 0 4.97834e-24 0 9.53984e-24 0 1.72547e-23 0 3.01685e-23 0 5.10801e-23 0 8.38886e-23 0
10.5939 2.21659e-11 2.20549e-11 1.10966e-13 0.00500617 0.00463828 3.93765e-43 0 6.56819e-38 0 2.44666e-33 0 6.1603e-31 0 2.436e-29 0 3.67976e-28 0 3.08256e-27 0 1.76754e-26 0 7.72049e-26 0 2.69097e-25 0 8.15722e-25 0 2.17972e-24 0 5.2522e-24 0 1.16372e-23 0 2.41172e-23 0 4.69678e-23 0 8.71899e-23 0 1.53203e-22 0 2.60655e-22 0 4.30128e-22 0 6.89494e-22 0
11.1377 2.07367e-11 2.0649e-11 8.76629e-14 0.00422743 0.00417767 3.12013e-41 0 2.89123e-36 0 6.44212e-32 0 1.23831e-29 0 4.09195e-28 0 5.41379e-27 0 4.08812e-26 0 2.15254e-25 0 8.74915e-25 0 2.86916e-24 0 8.23896e-24 0 2.09841e-23 0 4.84377e-23 0 1.03233e-22 0 2.06466e-22 0 3.89213e-22 0 7.0103e-22 0 1.19835e-21 0 1.98663e-21 0 3.19909e-21 0 5.01134e-21 0
