# 5e-06 2 4 : grain size, compostion index, size index
# Heating and cooling timescale: 1.03937 239310
# Ratio of heating to cooling to determine stochastic cutoff: 100
# Equilibrium emission is recorded even for those grains in the stochastic regime.
# Emission spectrum was computed for: 
# Type: ISRF
# Scales: 0.25 0.5 1 1.5 2 2.5 3 3.5 4 4.5 5 5.5 6 6.5 7 7.5 8 8.5 9 9.5 10
# StochasticallyHeated: 0 0 0 0 0 0 0 0 0 0 0 0 0 0 0 0 0 0 0 0 0
# Temperature: -1
# Wavelength  CExt  CAbs  CSca  Albedo G EqEm1 StEm1 EqEm2 StEm2 EqEm3 StEm3 EqEm4 StEm4 EqEm5 StEm5 EqEm6 StEm6 EqEm7 StEm7 EqEm8 StEm8 EqEm9 StEm9 EqEm10 StEm10 EqEm11 StEm11 EqEm12 StEm12 EqEm13 StEm13 EqEm14 StEm14 EqEm15 StEm15 EqEm16 StEm16 EqEm17 StEm17 EqEm18 StEm18 EqEm19 StEm19 EqEm20 StEm20 EqEm21 StEm21
0.05 2.18957e-10 1.31588e-10 8.73699e-11 0.399027 0.873439 0 0 0 0 0 0 0 0 0 0 0 0 0 0 0 0 0 0 0 0 0 0 0 0 0 0 0 0 0 0 0 0 0 0 0 0 0 0 0 0 0 0
0.0525665 2.18823e-10 1.30908e-10 8.79147e-11 0.401762 0.868771 0 0 0 0 0 0 0 0 0 0 0 0 0 0 0 0 0 0 0 0 0 0 0 0 0 0 0 0 0 0 0 0 0 0 0 0 0 0 0 0 0 0
0.0552647 2.18678e-10 1.30194e-10 8.84842e-11 0.404632 0.863861 0 0 0 0 0 0 0 0 0 0 0 0 0 0 0 0 0 0 0 0 0 0 0 0 0 0 0 0 0 0 0 0 0 0 0 0 0 0 0 0 0 0
0.0581015 2.18534e-10 1.29448e-10 8.90862e-11 0.407654 0.8587 0 0 0 0 0 0 0 0 0 0 0 0 0 0 0 0 0 0 0 0 0 0 0 0 0 0 0 0 0 0 0 0 0 0 0 0 0 0 0 0 0 0
0.0610839 2.18373e-10 1.2866e-10 8.97131e-11 0.410825 0.853276 0 0 0 0 0 0 0 0 0 0 0 0 0 0 0 0 0 0 0 0 0 0 0 0 0 0 0 0 0 0 0 0 0 0 0 0 0 0 0 0 0 0
0.0642193 2.18211e-10 1.27831e-10 9.03805e-11 0.414188 0.847571 0 0 0 0 0 0 0 0 0 0 0 0 0 0 0 0 0 0 0 0 0 0 0 0 0 0 0 0 0 0 0 0 0 0 0 0 0 0 0 0 0 0
0.0675157 2.18042e-10 1.26961e-10 9.10808e-11 0.417721 0.841578 0 0 0 0 0 0 0 0 0 0 0 0 0 0 0 0 0 0 0 0 0 0 0 0 0 0 0 0 0 0 0 0 0 0 0 0 0 0 0 0 0 0
0.0709813 2.17857e-10 1.26042e-10 9.1815e-11 0.421447 0.835275 0 0 0 0 0 0 0 0 0 0 0 0 0 0 0 0 0 0 0 0 0 0 0 0 0 0 0 0 0 0 0 0 0 0 0 0 0 0 0 0 0 0
0.0746248 2.17664e-10 1.25081e-10 9.2583e-11 0.425348 0.828643 0 0 0 0 0 0 0 0 0 0 0 0 0 0 0 0 0 0 0 0 0 0 0 0 0 0 0 0 0 0 0 0 0 0 0 0 0 0 0 0 0 0
0.0784553 2.17463e-10 1.2407e-10 9.33925e-11 0.429464 0.821674 0 0 0 0 0 0 0 0 0 0 0 0 0 0 0 0 0 0 0 0 0 0 0 0 0 0 0 0 0 0 0 0 0 0 0 0 0 0 0 0 0 0
0.0824824 2.17251e-10 1.23003e-10 9.42481e-11 0.433822 0.814356 0 0 0 0 0 0 0 0 0 0 0 0 0 0 0 0 0 0 0 0 0 0 0 0 0 0 0 0 0 0 0 0 0 0 0 0 0 0 0 0 0 0
0.0867162 2.17026e-10 1.21886e-10 9.51401e-11 0.438381 0.806651 0 0 0 0 0 0 0 0 0 0 0 0 0 0 0 0 0 0 0 0 0 0 0 0 0 0 0 0 0 0 0 0 0 0 0 0 0 0 0 0 0 0
0.0911674 2.16789e-10 1.20707e-10 9.60816e-11 0.443204 0.798552 0 0 0 0 0 0 0 0 0 0 0 0 0 0 0 0 0 0 0 0 0 0 0 0 0 0 0 0 0 0 0 0 0 0 0 0 0 0 0 0 0 0
0.095847 2.16547e-10 1.19475e-10 9.70726e-11 0.448274 0.790043 0 0 0 0 0 0 0 0 0 0 0 0 0 0 0 0 0 0 0 0 0 0 0 0 0 0 0 0 0 0 0 0 0 0 0 0 0 0 0 0 0 0
0.100767 2.1629e-10 1.18173e-10 9.81178e-11 0.453639 0.781097 0 0 0 0 0 0 0 0 0 0 0 0 0 0 0 0 0 0 0 0 0 0 0 0 0 0 0 0 0 0 0 0 0 0 0 0 0 0 0 0 0 0
0.105939 2.16013e-10 1.16803e-10 9.92101e-11 0.459278 0.771683 0 0 0 0 0 0 0 0 0 0 0 0 0 0 0 0 0 0 0 0 0 0 0 0 0 0 0 0 0 0 0 0 0 0 0 0 0 0 0 0 0 0
0.111377 2.15731e-10 1.15366e-10 1.00365e-10 0.465231 0.761798 0 0 0 0 0 0 0 0 0 0 0 0 0 0 0 0 0 0 0 0 0 0 0 0 0 0 0 0 0 0 0 0 0 0 0 0 0 0 0 0 0 0
0.117094 2.15426e-10 1.13856e-10 1.0157e-10 0.471485 0.751397 0 0 0 0 0 0 0 0 0 0 0 0 0 0 0 0 0 0 0 0 0 0 0 0 0 0 0 0 0 0 0 0 0 0 0 0 0 0 0 0 0 0
0.123105 2.15113e-10 1.12266e-10 1.02847e-10 0.478106 0.74046 0 0 0 0 0 0 0 0 0 0 0 0 0 0 0 0 0 0 0 0 0 0 0 0 0 0 0 0 0 0 0 0 0 0 0 0 0 0 0 0 0 0
0.129424 2.14783e-10 1.10599e-10 1.04184e-10 0.485067 0.728971 0 0 0 0 0 0 0 0 0 0 0 0 0 0 0 0 0 0 0 0 0 0 0 0 0 0 0 0 0 0 0 0 0 0 0 0 0 0 0 0 0 0
0.136067 2.14436e-10 1.08843e-10 1.05593e-10 0.492422 0.716884 0 0 0 0 0 0 0 0 0 0 0 0 0 0 0 0 0 0 0 0 0 0 0 0 0 0 0 0 0 0 0 0 0 0 0 0 0 0 0 0 0 0
0.143051 2.14066e-10 1.06997e-10 1.07069e-10 0.500169 0.70418 0 0 0 0 0 0 0 0 0 0 0 0 0 0 0 0 0 0 0 0 0 0 0 0 0 0 0 0 0 0 0 0 0 0 0 0 0 0 0 0 0 0
0.150394 2.13679e-10 1.05057e-10 1.08622e-10 0.508342 0.690828 0 0 0 0 0 0 0 0 0 0 0 0 0 0 0 0 0 0 0 0 0 0 0 0 0 0 0 0 0 0 0 0 0 0 0 0 0 0 0 0 0 0
0.158114 2.13274e-10 1.03019e-10 1.10255e-10 0.516962 0.676781 0 0 0 0 0 0 0 0 0 0 0 0 0 0 0 0 0 0 0 0 0 0 0 0 0 0 0 0 0 0 0 0 0 0 0 0 0 0 0 0 0 0
0.16623 2.12853e-10 1.00874e-10 1.11978e-10 0.526084 0.662022 0 0 0 0 0 0 0 0 0 0 0 0 0 0 0 0 0 0 0 0 0 0 0 0 0 0 0 0 0 0 0 0 0 0 0 0 0 0 0 0 0 0
0.174762 2.12403e-10 9.86205e-11 1.13782e-10 0.535691 0.646501 0 0 0 0 0 0 0 0 0 0 0 0 0 0 0 0 0 0 0 0 0 0 0 0 0 0 0 0 0 0 0 0 0 0 0 0 0 0 0 0 0 0
0.183733 2.11928e-10 9.62489e-11 1.15679e-10 0.545841 0.630185 0 0 0 0 0 0 0 0 0 0 0 0 0 0 0 0 0 0 0 0 0 0 0 0 0 0 0 0 0 0 0 0 0 0 0 0 0 0 0 0 0 0
0.193164 2.11432e-10 9.37556e-11 1.17677e-10 0.556569 0.613031 0 0 0 0 0 0 0 0 0 0 0 0 0 0 0 0 0 0 0 0 0 0 0 0 0 0 0 0 0 0 0 0 0 0 0 0 0 0 0 0 0 0
0.203079 2.09072e-10 9.10751e-11 1.17996e-10 0.564383 0.593199 0 0 0 0 0 0 0 0 0 0 0 0 0 0 0 0 0 0 0 0 0 0 0 0 0 0 0 0 0 0 0 0 0 0 0 0 0 0 0 0 0 0
0.213503 1.98232e-10 8.79813e-11 1.10251e-10 0.556171 0.564169 0 0 0 0 0 0 0 0 0 0 0 0 0 0 0 0 0 0 0 0 0 0 0 0 0 0 0 0 0 0 0 0 0 0 0 0 0 0 0 0 0 0
0.224463 1.8661e-10 8.47247e-11 1.01885e-10 0.545979 0.533427 0 0 0 0 0 0 0 0 0 0 0 0 0 0 0 0 0 0 0 0 0 0 0 0 0 0 0 0 0 0 0 0 0 0 0 0 0 0 0 0 0 0
0.235984 1.74396e-10 8.13035e-11 9.30929e-11 0.533801 0.501102 0 0 0 0 0 0 0 0 0 0 0 0 0 0 0 0 0 0 0 0 0 0 0 0 0 0 0 0 0 0 0 0 0 0 0 0 0 0 0 0 0 0
0.248097 1.61552e-10 7.77003e-11 8.38522e-11 0.51904 0.467127 0 0 0 0 0 0 0 0 0 0 0 0 0 0 0 0 0 0 0 0 0 0 0 0 0 0 0 0 0 0 0 0 0 0 0 0 0 0 0 0 0 0
0.260832 1.48046e-10 7.39145e-11 7.41314e-11 0.500732 0.431403 0 0 0 0 0 0 0 0 0 0 0 0 0 0 0 0 0 0 0 0 0 0 0 0 0 0 0 0 0 0 0 0 0 0 0 0 0 0 0 0 0 0
0.274221 1.33847e-10 6.9934e-11 6.39133e-11 0.477509 0.393845 0 0 0 0 0 0 0 0 0 0 0 0 0 0 0 0 0 0 0 0 0 0 0 0 0 0 0 0 0 0 0 0 0 0 0 0 0 0 0 0 0 0
0.288297 1.18921e-10 6.57499e-11 5.31706e-11 0.447111 0.35436 0 0 0 0 0 0 0 0 0 0 0 0 0 0 0 0 0 0 0 0 0 0 0 0 0 0 0 0 0 0 0 0 0 0 0 0 0 0 0 0 0 0
0.303095 1.03832e-10 6.13878e-11 4.24445e-11 0.408779 0.31436 0 0 0 0 0 0 0 0 0 0 0 0 0 0 0 0 0 0 0 0 0 0 0 0 0 0 0 0 0 0 0 0 0 0 0 0 0 0 0 0 0 0
0.318653 9.54804e-11 5.72659e-11 3.82145e-11 0.400234 0.291122 0 0 0 0 0 0 0 0 0 0 0 0 0 0 0 0 0 0 0 0 0 0 0 0 0 0 0 0 0 0 0 0 0 0 0 0 0 0 0 0 0 0
0.335009 8.72459e-11 5.29663e-11 3.42796e-11 0.392908 0.268056 0 0 0 0 0 0 0 0 0 0 0 0 0 0 0 0 0 0 0 0 0 0 0 0 0 0 0 0 0 0 0 0 0 0 0 0 0 0 0 0 0 0
0.352205 7.8588e-11 4.84454e-11 3.01426e-11 0.383552 0.243805 0 0 0 0 0 0 0 0 0 0 0 0 0 0 0 0 0 0 0 0 0 0 0 0 0 0 0 0 0 0 0 0 0 0 0 0 0 0 0 0 0 0
0.370284 6.94866e-11 4.3693e-11 2.57935e-11 0.371202 0.218312 0 0 0 0 0 0 0 0 0 0 0 0 0 0 0 0 0 0 0 0 0 0 0 0 0 0 0 0 0 0 0 0 0 0 0 0 0 0 0 0 0 0
0.389291 5.99176e-11 3.86967e-11 2.12209e-11 0.354168 0.191506 0 0 0 0 0 0 0 0 0 0 0 0 0 0 0 0 0 0 0 0 0 0 0 0 0 0 0 0 0 0 0 0 0 0 0 0 0 0 0 0 0 0
0.409273 5.123e-11 3.41242e-11 1.71059e-11 0.333903 0.167279 0 0 0 0 0 0 0 0 0 0 0 0 0 0 0 0 0 0 0 0 0 0 0 0 0 0 0 0 0 0 0 0 0 0 0 0 0 0 0 0 0 0
0.430281 4.65796e-11 3.15401e-11 1.50395e-11 0.322878 0.154735 0 0 0 0 0 0 0 0 0 0 0 0 0 0 0 0 0 0 0 0 0 0 0 0 0 0 0 0 0 0 0 0 0 0 0 0 0 0 0 0 0 0
0.452368 4.16909e-11 2.88234e-11 1.28675e-11 0.30864 0.141547 0 0 0 0 0 0 0 0 0 0 0 0 0 0 0 0 0 0 0 0 0 0 0 0 0 0 0 0 0 0 0 0 0 0 0 0 0 0 0 0 0 0
0.475588 3.65515e-11 2.59678e-11 1.05837e-11 0.289555 0.127682 0 0 0 0 0 0 0 0 0 0 0 0 0 0 0 0 0 0 0 0 0 0 0 0 0 0 0 0 0 0 0 0 0 0 0 0 0 0 0 0 0 0
0.5 3.1154e-11 2.29679e-11 8.18614e-12 0.262764 0.113115 0 0 0 0 0 0 0 0 0 0 0 0 0 0 0 0 0 0 0 0 0 0 0 0 0 0 0 0 0 0 0 0 0 0 0 0 0 0 0 0 0 0
0.525665 2.78306e-11 2.09814e-11 6.84924e-12 0.246105 0.103285 0 0 0 0 0 0 0 0 0 0 0 0 0 0 0 0 0 0 0 0 0 0 0 0 0 0 0 0 0 0 0 0 0 0 0 0 0 0 0 0 0 0
0.552648 2.50813e-11 1.92619e-11 5.81939e-12 0.232021 0.0946872 0 0 0 0 0 0 0 0 0 0 0 0 0 0 0 0 0 0 0 0 0 0 0 0 0 0 0 0 0 0 0 0 0 0 0 0 0 0 0 0 0 0
0.581015 2.21913e-11 1.74545e-11 4.73679e-12 0.213453 0.085648 0 0 0 0 0 0 0 0 0 0 0 0 0 0 0 0 0 0 0 0 0 0 0 0 0 0 0 0 0 0 0 0 0 0 0 0 0 0 0 0 0 0
0.610839 1.93179e-11 1.56446e-11 3.67333e-12 0.190151 0.0765806 0 0 0 0 0 0 0 0 0 0 0 0 0 0 0 0 0 0 0 0 0 0 0 0 0 0 0 0 0 0 0 0 0 0 0 0 0 0 0 0 0 0
0.642193 1.76103e-11 1.44611e-11 3.1492e-12 0.178827 0.0705149 0 0 0 0 0 0 0 0 0 0 0 0 0 0 0 0 0 0 0 0 0 0 0 0 0 0 0 0 0 0 0 0 0 0 0 0 0 0 0 0 0 0
0.675157 1.5815e-11 1.32169e-11 2.59815e-12 0.164284 0.0641385 0 0 0 0 0 0 0 0 0 0 0 0 0 0 0 0 0 0 0 0 0 0 0 0 0 0 0 0 0 0 0 0 0 0 0 0 0 0 0 0 0 0
0.709813 1.39997e-11 1.19519e-11 2.04782e-12 0.146276 0.0576567 0 0 0 0 0 0 0 0 0 0 0 0 0 0 0 0 0 0 0 0 0 0 0 0 0 0 0 0 0 0 0 0 0 0 0 0 0 0 0 0 0 0
0.746248 1.27364e-11 1.10082e-11 1.72825e-12 0.135693 0.0528382 0 0 0 0 0 0 0 0 0 0 0 0 0 0 0 0 0 0 0 0 0 0 0 0 0 0 0 0 0 0 0 0 0 0 0 0 0 0 0 0 0 0
0.784553 1.14624e-11 1.00485e-11 1.41384e-12 0.123347 0.0479393 0 0 0 0 0 0 0 0 0 0 0 0 0 0 0 0 0 0 0 0 0 0 0 0 0 0 0 0 0 0 0 0 0 0 0 0 0 0 0 0 0 0
0.824824 1.02879e-11 9.14943e-12 1.13846e-12 0.11066 0.0433534 0 0 0 0 0 0 0 0 0 0 0 0 0 0 0 0 0 0 0 0 0 0 0 0 0 0 0 0 0 0 0 0 0 0 0 0 0 0 0 0 0 0
0.867162 9.36128e-12 8.40964e-12 9.51634e-13 0.101656 0.039583 0 0 0 0 0 0 0 0 0 0 0 0 0 0 0 0 0 0 0 0 0 0 0 0 0 0 0 0 0 0 0 0 0 0 0 0 0 0 0 0 0 0
0.911674 8.39561e-12 7.63786e-12 7.57741e-13 0.0902544 0.0356522 0 0 0 0 0 0 0 0 0 0 0 0 0 0 0 0 0 0 0 0 0 0 0 0 0 0 0 0 0 0 0 0 0 0 0 0 0 0 0 0 0 0
0.95847 7.67463e-12 7.03827e-12 6.36355e-13 0.0829168 0.0326008 0 0 0 0 0 0 0 0 0 0 0 0 0 0 0 0 0 0 0 0 0 0 0 0 0 0 0 0 0 0 0 0 0 0 0 0 0 0 0 0 0 0
1.00767 6.92848e-12 6.41652e-12 5.11961e-13 0.0738923 0.0294377 0 0 0 0 0 0 0 0 0 0 0 0 0 0 0 0 0 0 0 0 0 0 0 0 0 0 0 0 0 0 0 0 0 0 0 0 0 0 0 0 0 0
1.05939 6.33785e-12 5.91152e-12 4.26329e-13 0.0672671 0.026851 0 0 0 0 0 0 0 0 0 0 0 0 0 0 0 0 0 0 0 0 0 0 0 0 0 0 0 0 0 0 0 0 0 0 0 0 0 0 0 0 0 0
1.11377 5.75069e-12 5.4067e-12 3.43992e-13 0.0598175 0.0242628 0 0 0 0 0 0 0 0 0 0 0 0 0 0 0 0 0 0 0 0 0 0 0 0 0 0 0 0 0 0 0 0 0 0 0 0 0 0 0 0 0 0
1.17094 5.27244e-12 4.98633e-12 2.8611e-13 0.0542653 0.022112 0 0 0 0 0 0 0 0 0 0 0 0 0 0 0 0 0 0 0 0 0 0 0 0 0 0 0 0 0 0 0 0 0 0 0 0 0 0 0 0 0 0
1.23105 4.80691e-12 4.57467e-12 2.32234e-13 0.0483126 0.0200108 0 0 0 0 0 0 0 0 0 0 0 0 0 0 0 0 0 0 0 0 0 0 0 0 0 0 0 0 0 0 0 0 0 0 0 0 0 0 0 0 0 0
1.29424 4.40481e-12 4.21343e-12 1.9138e-13 0.0434479 0.0181821 0 0 0 0 0 0 0 0 0 0 0 0 0 0 0 0 0 0 0 0 0 0 0 0 0 0 0 0 0 0 0 0 0 0 0 0 0 0 0 0 0 0
1.36067 4.03595e-12 3.87865e-12 1.57298e-13 0.0389744 0.0165283 0 0 0 0 0 0 0 0 0 0 0 0 0 0 0 0 0 0 0 0 0 0 0 0 0 0 0 0 0 0 0 0 0 0 0 0 0 0 0 0 0 0
1.43051 3.68925e-12 3.56114e-12 1.28112e-13 0.0347259 0.0149913 0 0 0 0 0 0 0 0 0 0 0 0 0 0 0 0 0 0 0 0 0 0 0 0 0 0 0 0 0 0 0 0 0 0 0 0 0 0 0 0 0 0
1.50394 3.37697e-12 3.27161e-12 1.0536e-13 0.0311994 0.0136138 0 0 0 0 0 0 0 0 0 0 0 0 0 0 0 0 0 0 0 0 0 0 0 0 0 0 0 0 0 0 0 0 0 0 0 0 0 0 0 0 0 0
1.58114 3.08449e-12 2.99772e-12 8.67632e-14 0.0281289 0.0123699 0 0 0 0 0 0 0 0 0 0 0 0 0 0 0 0 0 0 0 0 0 0 0 0 0 0 0 0 0 0 0 0 0 0 0 0 0 0 0 0 0 0
1.6623 2.80768e-12 2.7366e-12 7.1078e-14 0.0253156 0.0112243 0 0 0 0 0 0 0 0 0 0 0 0 0 0 0 0 0 0 0 0 0 0 0 0 0 0 0 0 0 0 0 0 0 0 0 0 0 0 0 0 0 0
1.74763 2.55091e-12 2.49281e-12 5.80992e-14 0.0227758 0.0101786 0 0 0 0 0 0 0 0 0 0 0 0 0 0 0 0 0 0 0 0 0 0 0 0 0 0 0 0 0 0 0 0 0 0 0 0 0 0 0 0 0 0
1.83733 2.31976e-12 2.27225e-12 4.7506e-14 0.0204789 0.00923301 0 0 0 0 0 0 0 0 0 0 0 0 0 0 0 0 0 0 0 0 0 0 0 0 0 0 0 0 0 0 0 0 0 0 0 0 0 0 0 0 0 0
1.93164 2.11554e-12 2.07674e-12 3.87946e-14 0.0183379 0.00837308 0 0 0 0 0 0 0 0 0 0 0 0 0 0 0 0 0 0 0 0 0 0 0 0 0 0 0 0 0 0 0 0 0 0 0 0 0 0 0 0 0 0
2.03079 1.93867e-12 1.90695e-12 3.17204e-14 0.016362 0.00759664 0 0 0 0 0 0 0 0 0 0 0 0 0 0 0 0 0 0 0 0 0 0 0 0 0 0 0 0 0 0 0 0 0 0 0 0 0 0 0 0 0 0
2.13503 1.77539e-12 1.74942e-12 2.59702e-14 0.0146279 0.00689576 0 0 0 0 0 0 0 0 0 0 0 0 0 0 0 0 0 0 0 0 0 0 0 0 0 0 0 0 0 0 0 0 0 0 0 0 0 0 0 0 0 0
2.24463 1.64541e-12 1.62416e-12 2.12577e-14 0.0129194 0.0062603 0 0 0 0 0 0 0 0 0 0 0 0 0 0 0 0 0 0 0 0 0 0 0 0 0 0 0 0 0 0 0 0 0 0 0 0 0 0 0 0 0 0
2.35984 1.5329e-12 1.51547e-12 1.7425e-14 0.0113674 0.00568574 0 0 0 0 0 0 0 0 0 0 0 0 0 0 0 0 0 0 0 0 0 0 0 0 0 0 0 0 0 0 0 0 0 0 0 0 0 0 0 0 0 0
2.48097 1.42338e-12 1.40909e-12 1.42833e-14 0.0100348 0.00516458 0 0 0 0 0 0 0 0 0 0 0 0 0 0 0 0 0 0 0 0 0 0 0 0 0 0 0 0 0 0 0 0 0 0 0 0 0 0 0 0 0 0
2.60832 1.32136e-12 1.30967e-12 1.16891e-14 0.00884624 0.00469015 0 0 0 0 0 0 0 0 0 0 0 0 0 0 0 0 0 0 0 0 0 0 0 0 0 0 0 0 0 0 0 0 0 0 0 0 0 0 0 0 0 0
2.74221 1.22769e-12 1.21812e-12 9.57246e-15 0.00779712 0.00426149 0 0 0 0 0 0 0 0 0 0 0 0 0 0 0 0 0 0 0 0 0 0 0 0 0 0 0 0 0 0 0 0 0 0 0 0 0 0 0 0 0 0
2.88297 1.13938e-12 1.13154e-12 7.83951e-15 0.00688049 0.00387321 0 0 0 0 0 0 0 0 0 0 0 0 0 0 0 0 0 0 0 0 0 0 0 0 0 0 0 0 0 0 0 0 0 0 0 0 0 0 0 0 0 0
3.03095 1.05688e-12 1.05047e-12 6.40693e-15 0.00606211 0.00351961 0 0 0 0 0 0 0 0 0 0 0 0 0 0 0 0 0 0 0 0 0 0 0 0 0 0 0 0 0 0 0 0 0 0 0 0 0 0 0 0 0 0
3.18653 9.82689e-13 9.77439e-13 5.24931e-15 0.00534178 0.00320203 0 0 0 0 0 0 0 0 0 0 0 0 0 0 0 0 0 0 0 0 0 0 0 0 0 0 0 0 0 0 0 0 0 0 0 0 0 0 0 0 0 0
3.35009 9.1145e-13 9.0716e-13 4.29025e-15 0.00470706 0.00291216 0 0 0 0 0 0 0 0 0 0 0 0 0 0 0 0 0 0 0 0 0 0 0 0 0 0 0 0 0 0 0 0 0 0 0 0 0 0 0 0 0 0
3.52205 8.43969e-13 8.40453e-13 3.51635e-15 0.00416644 0.00265177 0 0 0 0 0 0 0 0 0 0 0 0 0 0 0 0 0 0 0 0 0 0 0 0 0 0 0 0 0 0 0 0 0 0 0 0 0 0 0 0 0 0
3.70284 7.79161e-13 7.76287e-13 2.87391e-15 0.00368847 0.0024146 0 0 0 0 0 0 0 0 0 0 0 0 0 0 0 0 0 0 0 0 0 0 0 0 0 0 0 0 0 0 0 0 0 0 0 0 0 0 0 0 0 0
3.89291 7.22097e-13 7.1975e-13 2.34701e-15 0.00325026 0.00219957 0 0 0 0 0 0 0 0 0 0 0 0 0 0 0 0 0 0 0 0 0 0 0 0 0 0 0 0 0 0 0 0 0 0 0 0 0 0 0 0 0 0
4.09273 6.69885e-13 6.67969e-13 1.91575e-15 0.00285982 0.00200474 0 0 0 0 0 0 0 0 0 0 0 0 0 0 0 0 0 0 0 0 0 0 0 0 0 0 0 0 0 0 0 0 0 0 0 0 0 0 0 0 0 0
4.30281 6.2219e-13 6.20627e-13 1.56278e-15 0.00251174 0.00182829 0 0 0 0 0 0 0 0 0 0 0 0 0 0 0 0 0 0 0 0 0 0 0 0 0 0 0 0 0 0 0 0 0 0 0 0 0 0 0 0 0 0
4.52368 5.79038e-13 5.77764e-13 1.27362e-15 0.00219955 0.00166834 0 0 0 0 0 0 0 0 0 0 0 0 0 0 0 0 0 0 0 0 0 0 0 0 0 0 0 0 0 0 0 0 0 0 0 0 0 0 0 0 0 0
4.75588 5.4013e-13 5.39094e-13 1.03592e-15 0.0019179 0.00152308 0 0 0 0 0 0 0 0 0 0 0 0 0 0 0 0 0 0 0 0 0 0 0 0 0 0 0 0 0 0 0 0 0 0 0 0 0 0 0 0 0 0
5 5.05737e-13 5.04896e-13 8.4089e-16 0.0016627 0.00139144 0 0 0 0 0 0 0 0 0 0 0 0 0 0 0 0 0 0 0 0 0 0 0 0 0 0 0 0 0 0 0 0 0 0 0 0 0 0 0 0 0 0
5.25665 4.80644e-13 4.79965e-13 6.78716e-16 0.0014121 0.00127106 0 0 0 0 0 0 0 0 0 0 0 0 0 0 0 0 0 0 0 0 0 0 0 0 0 0 0 0 0 0 0 0 0 0 0 0 0 0 0 0 0 0
5.52648 4.59645e-13 4.59095e-13 5.49916e-16 0.00119639 0.00116304 0 0 0 0 0 0 0 0 0 0 0 0 0 0 0 0 0 0 0 0 0 0 0 0 0 0 0 0 0 0 0 0 0 0 0 0 0 0 0 0 0 0
5.81015 4.48015e-13 4.47571e-13 4.43676e-16 0.000990315 0.00106504 0 0 0 0 0 0 0 0 0 0 0 0 0 0 0 0 0 0 0 0 0 0 0 0 0 0 0 0 0 0 0 0 1.4013e-45 0 4.2039e-45 0 1.12104e-44 0 2.8026e-44 0 6.5861e-44 0
6.10839 4.68765e-13 4.68407e-13 3.58014e-16 0.00076374 0.000976288 0 0 0 0 0 0 0 0 0 0 0 0 0 0 0 0 0 0 0 0 0 0 0 0 1.4013e-45 0 5.60519e-45 0 1.82169e-44 0 5.88545e-44 0 1.65353e-43 0 4.54021e-43 0 1.12524e-42 0 2.68349e-42 0 6.0452e-42 0
6.42193 4.66005e-13 4.65714e-13 2.90946e-16 0.000624342 0.000897229 0 0 0 0 0 0 0 0 0 0 0 0 0 0 0 0 0 0 1.4013e-45 0 7.00649e-45 0 3.36312e-44 0 1.4013e-43 0 5.08671e-43 0 1.70958e-42 0 5.11334e-42 0 1.36977e-41 0 3.59405e-41 0 8.51933e-41 0 1.9474e-40 0 4.21568e-40 0
6.75157 4.7537e-13 4.75136e-13 2.34366e-16 0.000493017 0.000824731 0 0 0 0 0 0 0 0 0 0 0 0 0 0 1.4013e-45 0 1.82169e-44 0 1.24716e-43 0 6.74025e-43 0 3.06184e-42 0 1.18634e-41 0 4.05326e-41 0 1.28491e-40 0 3.64314e-40 0 9.30193e-40 0 2.32836e-39 0 5.29148e-39 0 1.1617e-38 0 2.42175e-38 0
7.09813 4.81373e-13 4.81184e-13 1.88683e-16 0.000391969 0.00075928 0 0 0 0 0 0 0 0 0 0 1.4013e-45 0 1.68156e-44 0 1.97583e-43 0 1.67595e-42 0 1.04705e-41 0 5.20624e-41 0 2.1962e-40 0 7.9635e-40 0 2.56236e-39 0 7.67788e-39 0 2.06894e-38 0 5.04624e-38 0 1.20778e-37 0 2.637e-37 0 5.57122e-37 0 1.1205e-36 0
7.46248 5.11406e-13 5.11256e-13 1.49474e-16 0.000292281 0.000698794 0 0 0 0 0 0 0 0 2.8026e-45 0 8.96831e-44 0 1.59748e-42 0 1.6838e-41 0 1.28373e-40 0 7.33344e-40 0 3.37169e-39 0 1.32577e-38 0 4.51426e-38 0 1.37197e-37 0 3.8965e-37 0 1.00037e-36 0 2.33602e-36 0 5.35787e-36 0 1.12605e-35 0 2.2937e-35 0 4.45843e-35 0
7.84553 5.89758e-13 5.89638e-13 1.1998e-16 0.000203439 0.000644879 0 0 0 0 0 0 2.8026e-45 0 2.63444e-43 0 8.47225e-42 0 1.31864e-40 0 1.23921e-39 0 8.55575e-39 0 4.4889e-38 0 1.91572e-37 0 7.04564e-37 0 2.25974e-36 0 6.50495e-36 0 1.75567e-35 0 4.30463e-35 0 9.64425e-35 0 2.12414e-34 0 4.30524e-34 0 8.47018e-34 0 1.59384e-33 0
8.24824 6.79598e-13 6.79503e-13 9.46775e-17 0.000139314 0.000595046 0 0 0 0 0 0 2.88667e-43 0 2.356e-41 0 6.40955e-40 0 8.72397e-39 0 7.34901e-38 0 4.61714e-37 0 2.23412e-36 0 8.8824e-36 0 3.06553e-35 0 9.28818e-35 0 2.53921e-34 0 6.52895e-34 0 1.53222e-33 0 3.30026e-33 0 6.9939e-33 0 1.36948e-32 0 2.60676e-32 0 4.75607e-32 0
8.67162 8.66242e-13 8.66165e-13 7.7048e-17 8.8945e-05 0.000550739 0 0 0 0 5.60519e-44 0 2.83763e-41 0 1.8655e-39 0 4.31912e-38 0 5.17512e-37 0 3.92869e-36 0 2.25644e-35 0 1.01094e-34 0 3.75736e-34 0 1.22065e-33 0 3.50358e-33 0 9.11915e-33 0 2.23911e-32 0 5.04039e-32 0 1.04574e-31 0 2.13633e-31 0 4.04813e-31 0 7.4671e-31 0 1.32297e-30 0
9.11674 1.0816e-12 1.08153e-12 6.51333e-17 6.02196e-05 0.000511554 0 0 0 0 5.80418e-42 0 2.18016e-39 0 1.16836e-37 0 2.32034e-36 0 2.46274e-35 0 1.69342e-34 0 8.93047e-34 0 3.71858e-33 0 1.29628e-32 0 3.97578e-32 0 1.08389e-31 0 2.69243e-31 0 6.32728e-31 0 1.36899e-30 0 2.74084e-30 0 5.40733e-30 0 9.93154e-30 0 1.778e-29 0 3.06338e-29 0
9.5847 1.25868e-12 1.25862e-12 5.85433e-17 4.65117e-05 0.000478443 0 0 1.26117e-44 0 4.48445e-40 0 1.26121e-37 0 5.56486e-36 0 9.55114e-35 0 9.03308e-34 0 5.65327e-33 0 2.74886e-32 0 1.0676e-31 0 3.50147e-31 0 1.01674e-30 0 2.63942e-30 0 6.27154e-30 0 1.41361e-29 0 2.94543e-29 0 5.70049e-29 0 1.08794e-28 0 1.93975e-28 0 3.3753e-28 0 5.663e-28 0
10.0767 1.30252e-12 1.30246e-12 5.40442e-17 4.14922e-05 0.000451039 0 0 1.22473e-42 0 2.48004e-38 0 5.29618e-36 0 1.94237e-34 0 2.90171e-33 0 2.4592e-32 0 1.40725e-31 0 6.33415e-31 0 2.30237e-30 0 7.12576e-30 0 1.96421e-29 0 4.86696e-29 0 1.10859e-28 0 2.40157e-28 0 4.82779e-28 0 9.04712e-28 0 1.673e-27 0 2.89986e-27 0 4.91133e-27 0 8.03453e-27 0
10.5939 1.21146e-12 1.21142e-12 4.83981e-17 3.99501e-05 0.00042716 2.8026e-45 0 8.03378e-41 0 1.00276e-36 0 1.64803e-34 0 5.06938e-33 0 6.63656e-32 0 5.06718e-31 0 2.6629e-30 0 1.11372e-29 0 3.801e-29 0 1.11326e-28 0 2.92049e-28 0 6.92284e-28 0 1.51476e-27 0 3.15991e-27 0 6.13935e-27 0 1.11575e-26 0 2.00225e-26 0 3.37859e-26 0 5.5768e-26 0 8.90655e-26 0
11.1377 1.07359e-12 1.07355e-12 4.2126e-17 3.92384e-05 0.000405216 1.9478e-43 0 4.03052e-39 0 3.17427e-35 0 4.06658e-33 0 1.05821e-31 0 1.22186e-30 0 8.44778e-30 0 4.09402e-29 0 1.59673e-28 0 5.13242e-28 0 1.42638e-27 0 3.5698e-27 0 8.11283e-27 0 1.70855e-26 0 3.4385e-26 0 6.46744e-26 0 1.14159e-25 0 1.99096e-25 0 3.27481e-25 0 5.27484e-25 0 8.23393e-25 0
11.7094 9.00935e-13 9.00899e-13 3.62088e-17 4.01903e-05 0.00038541 1.22347e-41 0 1.55324e-37 0 7.89387e-34 0 7.97949e-32 0 1.77097e-30 0 1.81464e-29 0 1.1416e-28 0 5.12219e-28 0 1.86929e-27 0 5.6756e-27 0 1.50056e-26 0 3.59093e-26 0 7.84023e-26 0 1.59218e-25 0 3.09673e-25 0 5.6477e-25 0 9.69618e-25 0 1.64573e-24 0 2.64199e-24 0 4.15764e-24 0 6.35041e-24 0
12.3105 6.47822e-13 6.47792e-13 2.99345e-17 4.6208e-05 0.000366644 5.25138e-40 0 4.20311e-36 0 1.40824e-32 0 1.13628e-30 0 2.16768e-29 0 1.98259e-28 0 1.14014e-27 0 4.75412e-27 0 1.6287e-26 0 4.6841e-26 0 1.181e-25 0 2.70835e-25 0 5.69205e-25 0 1.11663e-24 0 2.1024e-24 0 3.72343e-24 0 6.22603e-24 0 1.0298e-23 0 1.61543e-23 0 2.4865e-23 0 3.72016e-23 0
