# 1.11697e-05 1 55 : grain size, compostion index, size index
# Heating and cooling timescale: 0.0355914 271100
# Ratio of heating to cooling to determine stochastic cutoff: 100
# Equilibrium emission is recorded even for those grains in the stochastic regime.
# Emission spectrum was computed for: 
# Type: IRSF
# Scales: 0.25 0.5 1 1.5 2 2.5 3 3.5 4 4.5 5 5.5 6 6.5 7 7.5 8 8.5 9 9.5 10
# StochasticallyHeated: 0 0 0 0 0 0 0 0 0 0 0 0 0 0 0 0 0 0 0 0 0
# Temperature: -1
# Wavelength  CExt  CAbs  CSca  Albedo G EqEm1 StEm1 EqEm2 StEm2 EqEm3 StEm3 EqEm4 StEm4 EqEm5 StEm5 EqEm6 StEm6 EqEm7 StEm7 EqEm8 StEm8 EqEm9 StEm9 EqEm10 StEm10 EqEm11 StEm11 EqEm12 StEm12 EqEm13 StEm13 EqEm14 StEm14 EqEm15 StEm15 EqEm16 StEm16 EqEm17 StEm17 EqEm18 StEm18 EqEm19 StEm19 EqEm20 StEm20 EqEm21 StEm21
0.05 8.41362e-10 3.06673e-10 5.3469e-10 0.635505 0.849294 0 0 0 0 0 0 0 0 0 0 0 0 0 0 0 0 0 0 0 0 0 0 0 0 0 0 0 0 0 0 0 0 0 0 0 0 0 0 0 0 0 0
0.0525665 8.51546e-10 3.0943e-10 5.42116e-10 0.636626 0.836956 0 0 0 0 0 0 0 0 0 0 0 0 0 0 0 0 0 0 0 0 0 0 0 0 0 0 0 0 0 0 0 0 0 0 0 0 0 0 0 0 0 0
0.0552647 8.6233e-10 3.13895e-10 5.48435e-10 0.635992 0.826603 0 0 0 0 0 0 0 0 0 0 0 0 0 0 0 0 0 0 0 0 0 0 0 0 0 0 0 0 0 0 0 0 0 0 0 0 0 0 0 0 0 0
0.0581015 8.71956e-10 3.1987e-10 5.52085e-10 0.633158 0.819906 0 0 0 0 0 0 0 0 0 0 0 0 0 0 0 0 0 0 0 0 0 0 0 0 0 0 0 0 0 0 0 0 0 0 0 0 0 0 0 0 0 0
0.0610839 8.81675e-10 3.22094e-10 5.59581e-10 0.634679 0.811132 0 0 0 0 0 0 0 0 0 0 0 0 0 0 0 0 0 0 0 0 0 0 0 0 0 0 0 0 0 0 0 0 0 0 0 0 0 0 0 0 0 0
0.0642193 8.97316e-10 3.19977e-10 5.77339e-10 0.643407 0.794135 0 0 0 0 0 0 0 0 0 0 0 0 0 0 0 0 0 0 0 0 0 0 0 0 0 0 0 0 0 0 0 0 0 0 0 0 0 0 0 0 0 0
0.0675157 9.20634e-10 3.23291e-10 5.97342e-10 0.648838 0.77622 0 0 0 0 0 0 0 0 0 0 0 0 0 0 0 0 0 0 0 0 0 0 0 0 0 0 0 0 0 0 0 0 0 0 0 0 0 0 0 0 0 0
0.0709813 9.45398e-10 3.39378e-10 6.0602e-10 0.641021 0.769892 0 0 0 0 0 0 0 0 0 0 0 0 0 0 0 0 0 0 0 0 0 0 0 0 0 0 0 0 0 0 0 0 0 0 0 0 0 0 0 0 0 0
0.0746248 9.65617e-10 3.59049e-10 6.06568e-10 0.628166 0.77077 0 0 0 0 0 0 0 0 0 0 0 0 0 0 0 0 0 0 0 0 0 0 0 0 0 0 0 0 0 0 0 0 0 0 0 0 0 0 0 0 0 0
0.0784553 9.79549e-10 3.7668e-10 6.0287e-10 0.615456 0.774177 0 0 0 0 0 0 0 0 0 0 0 0 0 0 0 0 0 0 0 0 0 0 0 0 0 0 0 0 0 0 0 0 0 0 0 0 0 0 0 0 0 0
0.0824824 9.87074e-10 3.91238e-10 5.95836e-10 0.603639 0.777287 0 0 0 0 0 0 0 0 0 0 0 0 0 0 0 0 0 0 0 0 0 0 0 0 0 0 0 0 0 0 0 0 0 0 0 0 0 0 0 0 0 0
0.0867162 9.94988e-10 3.99391e-10 5.95597e-10 0.598597 0.773984 0 0 0 0 0 0 0 0 0 0 0 0 0 0 0 0 0 0 0 0 0 0 0 0 0 0 0 0 0 0 0 0 0 0 0 0 0 0 0 0 0 0
0.0911674 1.00614e-09 4.05651e-10 6.00487e-10 0.596824 0.767441 0 0 0 0 0 0 0 0 0 0 0 0 0 0 0 0 0 0 0 0 0 0 0 0 0 0 0 0 0 0 0 0 0 0 0 0 0 0 0 0 0 0
0.095847 1.01386e-09 4.12627e-10 6.01237e-10 0.593015 0.763237 0 0 0 0 0 0 0 0 0 0 0 0 0 0 0 0 0 0 0 0 0 0 0 0 0 0 0 0 0 0 0 0 0 0 0 0 0 0 0 0 0 0
0.100767 1.01e-09 4.24081e-10 5.85923e-10 0.58012 0.768789 0 0 0 0 0 0 0 0 0 0 0 0 0 0 0 0 0 0 0 0 0 0 0 0 0 0 0 0 0 0 0 0 0 0 0 0 0 0 0 0 0 0
0.105939 1.00575e-09 4.35017e-10 5.70731e-10 0.567469 0.777691 0 0 0 0 0 0 0 0 0 0 0 0 0 0 0 0 0 0 0 0 0 0 0 0 0 0 0 0 0 0 0 0 0 0 0 0 0 0 0 0 0 0
0.111377 9.94941e-10 4.54486e-10 5.40456e-10 0.543203 0.79737 0 0 0 0 0 0 0 0 0 0 0 0 0 0 0 0 0 0 0 0 0 0 0 0 0 0 0 0 0 0 0 0 0 0 0 0 0 0 0 0 0 0
0.117094 9.99235e-10 4.83004e-10 5.16231e-10 0.516626 0.824591 0 0 0 0 0 0 0 0 0 0 0 0 0 0 0 0 0 0 0 0 0 0 0 0 0 0 0 0 0 0 0 0 0 0 0 0 0 0 0 0 0 0
0.123105 1.00149e-09 5.06327e-10 4.95166e-10 0.494428 0.840907 0 0 0 0 0 0 0 0 0 0 0 0 0 0 0 0 0 0 0 0 0 0 0 0 0 0 0 0 0 0 0 0 0 0 0 0 0 0 0 0 0 0
0.129424 1.00479e-09 5.25764e-10 4.79022e-10 0.47674 0.843016 0 0 0 0 0 0 0 0 0 0 0 0 0 0 0 0 0 0 0 0 0 0 0 0 0 0 0 0 0 0 0 0 0 0 0 0 0 0 0 0 0 0
0.136067 1.05068e-09 5.26573e-10 5.24102e-10 0.498824 0.856852 0 0 0 0 0 0 0 0 0 0 0 0 0 0 0 0 0 0 0 0 0 0 0 0 0 0 0 0 0 0 0 0 0 0 0 0 0 0 0 0 0 0
0.143051 1.03263e-09 5.18872e-10 5.13758e-10 0.497524 0.873348 0 0 0 0 0 0 0 0 0 0 0 0 0 0 0 0 0 0 0 0 0 0 0 0 0 0 0 0 0 0 0 0 0 0 0 0 0 0 0 0 0 0
0.150394 9.22933e-10 5.09074e-10 4.13859e-10 0.448417 0.869055 0 0 0 0 0 0 0 0 0 0 0 0 0 0 0 0 0 0 0 0 0 0 0 0 0 0 0 0 0 0 0 0 0 0 0 0 0 0 0 0 0 0
0.158114 8.62892e-10 5.04377e-10 3.58515e-10 0.415481 0.850635 0 0 0 0 0 0 0 0 0 0 0 0 0 0 0 0 0 0 0 0 0 0 0 0 0 0 0 0 0 0 0 0 0 0 0 0 0 0 0 0 0 0
0.16623 8.69993e-10 4.95708e-10 3.74285e-10 0.430216 0.834957 0 0 0 0 0 0 0 0 0 0 0 0 0 0 0 0 0 0 0 0 0 0 0 0 0 0 0 0 0 0 0 0 0 0 0 0 0 0 0 0 0 0
0.174762 9.23336e-10 4.90178e-10 4.33159e-10 0.469123 0.809122 0 0 0 0 0 0 0 0 0 0 0 0 0 0 0 0 0 0 0 0 0 0 0 0 0 0 0 0 0 0 0 0 0 0 0 0 0 0 0 0 0 0
0.183733 9.92038e-10 4.8786e-10 5.04179e-10 0.508225 0.777586 0 0 0 0 0 0 0 0 0 0 0 0 0 0 0 0 0 0 0 0 0 0 0 0 0 0 0 0 0 0 0 0 0 0 0 0 0 0 0 0 0 0
0.193164 1.06067e-09 4.86183e-10 5.7449e-10 0.541628 0.747779 0 0 0 0 0 0 0 0 0 0 0 0 0 0 0 0 0 0 0 0 0 0 0 0 0 0 0 0 0 0 0 0 0 0 0 0 0 0 0 0 0 0
0.203079 1.12141e-09 4.94192e-10 6.27216e-10 0.559311 0.726668 0 0 0 0 0 0 0 0 0 0 0 0 0 0 0 0 0 0 0 0 0 0 0 0 0 0 0 0 0 0 0 0 0 0 0 0 0 0 0 0 0 0
0.213503 1.174e-09 5.07189e-10 6.66807e-10 0.567981 0.709187 0 0 0 0 0 0 0 0 0 0 0 0 0 0 0 0 0 0 0 0 0 0 0 0 0 0 0 0 0 0 0 0 0 0 0 0 0 0 0 0 0 0
0.224463 1.21157e-09 5.12696e-10 6.98874e-10 0.576834 0.690867 0 0 0 0 0 0 0 0 0 0 0 0 0 0 0 0 0 0 0 0 0 0 0 0 0 0 0 0 0 0 0 0 0 0 0 0 0 0 0 0 0 0
0.235984 1.21099e-09 4.99694e-10 7.113e-10 0.587369 0.667613 0 0 0 0 0 0 0 0 0 0 0 0 0 0 0 0 0 0 0 0 0 0 0 0 0 0 0 0 0 0 0 0 0 0 0 0 0 0 0 0 0 0
0.248097 1.19724e-09 4.92978e-10 7.04266e-10 0.588239 0.650832 0 0 0 0 0 0 0 0 0 0 0 0 0 0 0 0 0 0 0 0 0 0 0 0 0 0 0 0 0 0 0 0 0 0 0 0 0 0 0 0 0 0
0.260832 1.18194e-09 4.9981e-10 6.82134e-10 0.577129 0.638729 0 0 0 0 0 0 0 0 0 0 0 0 0 0 0 0 0 0 0 0 0 0 0 0 0 0 0 0 0 0 0 0 0 0 0 0 0 0 0 0 0 0
0.274221 1.16473e-09 5.07995e-10 6.56737e-10 0.563852 0.623532 0 0 0 0 0 0 0 0 0 0 0 0 0 0 0 0 0 0 0 0 0 0 0 0 0 0 0 0 0 0 0 0 0 0 0 0 0 0 0 0 0 0
0.288297 1.15675e-09 5.22318e-10 6.34434e-10 0.548461 0.611156 0 0 0 0 0 0 0 0 0 0 0 0 0 0 0 0 0 0 0 0 0 0 0 0 0 0 0 0 0 0 0 0 0 0 0 0 0 0 0 0 0 0
0.303095 1.15924e-09 5.35154e-10 6.24086e-10 0.538358 0.598485 0 0 0 0 0 0 0 0 0 0 0 0 0 0 0 0 0 0 0 0 0 0 0 0 0 0 0 0 0 0 0 0 0 0 0 0 0 0 0 0 0 0
0.318653 1.16941e-09 5.49906e-10 6.19503e-10 0.529757 0.587944 0 0 0 0 0 0 0 0 0 0 0 0 0 0 0 0 0 0 0 0 0 0 0 0 0 0 0 0 0 0 0 0 0 0 0 0 0 0 0 0 0 0
0.335009 1.18662e-09 5.67295e-10 6.19323e-10 0.521923 0.580056 0 0 0 0 0 0 0 0 0 0 0 0 0 0 0 0 0 0 0 0 0 0 0 0 0 0 0 0 0 0 0 0 0 0 0 0 0 0 0 0 0 0
0.352205 1.20575e-09 5.84748e-10 6.20999e-10 0.515032 0.572586 0 0 0 0 0 0 0 0 0 0 0 0 0 0 0 0 0 0 0 0 0 0 0 0 0 0 0 0 0 0 0 0 0 0 0 0 0 0 0 0 0 0
0.370284 1.22078e-09 5.99357e-10 6.21423e-10 0.509038 0.562315 0 0 0 0 0 0 0 0 0 0 0 0 0 0 0 0 0 0 0 0 0 0 0 0 0 0 0 0 0 0 0 0 0 0 0 0 0 0 0 0 0 0
0.389291 1.22951e-09 6.08824e-10 6.20683e-10 0.504822 0.545637 0 0 0 0 0 0 0 0 0 0 0 0 0 0 0 0 0 0 0 0 0 0 0 0 0 0 0 0 0 0 0 0 0 0 0 0 0 0 0 0 0 0
0.409273 1.23378e-09 6.11816e-10 6.21969e-10 0.504115 0.520499 0 0 0 0 0 0 0 0 0 0 0 0 0 0 0 0 0 0 0 0 0 0 0 0 0 0 0 0 0 0 0 0 0 0 0 0 0 0 0 0 0 0
0.430281 1.23789e-09 6.07975e-10 6.29916e-10 0.508862 0.485929 0 0 0 0 0 0 0 0 0 0 0 0 0 0 0 0 0 0 0 0 0 0 0 0 0 0 0 0 0 0 0 0 0 0 0 0 0 0 0 0 0 0
0.452368 1.24508e-09 5.96764e-10 6.48319e-10 0.520703 0.444157 0 0 0 0 0 0 0 0 0 0 0 0 0 0 0 0 0 0 0 0 0 0 0 0 0 0 0 0 0 0 0 0 0 0 0 0 0 0 0 0 0 0
0.475588 1.26253e-09 5.83881e-10 6.78644e-10 0.537529 0.401478 0 0 0 0 0 0 0 0 0 0 0 0 0 0 0 0 0 0 0 0 0 0 0 0 0 0 0 0 0 0 0 0 0 0 0 0 0 0 0 0 0 0
0.5 1.29142e-09 5.78691e-10 7.12727e-10 0.551895 0.365146 0 0 0 0 0 0 0 0 0 0 0 0 0 0 0 0 0 0 0 0 0 0 0 0 0 0 0 0 0 0 0 0 0 0 0 0 0 0 0 0 0 0
0.525665 1.32667e-09 5.8476e-10 7.41909e-10 0.559227 0.338979 0 0 0 0 0 0 0 0 0 0 0 0 0 0 0 0 0 0 0 0 0 0 0 0 0 0 0 0 0 0 0 0 0 0 0 0 0 0 0 0 0 0
0.552648 1.3566e-09 5.95125e-10 7.61475e-10 0.561311 0.322951 0 0 0 0 0 0 0 0 0 0 0 0 0 0 0 0 0 0 0 0 0 0 0 0 0 0 0 0 0 0 0 0 0 0 0 0 0 0 0 0 0 0
0.581015 1.34773e-09 5.98639e-10 7.49088e-10 0.555816 0.310847 0 0 0 0 0 0 0 0 0 0 0 0 0 0 0 0 0 0 0 0 0 0 0 0 0 0 0 0 0 0 0 0 0 0 0 0 0 0 0 0 0 0
0.610839 1.29564e-09 5.82601e-10 7.13035e-10 0.550336 0.294865 0 0 0 0 0 0 0 0 0 0 0 0 0 0 0 0 0 0 0 0 0 0 0 0 0 0 0 0 0 0 0 0 0 0 0 0 0 0 0 0 0 0
0.642193 1.21893e-09 5.54339e-10 6.64594e-10 0.545226 0.270013 0 0 0 0 0 0 0 0 0 0 0 0 0 0 0 0 0 0 0 0 0 0 0 0 0 0 0 0 0 0 0 0 0 0 0 0 0 0 0 0 0 0
0.675157 1.14282e-09 5.29108e-10 6.13714e-10 0.537016 0.238794 0 0 0 0 0 0 0 0 0 0 0 0 0 0 0 0 0 0 0 0 0 0 0 0 0 0 0 0 0 0 0 0 0 0 0 0 0 0 0 0 0 0
0.709813 1.07372e-09 5.10445e-10 5.63271e-10 0.524599 0.207603 0 0 0 0 0 0 0 0 0 0 0 0 0 0 0 0 0 0 0 0 0 0 0 0 0 0 0 0 0 0 0 0 0 0 0 0 0 0 0 0 0 0
0.746248 1.00645e-09 4.94461e-10 5.1199e-10 0.508708 0.179958 0 0 0 0 0 0 0 0 0 0 0 0 0 0 0 0 0 0 0 0 0 0 0 0 0 0 0 0 0 0 0 0 0 0 0 0 0 0 0 0 0 0
0.784553 9.35473e-10 4.76541e-10 4.58932e-10 0.490588 0.156321 0 0 0 0 0 0 0 0 0 0 0 0 0 0 0 0 0 0 0 0 0 0 0 0 0 0 0 0 0 0 0 0 0 0 0 0 0 0 0 0 0 0
0.824824 8.61174e-10 4.56238e-10 4.04936e-10 0.470214 0.136617 0 0 0 0 0 0 0 0 0 0 0 0 0 0 0 0 0 0 0 0 0 0 0 0 0 0 0 0 0 0 0 0 0 0 0 0 0 0 0 0 0 0
0.867162 7.84343e-10 4.32712e-10 3.51631e-10 0.448312 0.120254 0 0 0 0 0 0 0 0 0 0 0 0 0 0 0 0 0 0 0 0 0 0 0 0 0 0 0 0 0 0 0 0 0 0 0 0 0 0 0 0 0 0
0.911674 7.06934e-10 4.0623e-10 3.00704e-10 0.425364 0.106635 0 0 0 0 0 0 0 0 0 0 0 0 0 0 0 0 0 0 0 0 0 0 0 0 0 0 0 0 0 0 0 0 0 0 0 0 0 0 0 0 0 0
0.95847 6.31701e-10 3.78102e-10 2.53599e-10 0.401455 0.0955306 0 0 0 0 0 0 0 0 0 0 0 0 0 0 0 0 0 0 0 0 0 0 0 0 0 0 0 0 0 0 0 0 0 0 0 0 0 0 0 0 0 0
1.00767 5.60352e-10 3.48869e-10 2.11483e-10 0.377411 0.0862993 0 0 0 0 0 0 0 0 0 0 0 0 0 0 0 0 0 0 0 0 0 0 0 0 0 0 0 0 0 0 0 0 0 0 0 0 0 0 0 0 0 0
1.05939 4.94497e-10 3.1981e-10 1.74687e-10 0.353262 0.0788768 0 0 0 0 0 0 0 0 0 0 0 0 0 0 0 0 0 0 0 0 0 0 0 0 0 0 0 0 0 0 0 0 0 0 0 0 0 0 0 0 0 0
1.11377 4.34644e-10 2.91355e-10 1.43289e-10 0.32967 0.0725891 0 0 0 0 0 0 0 0 0 0 0 0 0 0 0 0 0 0 0 0 0 0 0 0 0 0 0 0 0 0 0 0 0 0 0 0 0 0 0 0 0 0
1.17094 3.81164e-10 2.64313e-10 1.16851e-10 0.306563 0.0673768 0 0 0 0 0 0 0 0 0 0 0 0 0 0 0 0 0 0 0 0 0 0 0 0 0 0 0 0 0 0 0 0 0 0 0 0 0 0 0 0 0 0
1.23105 3.3395e-10 2.38939e-10 9.50106e-11 0.284506 0.0628742 0 0 0 0 0 0 0 0 0 0 0 0 0 0 0 0 0 0 0 0 0 0 0 0 0 0 0 0 0 0 0 0 0 0 0 0 0 0 0 0 0 0
1.29424 2.9259e-10 2.15471e-10 7.71188e-11 0.263573 0.0587367 0 0 0 0 0 0 0 0 0 0 0 0 0 0 0 0 0 0 0 0 0 0 0 0 0 0 0 0 0 0 0 0 0 0 0 0 0 0 0 0 0 0
1.36067 2.56413e-10 1.93933e-10 6.24794e-11 0.243667 0.0550907 0 0 0 0 0 0 0 0 0 0 0 0 0 0 0 0 0 0 0 0 0 0 0 0 0 0 0 0 0 0 0 0 0 0 0 0 0 0 0 0 0 0
1.43051 2.24871e-10 1.74306e-10 5.05647e-11 0.224861 0.051853 0 0 0 0 0 0 0 0 0 0 0 0 0 0 0 0 0 0 0 0 0 0 0 0 0 0 0 0 0 0 0 0 0 0 0 0 0 0 0 0 0 0
1.50394 1.97513e-10 1.5658e-10 4.09336e-11 0.207245 0.0488569 0 0 0 0 0 0 0 0 0 0 0 0 0 0 0 0 0 0 0 0 0 0 0 0 0 0 0 0 0 0 0 0 0 0 0 0 0 0 0 0 0 0
1.58114 1.738e-10 1.40654e-10 3.31466e-11 0.190717 0.045913 0 0 0 0 0 0 0 0 0 0 0 0 0 0 0 0 0 0 0 0 0 0 0 0 0 0 0 0 0 0 0 0 0 0 0 0 0 0 0 0 0 0
1.6623 1.53264e-10 1.26405e-10 2.68596e-11 0.17525 0.0429754 0 0 0 0 0 0 0 0 0 0 0 0 0 0 0 0 0 0 0 0 0 0 0 0 0 0 0 0 0 0 0 0 0 0 0 0 0 0 0 0 0 0
1.74763 1.35419e-10 1.13634e-10 2.1785e-11 0.160871 0.0402361 0 0 0 0 0 0 0 0 0 0 0 0 0 0 0 0 0 0 0 0 0 0 0 0 0 0 0 0 0 0 0 0 0 0 0 0 0 0 0 0 0 0
1.83733 1.1989e-10 1.02209e-10 1.7681e-11 0.147477 0.0376649 0 0 0 0 0 0 0 0 0 0 0 0 0 0 0 0 0 0 0 0 0 0 0 0 0 0 0 0 0 0 0 0 0 0 0 0 0 0 0 0 0 0
1.93164 1.06345e-10 9.19888e-11 1.43562e-11 0.134996 0.0352087 0 0 0 0 0 0 0 0 0 0 0 0 0 0 0 0 0 0 0 0 0 0 0 0 0 0 0 0 0 0 0 0 0 0 0 0 0 0 0 0 0 0
2.03079 9.45424e-11 8.28792e-11 1.16632e-11 0.123365 0.0328227 0 0 0 0 0 0 0 0 0 0 0 0 0 0 0 0 0 0 0 0 0 0 0 0 0 0 0 0 0 0 0 0 0 0 0 0 0 0 0 0 0 0
2.13503 8.42511e-11 7.47596e-11 9.49157e-12 0.112658 0.0305378 0 0 0 0 0 0 0 0 0 0 0 0 0 0 0 0 0 0 0 0 0 0 0 0 0 0 0 0 0 0 0 0 0 0 0 0 0 0 0 0 0 0
2.24463 7.52122e-11 6.74853e-11 7.72686e-12 0.102734 0.0283901 0 0 0 0 0 0 0 0 0 0 0 0 0 0 0 0 0 0 0 0 0 0 0 0 0 0 0 0 0 0 0 0 0 0 0 0 0 0 0 0 0 0
2.35984 6.72727e-11 6.09803e-11 6.29236e-12 0.0935351 0.0263618 0 0 0 0 0 0 0 0 0 0 0 0 0 0 0 0 0 0 0 0 0 0 0 0 0 0 0 0 0 0 0 0 0 0 0 0 0 0 0 0 0 0
2.48097 6.02905e-11 5.51635e-11 5.12698e-12 0.0850381 0.0244251 0 0 0 0 0 0 0 0 0 0 0 0 0 0 0 0 0 0 0 0 0 0 0 0 0 0 0 0 0 0 0 0 0 0 0 0 0 0 0 0 0 0
2.60832 5.41591e-11 4.9975e-11 4.18414e-12 0.0772564 0.0225495 0 0 0 0 0 0 0 0 0 0 0 0 0 0 0 0 0 0 0 0 0 0 0 0 0 0 0 0 0 0 0 0 0 0 0 0 0 0 0 0 0 0
2.74221 4.87116e-11 4.5296e-11 3.41562e-12 0.0701193 0.0207994 0 0 0 0 0 0 0 0 0 0 0 0 0 0 0 0 0 0 0 0 0 0 0 0 0 0 0 0 0 0 0 0 0 0 0 0 0 0 0 0 0 0
2.88297 4.38638e-11 4.10761e-11 2.78764e-12 0.0635521 0.01921 0 0 0 0 0 0 0 0 0 0 0 0 0 0 0 0 0 0 0 0 0 0 0 0 0 0 0 0 0 0 0 0 0 0 0 0 0 0 0 0 0 0
3.03095 3.95475e-11 3.72707e-11 2.27679e-12 0.0575711 0.0177363 0 0 0 0 0 0 0 0 0 0 0 0 0 0 0 0 0 0 0 0 0 0 0 0 0 0 0 0 0 0 0 0 0 0 0 0 0 0 0 0 0 0
3.18653 3.57151e-11 3.38543e-11 1.86082e-12 0.0521019 0.0163345 0 0 0 0 0 0 0 0 0 0 0 0 0 0 0 0 0 0 0 0 0 0 0 0 0 0 0 0 0 0 0 0 0 0 0 0 0 0 0 0 0 0
3.35009 3.22937e-11 3.07727e-11 1.52102e-12 0.0470995 0.0150233 0 0 0 0 0 0 0 0 0 0 0 0 0 0 0 0 0 0 0 0 0 0 0 0 0 0 0 0 0 0 0 0 0 0 0 0 0 0 0 0 0 0
3.52205 2.92271e-11 2.7984e-11 1.24318e-12 0.0425351 0.0138171 0 0 0 0 0 0 0 0 0 0 0 0 0 0 0 0 0 0 0 0 0 0 0 0 0 0 0 0 0 0 0 0 0 0 0 0 0 0 0 0 0 0
3.70284 2.6485e-11 2.5468e-11 1.01696e-12 0.0383975 0.0126996 0 0 0 0 0 0 0 0 0 0 0 0 0 0 0 0 0 0 0 0 0 0 0 0 0 0 0 0 0 0 0 0 0 0 0 0 0 0 0 0 0 0
3.89291 2.40298e-11 2.31979e-11 8.31878e-13 0.0346186 0.0116558 0 0 0 0 0 0 0 0 0 0 0 0 0 0 0 0 0 0 0 0 0 0 0 0 0 0 0 0 0 0 0 0 0 0 0 0 0 0 0 0 0 0
4.09273 2.18322e-11 2.11516e-11 6.80606e-13 0.0311745 0.0106443 0 0 0 0 0 0 0 0 0 0 0 0 0 0 0 0 0 0 0 0 0 0 0 0 0 0 0 0 0 0 0 0 0 0 0 0 0 0 0 0 0 0
4.30281 1.98452e-11 1.92883e-11 5.56892e-13 0.0280618 0.00972196 0 0 0 0 0 0 0 0 0 0 0 0 0 0 0 0 0 0 0 0 0 0 0 0 0 0 0 0 0 0 0 0 0 0 0 0 0 0 0 0 0 0
4.52368 1.80531e-11 1.75971e-11 4.55935e-13 0.0252552 0.00887536 0 0 0 0 0 0 0 0 0 0 0 0 0 0 0 0 0 0 0 0 0 0 0 0 0 0 0 0 0 0 0 0 0 0 1.4013e-45 0 2.8026e-45 0 5.60519e-45 0 1.12104e-44 0
4.75588 1.64339e-11 1.60607e-11 3.73221e-13 0.0227105 0.00809237 0 0 0 0 0 0 0 0 0 0 0 0 0 0 0 0 0 0 0 0 0 0 0 0 0 0 1.4013e-45 0 5.60519e-45 0 1.68156e-44 0 4.48416e-44 0 1.12104e-43 0 2.71852e-43 0 6.19374e-43 0 1.32283e-42 0
5 1.49837e-11 1.46782e-11 3.05491e-13 0.0203883 0.00732997 0 0 0 0 0 0 0 0 0 0 0 0 0 0 0 0 0 0 0 0 2.8026e-45 0 1.54143e-44 0 6.02558e-44 0 2.0459e-43 0 6.29183e-43 0 1.77685e-42 0 4.56123e-42 0 1.10857e-41 0 2.55709e-41 0 5.61164e-41 0 1.15377e-40 0
5.25665 1.36549e-11 1.34047e-11 2.50164e-13 0.0183205 0.00663841 0 0 0 0 0 0 0 0 0 0 0 0 0 0 1.4013e-45 0 1.26117e-44 0 7.84727e-44 0 3.90962e-43 0 1.63812e-42 0 5.98775e-42 0 1.92538e-41 0 5.59062e-41 0 1.50167e-40 0 3.68085e-40 0 8.56548e-40 0 1.89679e-39 0 4.00587e-39 0 7.9515e-39 0
5.52648 1.24431e-11 1.22383e-11 2.04881e-13 0.0164654 0.00601793 0 0 0 0 0 0 0 0 0 0 1.4013e-45 0 1.54143e-44 0 1.7236e-43 0 1.30321e-42 0 7.59644e-42 0 3.49204e-41 0 1.36611e-40 0 4.68811e-40 0 1.42378e-39 0 3.92457e-39 0 1.00452e-38 0 2.35678e-38 0 5.26275e-38 0 1.12105e-37 0 2.2827e-37 0 4.38191e-37 0
5.81015 1.13462e-11 1.11785e-11 1.67715e-13 0.0147816 0.0054501 0 0 0 0 0 0 0 0 2.8026e-45 0 9.80909e-44 0 1.59748e-42 0 1.57562e-41 0 1.08112e-40 0 5.78396e-40 0 2.46805e-39 0 9.03322e-39 0 2.91881e-38 0 8.39643e-38 0 2.20265e-37 0 5.38498e-37 0 1.21188e-36 0 2.60209e-36 0 5.34192e-36 0 1.05062e-35 0 1.95358e-35 0
6.10839 1.03568e-11 1.02195e-11 1.37275e-13 0.0132545 0.0049133 0 0 0 0 0 0 2.8026e-45 0 3.11088e-43 0 9.08041e-42 0 1.29184e-40 0 1.13964e-39 0 7.11777e-39 0 3.5086e-38 0 1.39475e-37 0 4.79152e-37 0 1.46207e-36 0 3.9944e-36 0 9.99661e-36 0 2.33957e-35 0 5.06074e-35 0 1.04682e-34 0 2.07489e-34 0 3.94822e-34 0 7.12255e-34 0
6.42193 9.44276e-12 9.33038e-12 1.12375e-13 0.0119007 0.00448045 0 0 0 0 0 0 3.58732e-43 0 2.68166e-41 0 6.62649e-40 0 8.28172e-39 0 6.56918e-38 0 3.75184e-37 0 1.71084e-36 0 6.35783e-36 0 2.05644e-35 0 5.94232e-35 0 1.54571e-34 0 3.69895e-34 0 8.30484e-34 0 1.73001e-33 0 3.45378e-33 0 6.62084e-33 0 1.22089e-32 0 2.13994e-32 0
6.75157 8.63477e-12 8.54275e-12 9.20164e-14 0.0106565 0.00400201 0 0 0 0 6.44597e-44 0 3.02358e-41 0 1.83076e-39 0 3.86825e-38 0 4.27365e-37 0 3.06393e-36 0 1.60718e-35 0 6.80543e-35 0 2.37203e-34 0 7.245e-34 0 1.98782e-33 0 4.93492e-33 0 1.13169e-32 0 2.44248e-32 0 4.90894e-32 0 9.4749e-32 0 1.75952e-31 0 3.14907e-31 0 5.3704e-31 0
7.09813 7.89403e-12 7.81872e-12 7.53121e-14 0.00954039 0.00358608 0 0 0 0 5.75233e-42 0 2.01778e-39 0 9.99944e-38 0 1.82043e-36 0 1.78863e-35 0 1.16475e-34 0 5.63475e-34 0 2.22364e-33 0 7.29212e-33 0 2.10909e-32 0 5.5085e-32 0 1.30814e-31 0 2.88074e-31 0 5.98818e-31 0 1.16319e-30 0 2.17417e-30 0 3.91731e-30 0 6.81451e-30 0 1.13224e-29 0
7.46248 7.22489e-12 7.16326e-12 6.16277e-14 0.00852992 0.00320135 0 0 1.12104e-44 0 4.09874e-40 0 1.07996e-37 0 4.42332e-36 0 6.98905e-35 0 6.14208e-34 0 3.65004e-33 0 1.63499e-32 0 6.03385e-32 0 1.86725e-31 0 5.12771e-31 0 1.27792e-30 0 2.90929e-30 0 6.16449e-30 0 1.23644e-29 0 2.32514e-29 0 4.21531e-29 0 7.37972e-29 0 1.24953e-28 0 2.02529e-28 0
7.84553 6.62475e-12 6.57429e-12 5.04538e-14 0.00761597 0.00282655 0 0 1.06779e-42 0 2.3366e-38 0 4.68976e-36 0 1.6024e-34 0 2.21267e-33 0 1.74875e-32 0 9.52625e-32 0 3.96591e-31 0 1.37321e-30 0 4.02152e-30 0 1.05122e-29 0 2.50559e-29 0 5.4796e-29 0 1.11927e-28 0 2.16997e-28 0 3.95676e-28 0 6.96794e-28 0 1.18697e-27 0 1.95876e-27 0 3.10084e-27 0
8.24824 6.07486e-12 6.03356e-12 4.12954e-14 0.00679776 0.00247254 1.4013e-45 0 8.0108e-41 0 1.07559e-36 0 1.66645e-34 0 4.7922e-33 0 5.82122e-32 0 4.15902e-31 0 2.08565e-30 0 8.09877e-30 0 2.63923e-29 0 7.3341e-29 0 1.82925e-28 0 4.17903e-28 0 8.79674e-28 0 1.73526e-27 0 3.2572e-27 0 5.76756e-27 0 9.88003e-27 0 1.63983e-26 0 2.6407e-26 0 4.08768e-26 0
8.67162 5.57269e-12 5.53891e-12 3.37796e-14 0.00606163 0.00216666 1.82169e-43 0 4.78721e-39 0 4.0412e-35 0 4.89467e-33 0 1.19466e-31 0 1.28462e-30 0 8.33792e-30 0 3.86472e-29 0 1.40453e-28 0 4.32055e-28 0 1.14219e-27 0 2.72449e-27 0 5.97817e-27 0 1.21348e-26 0 2.31563e-26 0 4.21499e-26 0 7.25821e-26 0 1.2111e-25 0 1.96101e-25 0 3.08529e-25 0 4.67509e-25 0
9.11674 5.12132e-12 5.09369e-12 2.76334e-14 0.00539575 0.00189387 1.44768e-41 0 2.30884e-37 0 1.25348e-33 0 1.20121e-31 0 2.5084e-30 0 2.40195e-29 0 1.42294e-28 0 6.11968e-28 0 2.08823e-27 0 6.08081e-27 0 1.53301e-26 0 3.50477e-26 0 7.40083e-26 0 1.45122e-25 0 2.6833e-25 0 4.74346e-25 0 7.95433e-25 0 1.29449e-24 0 2.04729e-24 0 3.15055e-24 0 4.67808e-24 0
9.5847 4.71916e-12 4.69656e-12 2.25978e-14 0.00478852 0.0016486 9.14224e-40 0 9.09029e-36 0 3.24308e-32 0 2.48722e-30 0 4.47769e-29 0 3.83987e-28 0 2.08554e-27 0 8.3527e-27 0 2.68443e-26 0 7.41943e-26 0 1.78792e-25 0 3.92581e-25 0 7.99282e-25 0 1.51661e-24 0 2.7213e-24 0 4.67868e-24 0 7.65015e-24 0 1.21574e-23 0 1.88018e-23 0 2.83313e-23 0 4.12635e-23 0
10.0767 4.36266e-12 4.34419e-12 1.84728e-14 0.00423429 0.00141871 4.65457e-38 0 2.95277e-34 0 7.0659e-31 0 4.38433e-29 0 6.85413e-28 0 5.29236e-27 0 2.64649e-26 0 9.90505e-26 0 3.00695e-25 0 7.9084e-25 0 1.82565e-24 0 3.85762e-24 0 7.58605e-24 0 1.39511e-23 0 2.43284e-23 0 4.07352e-23 0 6.50265e-23 0 1.01027e-22 0 1.52951e-22 0 2.25905e-22 0 3.23037e-22 0
10.5939 4.04755e-12 4.03246e-12 1.50902e-14 0.00372824 0.00119632 1.93171e-36 0 7.99185e-33 0 1.30801e-29 0 6.63467e-28 0 9.06922e-27 0 6.33761e-26 0 2.92966e-25 0 1.02806e-24 0 2.95626e-24 0 7.41652e-24 0 1.64357e-23 0 3.34834e-23 0 6.37068e-23 0 1.13726e-22 0 1.93008e-22 0 3.15138e-22 0 4.91705e-22 0 7.47671e-22 0 1.10925e-21 0 1.60744e-21 0 2.25879e-21 0
