# 1.4962e-05 0 105 : grain size, compostion index, size index
# Heating and cooling timescale: 0.0118619 213834
# Ratio of heating to cooling to determine stochastic cutoff: 100
# Equilibrium emission is recorded even for those grains in the stochastic regime.
# Emission spectrum was computed for: 
# Type: IRSF
# Scales: 0.25 0.5 1 1.5 2 2.5 3 3.5 4 4.5 5 5.5 6 6.5 7 7.5 8 8.5 9 9.5 10
# StochasticallyHeated: 0 0 0 0 0 0 0 0 0 0 0 0 0 0 0 0 0 0 0 0 0
# Temperature: -1
# Wavelength  CExt  CAbs  CSca  Albedo G EqEm1 StEm1 EqEm2 StEm2 EqEm3 StEm3 EqEm4 StEm4 EqEm5 StEm5 EqEm6 StEm6 EqEm7 StEm7 EqEm8 StEm8 EqEm9 StEm9 EqEm10 StEm10 EqEm11 StEm11 EqEm12 StEm12 EqEm13 StEm13 EqEm14 StEm14 EqEm15 StEm15 EqEm16 StEm16 EqEm17 StEm17 EqEm18 StEm18 EqEm19 StEm19 EqEm20 StEm20 EqEm21 StEm21
0.05 4.32358e-10 1.833e-10 2.49058e-10 0.576046 0.00576547 0 0 0 0 0 0 0 0 0 0 0 0 0 0 0 0 0 0 0 0 0 0 0 0 0 0 0 0 0 0 0 0 0 0 0 0 0 0 0 0 0 0
0.0525665 4.77883e-10 2.026e-10 2.75283e-10 0.576046 0.00637255 0 0 0 0 0 0 0 0 0 0 0 0 0 0 0 0 0 0 0 0 0 0 0 0 0 0 0 0 0 0 0 0 0 0 0 0 0 0 0 0 0 0
0.0552647 5.28202e-10 2.23933e-10 3.04269e-10 0.576046 0.00704355 0 0 0 0 0 0 0 0 0 0 0 0 0 0 0 0 0 0 0 0 0 0 0 0 0 0 0 0 0 0 0 0 0 0 0 0 0 0 0 0 0 0
0.0581015 5.83819e-10 2.47512e-10 3.36307e-10 0.576046 0.0077852 0 0 0 0 0 0 0 0 0 0 0 0 0 0 0 0 0 0 0 0 0 0 0 0 0 0 0 0 0 0 0 0 0 0 0 0 0 0 0 0 0 0
0.0610839 6.45292e-10 2.73574e-10 3.71718e-10 0.576046 0.00860494 0 0 0 0 0 0 0 0 0 0 0 0 0 0 0 0 0 0 0 0 0 0 0 0 0 0 0 0 0 0 0 0 0 0 0 0 0 0 0 0 0 0
0.0642193 7.13238e-10 3.0238e-10 4.10858e-10 0.576046 0.009511 0 0 0 0 0 0 0 0 0 0 0 0 0 0 0 0 0 0 0 0 0 0 0 0 0 0 0 0 0 0 0 0 0 0 0 0 0 0 0 0 0 0
0.0675157 7.88339e-10 3.34219e-10 4.5412e-10 0.576046 0.0105125 0 0 0 0 0 0 0 0 0 0 0 0 0 0 0 0 0 0 0 0 0 0 0 0 0 0 0 0 0 0 0 0 0 0 0 0 0 0 0 0 0 0
0.0709813 8.71347e-10 3.69411e-10 5.01936e-10 0.576046 0.0116194 0 0 0 0 0 0 0 0 0 0 0 0 0 0 0 0 0 0 0 0 0 0 0 0 0 0 0 0 0 0 0 0 0 0 0 0 0 0 0 0 0 0
0.0746248 9.63096e-10 4.08308e-10 5.54788e-10 0.576046 0.0128428 0 0 0 0 0 0 0 0 0 0 0 0 0 0 0 0 0 0 0 0 0 0 0 0 0 0 0 0 0 0 0 0 0 0 0 0 0 0 0 0 0 0
0.0784553 1.06451e-09 4.51301e-10 6.13204e-10 0.576046 0.0141951 0 0 0 0 0 0 0 0 0 0 0 0 0 0 0 0 0 0 0 0 0 0 0 0 0 0 0 0 0 0 0 0 0 0 0 0 0 0 0 0 0 0
0.0824824 1.17659e-09 4.98821e-10 6.77772e-10 0.576046 0.0156898 0 0 0 0 0 0 0 0 0 0 0 0 0 0 0 0 0 0 0 0 0 0 0 0 0 0 0 0 0 0 0 0 0 0 0 0 0 0 0 0 0 0
0.0867162 1.30048e-09 5.51344e-10 7.49138e-10 0.576046 0.0173419 0 0 0 0 0 0 0 0 0 0 0 0 0 0 0 0 0 0 0 0 0 0 0 0 0 0 0 0 0 0 0 0 0 0 0 0 0 0 0 0 0 0
0.0911674 1.43742e-09 6.09398e-10 8.28019e-10 0.576046 0.0191679 0 0 0 0 0 0 0 0 0 0 0 0 0 0 0 0 0 0 0 0 0 0 0 0 0 0 0 0 0 0 0 0 0 0 0 0 0 0 0 0 0 0
0.095847 1.58877e-09 6.73565e-10 9.15205e-10 0.576046 0.0211862 0 0 0 0 0 0 0 0 0 0 0 0 0 0 0 0 0 0 0 0 0 0 0 0 0 0 0 0 0 0 0 0 0 0 0 0 0 0 0 0 0 0
0.100767 1.72768e-09 7.37887e-10 9.89795e-10 0.572903 0.0235692 0 0 0 0 0 0 0 0 0 0 0 0 0 0 0 0 0 0 0 0 0 0 0 0 0 0 0 0 0 0 0 0 0 0 0 0 0 0 0 0 0 0
0.105939 1.7231e-09 7.67992e-10 9.5511e-10 0.554297 0.0256046 0 0 0 0 0 0 0 0 0 0 0 0 0 0 0 0 0 0 0 0 0 0 0 0 0 0 0 0 0 0 0 0 0 0 0 0 0 0 0 0 0 0
0.111377 1.72797e-09 7.79128e-10 9.4884e-10 0.549108 0.0289403 0 0 0 0 0 0 0 0 0 0 0 0 0 0 0 0 0 0 0 0 0 0 0 0 0 0 0 0 0 0 0 0 0 0 0 0 0 0 0 0 0 0
0.117094 1.72888e-09 8.07601e-10 9.21279e-10 0.532876 0.0274507 0 0 0 0 0 0 0 0 0 0 0 0 0 0 0 0 0 0 0 0 0 0 0 0 0 0 0 0 0 0 0 0 0 0 0 0 0 0 0 0 0 0
0.123105 1.73739e-09 8.45928e-10 8.91463e-10 0.513104 0.0236555 0 0 0 0 0 0 0 0 0 0 0 0 0 0 0 0 0 0 0 0 0 0 0 0 0 0 0 0 0 0 0 0 0 0 0 0 0 0 0 0 0 0
0.129424 1.75375e-09 8.7909e-10 8.74663e-10 0.498738 0.0199126 0 0 0 0 0 0 0 0 0 0 0 0 0 0 0 0 0 0 0 0 0 0 0 0 0 0 0 0 0 0 0 0 0 0 0 0 0 0 0 0 0 0
0.136067 1.76408e-09 9.09875e-10 8.54205e-10 0.484221 0.0168557 0 0 0 0 0 0 0 0 0 0 0 0 0 0 0 0 0 0 0 0 0 0 0 0 0 0 0 0 0 0 0 0 0 0 0 0 0 0 0 0 0 0
0.143051 1.75257e-09 9.31575e-10 8.20999e-10 0.468453 0.0143876 0 0 0 0 0 0 0 0 0 0 0 0 0 0 0 0 0 0 0 0 0 0 0 0 0 0 0 0 0 0 0 0 0 0 0 0 0 0 0 0 0 0
0.150394 1.77404e-09 9.35616e-10 8.38425e-10 0.472608 0.0122986 0 0 0 0 0 0 0 0 0 0 0 0 0 0 0 0 0 0 0 0 0 0 0 0 0 0 0 0 0 0 0 0 0 0 0 0 0 0 0 0 0 0
0.158114 1.7596e-09 9.23491e-10 8.36105e-10 0.475169 0.01055 0 0 0 0 0 0 0 0 0 0 0 0 0 0 0 0 0 0 0 0 0 0 0 0 0 0 0 0 0 0 0 0 0 0 0 0 0 0 0 0 0 0
0.16623 1.67152e-09 9.03036e-10 7.68488e-10 0.459753 0.00908216 0 0 0 0 0 0 0 0 0 0 0 0 0 0 0 0 0 0 0 0 0 0 0 0 0 0 0 0 0 0 0 0 0 0 0 0 0 0 0 0 0 0
0.174762 1.59445e-09 8.82241e-10 7.12211e-10 0.446681 0.00782097 0 0 0 0 0 0 0 0 0 0 0 0 0 0 0 0 0 0 0 0 0 0 0 0 0 0 0 0 0 0 0 0 0 0 0 0 0 0 0 0 0 0
0.183733 1.57847e-09 8.6161e-10 7.1686e-10 0.454149 0.00667218 0 0 0 0 0 0 0 0 0 0 0 0 0 0 0 0 0 0 0 0 0 0 0 0 0 0 0 0 0 0 0 0 0 0 0 0 0 0 0 0 0 0
0.193164 1.63685e-09 8.44538e-10 7.92314e-10 0.484047 0.00556038 0 0 0 0 0 0 0 0 0 0 0 0 0 0 0 0 0 0 0 0 0 0 0 0 0 0 0 0 0 0 0 0 0 0 0 0 0 0 0 0 0 0
0.203079 1.74483e-09 8.37737e-10 9.07097e-10 0.519876 0.00446034 0 0 0 0 0 0 0 0 0 0 0 0 0 0 0 0 0 0 0 0 0 0 0 0 0 0 0 0 0 0 0 0 0 0 0 0 0 0 0 0 0 0
0.213503 1.86994e-09 8.44349e-10 1.02559e-09 0.548461 0.00342932 0 0 0 0 0 0 0 0 0 0 0 0 0 0 0 0 0 0 0 0 0 0 0 0 0 0 0 0 0 0 0 0 0 0 0 0 0 0 0 0 0 0
0.224463 1.98021e-09 8.55478e-10 1.12473e-09 0.567986 0.00254317 0 0 0 0 0 0 0 0 0 0 0 0 0 0 0 0 0 0 0 0 0 0 0 0 0 0 0 0 0 0 0 0 0 0 0 0 0 0 0 0 0 0
0.235984 2.04501e-09 8.54992e-10 1.19002e-09 0.581914 0.00182186 0 0 0 0 0 0 0 0 0 0 0 0 0 0 0 0 0 0 0 0 0 0 0 0 0 0 0 0 0 0 0 0 0 0 0 0 0 0 0 0 0 0
0.248097 2.06036e-09 8.42546e-10 1.21782e-09 0.59107 0.00138916 0 0 0 0 0 0 0 0 0 0 0 0 0 0 0 0 0 0 0 0 0 0 0 0 0 0 0 0 0 0 0 0 0 0 0 0 0 0 0 0 0 0
0.260832 2.04197e-09 8.34415e-10 1.20755e-09 0.591367 0.00141961 0 0 0 0 0 0 0 0 0 0 0 0 0 0 0 0 0 0 0 0 0 0 0 0 0 0 0 0 0 0 0 0 0 0 0 0 0 0 0 0 0 0
0.274221 2.0057e-09 8.39643e-10 1.16606e-09 0.581372 0.00187131 0 0 0 0 0 0 0 0 0 0 0 0 0 0 0 0 0 0 0 0 0 0 0 0 0 0 0 0 0 0 0 0 0 0 0 0 0 0 0 0 0 0
0.288297 1.97878e-09 8.64255e-10 1.11453e-09 0.563239 0.00251556 0 0 0 0 0 0 0 0 0 0 0 0 0 0 0 0 0 0 0 0 0 0 0 0 0 0 0 0 0 0 0 0 0 0 0 0 0 0 0 0 0 0
0.303095 1.97459e-09 9.03884e-10 1.07071e-09 0.542242 0.0028362 0 0 0 0 0 0 0 0 0 0 0 0 0 0 0 0 0 0 0 0 0 0 0 0 0 0 0 0 0 0 0 0 0 0 0 0 0 0 0 0 0 0
0.318653 1.98498e-09 9.47029e-10 1.03795e-09 0.522903 0.00297223 0 0 0 0 0 0 0 0 0 0 0 0 0 0 0 0 0 0 0 0 0 0 0 0 0 0 0 0 0 0 0 0 0 0 0 0 0 0 0 0 0 0
0.335009 1.99982e-09 9.86256e-10 1.01356e-09 0.506827 0.00293231 0 0 0 0 0 0 0 0 0 0 0 0 0 0 0 0 0 0 0 0 0 0 0 0 0 0 0 0 0 0 0 0 0 0 0 0 0 0 0 0 0 0
0.352205 2.01523e-09 1.0183e-09 9.96932e-10 0.494698 0.00278811 0 0 0 0 0 0 0 0 0 0 0 0 0 0 0 0 0 0 0 0 0 0 0 0 0 0 0 0 0 0 0 0 0 0 0 0 0 0 0 0 0 0
0.370284 2.02919e-09 1.04056e-09 9.88629e-10 0.487204 0.00261033 0 0 0 0 0 0 0 0 0 0 0 0 0 0 0 0 0 0 0 0 0 0 0 0 0 0 0 0 0 0 0 0 0 0 0 0 0 0 0 0 0 0
0.389291 2.04231e-09 1.05405e-09 9.88254e-10 0.483891 0.00243645 0 0 0 0 0 0 0 0 0 0 0 0 0 0 0 0 0 0 0 0 0 0 0 0 0 0 0 0 0 0 0 0 0 0 0 0 0 0 0 0 0 0
0.409273 2.0596e-09 1.06466e-09 9.9494e-10 0.483075 0.00226652 0 0 0 0 0 0 0 0 0 0 0 0 0 0 0 0 0 0 0 0 0 0 0 0 0 0 0 0 0 0 0 0 0 0 0 0 0 0 0 0 0 0
0.430281 2.08482e-09 1.07827e-09 1.00655e-09 0.482801 0.00210471 0 0 0 0 0 0 0 0 0 0 0 0 0 0 0 0 0 0 0 0 0 0 0 0 0 0 0 0 0 0 0 0 0 0 0 0 0 0 0 0 0 0
0.452368 2.11653e-09 1.09695e-09 1.01958e-09 0.481723 0.00193723 0 0 0 0 0 0 0 0 0 0 0 0 0 0 0 0 0 0 0 0 0 0 0 0 0 0 0 0 0 0 0 0 0 0 0 0 0 0 0 0 0 0
0.475588 2.14912e-09 1.11877e-09 1.03035e-09 0.479428 0.00177642 0 0 0 0 0 0 0 0 0 0 0 0 0 0 0 0 0 0 0 0 0 0 0 0 0 0 0 0 0 0 0 0 0 0 0 0 0 0 0 0 0 0
0.5 2.17459e-09 1.13879e-09 1.03579e-09 0.476317 0.00162159 0 0 0 0 0 0 0 0 0 0 0 0 0 0 0 0 0 0 0 0 0 0 0 0 0 0 0 0 0 0 0 0 0 0 0 0 0 0 0 0 0 0
0.525665 2.18734e-09 1.15181e-09 1.03553e-09 0.47342 0.0014751 0 0 0 0 0 0 0 0 0 0 0 0 0 0 0 0 0 0 0 0 0 0 0 0 0 0 0 0 0 0 0 0 0 0 0 0 0 0 0 0 0 0
0.552648 2.18789e-09 1.15513e-09 1.03275e-09 0.472032 0.00134175 0 0 0 0 0 0 0 0 0 0 0 0 0 0 0 0 0 0 0 0 0 0 0 0 0 0 0 0 0 0 0 0 0 0 0 0 0 0 0 0 0 0
0.581015 2.18278e-09 1.15041e-09 1.03237e-09 0.472959 0.00121775 0 0 0 0 0 0 0 0 0 0 0 0 0 0 0 0 0 0 0 0 0 0 0 0 0 0 0 0 0 0 0 0 0 0 0 0 0 0 0 0 0 0
0.610839 2.18151e-09 1.14291e-09 1.0386e-09 0.476094 0.00110516 0 0 0 0 0 0 0 0 0 0 0 0 0 0 0 0 0 0 0 0 0 0 0 0 0 0 0 0 0 0 0 0 0 0 0 0 0 0 0 0 0 0
0.642193 2.19088e-09 1.13854e-09 1.05234e-09 0.480329 0.00100302 0 0 0 0 0 0 0 0 0 0 0 0 0 0 0 0 0 0 0 0 0 0 0 0 0 0 0 0 0 0 0 0 0 0 0 0 0 0 0 0 0 0
0.675157 2.21229e-09 1.14143e-09 1.07086e-09 0.484052 0.000910957 0 0 0 0 0 0 0 0 0 0 0 0 0 0 0 0 0 0 0 0 0 0 0 0 0 0 0 0 0 0 0 0 0 0 0 0 0 0 0 0 0 0
0.709813 2.24229e-09 1.15279e-09 1.08949e-09 0.485884 0.00082817 0 0 0 0 0 0 0 0 0 0 0 0 0 0 0 0 0 0 0 0 0 0 0 0 0 0 0 0 0 0 0 0 0 0 0 0 0 0 0 0 0 0
0.746248 2.27458e-09 1.17162e-09 1.10296e-09 0.484906 0.000754183 0 0 0 0 0 0 0 0 0 0 0 0 0 0 0 0 0 0 0 0 0 0 0 0 0 0 0 0 0 0 0 0 0 0 0 0 0 0 0 0 0 0
0.784553 2.30109e-09 1.19423e-09 1.10686e-09 0.481016 0.000686995 0 0 0 0 0 0 0 0 0 0 0 0 0 0 0 0 0 0 0 0 0 0 0 0 0 0 0 0 0 0 0 0 0 0 0 0 0 0 0 0 0 0
0.824824 2.31415e-09 1.21649e-09 1.09766e-09 0.474325 0.000626788 0 0 0 0 0 0 0 0 0 0 0 0 0 0 0 0 0 0 0 0 0 0 0 0 0 0 0 0 0 0 0 0 0 0 0 0 0 0 0 0 0 0
0.867162 2.30642e-09 1.23352e-09 1.0729e-09 0.465179 0.000572518 0 0 0 0 0 0 0 0 0 0 0 0 0 0 0 0 0 0 0 0 0 0 0 0 0 0 0 0 0 0 0 0 0 0 0 0 0 0 0 0 0 0
0.911674 2.27352e-09 1.24141e-09 1.0321e-09 0.453968 0.000523427 0 0 0 0 0 0 0 0 0 0 0 0 0 0 0 0 0 0 0 0 0 0 0 0 0 0 0 0 0 0 0 0 0 0 0 0 0 0 0 0 0 0
0.95847 2.21203e-09 1.23679e-09 9.75237e-10 0.440879 0.00047944 0 0 0 0 0 0 0 0 0 0 0 0 0 0 0 0 0 0 0 0 0 0 0 0 0 0 0 0 0 0 0 0 0 0 0 0 0 0 0 0 0 0
1.00767 2.1227e-09 1.21801e-09 9.04684e-10 0.426195 0.0004395 0 0 0 0 0 0 0 0 0 0 0 0 0 0 0 0 0 0 0 0 0 0 0 0 0 0 0 0 0 0 0 0 0 0 0 0 0 0 0 0 0 0
1.05939 2.00812e-09 1.18447e-09 8.23649e-10 0.410159 0.000403275 0 0 0 0 0 0 0 0 0 0 0 0 0 0 0 0 0 0 0 0 0 0 0 0 0 0 0 0 0 0 0 0 0 0 0 0 0 0 0 0 0 0
1.11377 1.873e-09 1.13708e-09 7.35922e-10 0.39291 0.000370298 0 0 0 0 0 0 0 0 0 0 0 0 0 0 0 0 0 0 0 0 0 0 0 0 0 0 0 0 0 0 0 0 0 0 0 0 0 0 0 0 0 0
1.17094 1.72505e-09 1.07848e-09 6.46576e-10 0.374815 0.000339515 0 0 0 0 0 0 0 0 0 0 0 0 0 0 0 0 0 0 0 0 0 0 0 0 0 0 0 0 0 0 0 0 0 0 0 0 0 0 0 0 0 0
1.23105 1.57042e-09 1.01135e-09 5.59077e-10 0.356004 0.000311294 0 0 0 0 0 0 0 0 0 0 0 0 0 0 0 0 0 0 0 0 0 0 0 0 0 0 0 0 0 0 0 0 0 0 0 0 0 0 0 0 0 0
1.29424 1.41561e-09 9.38754e-10 4.76851e-10 0.336853 0.000285362 0 0 0 0 0 0 0 0 0 0 0 0 0 0 0 0 0 0 0 0 0 0 0 0 0 0 0 0 0 0 0 0 0 0 0 0 0 0 0 0 0 0
1.36067 1.26592e-09 8.63902e-10 4.0202e-10 0.317571 0.000261742 0 0 0 0 0 0 0 0 0 0 0 0 0 0 0 0 0 0 0 0 0 0 0 0 0 0 0 0 0 0 0 0 0 0 0 0 0 0 0 0 0 0
1.43051 1.12458e-09 7.89025e-10 3.35556e-10 0.298383 0.000240209 0 0 0 0 0 0 0 0 0 0 0 0 0 0 0 0 0 0 0 0 0 0 0 0 0 0 0 0 0 0 0 0 0 0 0 0 0 0 0 0 0 0
1.50394 9.94312e-10 7.16352e-10 2.7796e-10 0.27955 0.000220279 0 0 0 0 0 0 0 0 0 0 0 0 0 0 0 0 0 0 0 0 0 0 0 0 0 0 0 0 0 0 0 0 0 0 0 0 0 0 0 0 0 0
1.58114 8.76128e-10 6.47232e-10 2.28896e-10 0.261258 0.000201732 0 0 0 0 0 0 0 0 0 0 0 0 0 0 0 0 0 0 0 0 0 0 0 0 0 0 0 0 0 0 0 0 0 0 0 0 0 0 0 0 0 0
1.6623 7.7001e-10 5.8242e-10 1.8759e-10 0.24362 0.000184534 0 0 0 0 0 0 0 0 0 0 0 0 0 0 0 0 0 0 0 0 0 0 0 0 0 0 0 0 0 0 0 0 0 0 0 0 0 0 0 0 0 0
1.74763 6.75708e-10 5.22477e-10 1.53231e-10 0.226771 0.000169005 0 0 0 0 0 0 0 0 0 0 0 0 0 0 0 0 0 0 0 0 0 0 0 0 0 0 0 0 0 0 0 0 0 0 0 0 0 0 0 0 0 0
1.83733 5.92365e-10 4.67513e-10 1.24851e-10 0.210768 0.000154804 0 0 0 0 0 0 0 0 0 0 0 0 0 0 0 0 0 0 0 0 0 0 0 0 0 0 0 0 0 0 0 0 0 0 0 0 0 0 0 0 0 0
1.93164 5.19024e-10 4.1748e-10 1.01544e-10 0.195645 0.000141793 0 0 0 0 0 0 0 0 0 0 0 0 0 0 0 0 0 0 0 0 0 0 0 0 0 0 0 0 0 0 0 0 0 0 0 0 0 0 0 0 0 0
2.03079 4.54707e-10 3.72206e-10 8.2501e-11 0.181438 0.000129725 0 0 0 0 0 0 0 0 0 0 0 0 0 0 0 0 0 0 0 0 0 0 0 0 0 0 0 0 0 0 0 0 0 0 0 0 0 0 0 0 0 0
2.13503 3.98432e-10 3.31441e-10 6.69918e-11 0.168138 0.000118657 0 0 0 0 0 0 0 0 0 0 0 0 0 0 0 0 0 0 0 0 0 0 0 0 0 0 0 0 0 0 0 0 0 0 0 0 0 0 0 0 0 0
2.24463 3.49211e-10 2.94834e-10 5.43772e-11 0.155714 0.000108569 0 0 0 0 0 0 0 0 0 0 0 0 0 0 0 0 0 0 0 0 0 0 0 0 0 0 0 0 0 0 0 0 0 0 0 0 0 0 0 0 0 0
2.35984 3.06203e-10 2.62066e-10 4.41369e-11 0.144143 9.92926e-05 0 0 0 0 0 0 0 0 0 0 0 0 0 0 0 0 0 0 0 0 0 0 0 0 0 0 0 0 0 0 0 0 0 0 0 0 0 0 0 0 0 0
2.48097 2.68633e-10 2.32803e-10 3.58292e-11 0.133376 9.07218e-05 0 0 0 0 0 0 0 0 0 0 0 0 0 0 0 0 0 0 0 0 0 0 0 0 0 0 0 0 0 0 0 0 0 0 0 0 0 0 0 0 0 0
2.60832 2.35823e-10 2.0673e-10 2.9093e-11 0.123368 8.27967e-05 0 0 0 0 0 0 0 0 0 0 0 0 0 0 0 0 0 0 0 0 0 0 0 0 0 0 0 0 0 0 0 0 0 0 0 0 0 0 0 0 0 0
2.74221 2.07172e-10 1.83536e-10 2.36356e-11 0.114087 7.55862e-05 0 0 0 0 0 0 0 0 0 0 0 0 0 0 0 0 0 0 0 0 0 0 0 0 0 0 0 0 0 0 0 0 0 0 0 0 0 0 0 0 0 0
2.88297 1.82113e-10 1.6291e-10 1.92038e-11 0.10545 6.90729e-05 0 0 0 0 0 0 0 0 0 0 0 0 0 0 0 0 0 0 0 0 0 0 0 0 0 0 0 0 0 0 0 0 0 0 0 0 0 0 0 0 0 0
3.03095 1.60242e-10 1.44627e-10 1.56149e-11 0.0974461 6.31538e-05 0 0 0 0 0 0 0 0 0 0 0 0 0 0 0 0 0 0 0 0 0 0 0 0 0 0 0 0 0 0 0 0 0 0 0 0 0 0 0 0 0 0
3.18653 1.41112e-10 1.28412e-10 1.27002e-11 0.0900008 5.76567e-05 0 0 0 0 0 0 0 0 0 0 0 0 0 0 0 0 0 0 0 0 0 0 0 0 0 0 0 0 0 0 0 0 0 0 0 0 0 0 0 0 0 0
3.35009 1.24389e-10 1.14055e-10 1.03344e-11 0.0830815 5.2603e-05 0 0 0 0 0 0 0 0 0 0 0 0 0 0 0 0 0 0 0 0 0 0 0 0 0 0 0 0 0 0 0 0 0 0 0 0 0 0 0 0 0 0
3.52205 1.09776e-10 1.01363e-10 8.41339e-12 0.0766411 4.80102e-05 0 0 0 0 0 0 0 0 0 0 0 0 0 0 0 0 0 0 0 0 0 0 0 0 0 0 0 0 0 0 0 0 0 0 0 0 0 0 0 0 0 0
3.70284 9.69915e-11 9.01395e-11 6.85206e-12 0.070646 4.38066e-05 0 0 0 0 0 0 0 0 0 0 0 0 0 0 0 0 0 0 0 0 0 0 0 0 0 0 0 0 0 0 0 0 0 0 0 0 0 0 0 0 0 0
3.89291 8.58006e-11 8.0218e-11 5.58256e-12 0.0650643 3.9926e-05 0 0 0 0 0 0 0 0 0 0 0 0 0 0 0 0 0 0 0 0 0 0 0 0 0 0 0 0 0 0 0 0 0 0 0 0 0 0 0 0 0 0
4.09273 7.60202e-11 7.14696e-11 4.55057e-12 0.05986 3.62643e-05 0 0 0 0 0 0 0 0 0 0 0 0 0 0 0 0 0 0 0 0 0 0 0 0 0 0 0 0 0 0 0 0 0 0 0 0 0 0 0 0 0 0
4.30281 6.74529e-11 6.37422e-11 3.71073e-12 0.0550121 3.29535e-05 0 0 0 0 0 0 0 0 0 0 0 0 0 0 0 0 0 0 0 0 0 0 0 0 0 0 0 0 0 0 0 0 0 0 0 0 0 0 1.4013e-45 0 4.2039e-45 0
4.52368 5.99547e-11 5.69276e-11 3.02714e-12 0.0504905 2.99416e-05 0 0 0 0 0 0 0 0 0 0 0 0 0 0 0 0 0 0 0 0 0 0 0 0 0 0 0 0 0 0 2.8026e-45 0 8.40779e-45 0 2.8026e-44 0 8.12753e-44 0 2.24208e-43 0 5.84341e-43 0
4.75588 5.33862e-11 5.09158e-11 2.47044e-12 0.046275 2.71796e-05 0 0 0 0 0 0 0 0 0 0 0 0 0 0 0 0 0 0 0 0 0 0 1.4013e-45 0 4.2039e-45 0 2.10195e-44 0 8.40779e-44 0 3.05483e-43 0 1.00053e-42 0 3.06744e-42 0 8.53111e-42 0 2.24278e-41 0 5.58782e-41 0
5 4.76234e-11 4.56068e-11 2.01653e-12 0.0423433 2.45398e-05 0 0 0 0 0 0 0 0 0 0 0 0 0 0 0 0 0 0 2.8026e-45 0 1.68156e-44 0 1.05097e-43 0 5.32493e-43 0 2.28272e-42 0 8.70206e-42 0 2.97398e-41 0 9.17458e-41 0 2.66235e-40 0 7.04437e-40 0 1.76652e-39 0 4.20939e-39 0
5.25665 4.25702e-11 4.09236e-11 1.64663e-12 0.0386804 2.21678e-05 0 0 0 0 0 0 0 0 0 0 0 0 0 0 2.8026e-45 0 3.22299e-44 0 2.84464e-43 0 1.90577e-42 0 1.05924e-41 0 4.95639e-41 0 1.97844e-40 0 7.06532e-40 0 2.27405e-39 0 6.64001e-39 0 1.8292e-38 0 4.61533e-38 0 1.10659e-37 0 2.5274e-37 0
5.52648 3.81342e-11 3.67893e-11 1.34488e-12 0.035267 2.00489e-05 0 0 0 0 0 0 0 0 0 0 0 0 1.82169e-44 0 3.1249e-43 0 3.4542e-42 0 2.68181e-41 0 1.64015e-40 0 8.38613e-40 0 3.63916e-39 0 1.35772e-38 0 4.55647e-38 0 1.38519e-37 0 3.83846e-37 0 1.00638e-36 0 2.42706e-36 0 5.57598e-36 0 1.2232e-35 0
5.81015 3.42356e-11 3.31368e-11 1.09882e-12 0.0320959 1.8115e-05 0 0 0 0 0 0 0 0 1.4013e-45 0 7.28675e-44 0 1.92819e-42 0 2.89494e-41 0 2.84436e-40 0 1.99788e-39 0 1.11847e-38 0 5.28083e-38 0 2.13314e-37 0 7.46293e-37 0 2.36078e-36 0 6.7977e-36 0 1.79224e-35 0 4.48294e-35 0 1.03566e-34 0 2.28465e-34 0 4.82322e-34 0
6.10839 3.08092e-11 2.99109e-11 8.98247e-13 0.0291552 1.63023e-05 0 0 0 0 0 0 1.4013e-45 0 1.41531e-43 0 7.19146e-42 0 1.60901e-40 0 2.11621e-39 0 1.85975e-38 0 1.1877e-37 0 6.11278e-37 0 2.6755e-36 0 1.00953e-35 0 3.32242e-35 0 9.93531e-35 0 2.71683e-34 0 6.83189e-34 0 1.63406e-33 0 3.6238e-33 0 7.69116e-33 0 1.56554e-32 0
6.42193 2.75939e-11 2.68616e-11 7.32283e-13 0.0265379 1.48144e-05 0 0 0 0 0 0 8.40779e-44 0 1.31288e-41 0 5.50252e-40 0 1.05784e-38 0 1.22683e-37 0 9.69604e-37 0 5.65627e-36 0 2.68734e-35 0 1.09442e-34 0 3.87026e-34 0 1.20176e-33 0 3.40658e-33 0 8.86889e-33 0 2.13203e-32 0 4.88686e-32 0 1.04241e-31 0 2.1326e-31 0 4.19288e-31 0
6.75157 2.51049e-11 2.45055e-11 5.99387e-13 0.0238752 1.32279e-05 0 0 0 0 7.00649e-45 0 8.02804e-42 0 9.73786e-40 0 3.40087e-38 0 5.65933e-37 0 5.82321e-36 0 4.16043e-35 0 2.22678e-34 0 9.80453e-34 0 3.72831e-33 0 1.23961e-32 0 3.64199e-32 0 9.81173e-32 0 2.43785e-31 0 5.6148e-31 0 1.2359e-30 0 2.54055e-30 0 5.01903e-30 0 9.54746e-30 0
7.09813 2.27611e-11 2.2271e-11 4.901e-13 0.0215324 1.18448e-05 0 0 0 0 6.74025e-43 0 5.97536e-40 0 5.73425e-38 0 1.68369e-36 0 2.44238e-35 0 2.24276e-34 0 1.45567e-33 0 7.17848e-33 0 2.94002e-32 0 1.0474e-31 0 3.28408e-31 0 9.15405e-31 0 2.34967e-30 0 5.58432e-30 0 1.23483e-29 0 2.61532e-29 0 5.19028e-29 0 9.91851e-29 0 1.82843e-28 0
7.46248 2.06879e-11 2.02872e-11 4.00747e-13 0.019371 1.05694e-05 0 0 0 0 5.57941e-41 0 3.55145e-38 0 2.72737e-36 0 6.78993e-35 0 8.64382e-34 0 7.12292e-33 0 4.21969e-32 0 1.92494e-31 0 7.35934e-31 0 2.46413e-30 0 7.30686e-30 0 1.93729e-29 0 4.74897e-29 0 1.08195e-28 0 2.30153e-28 0 4.69918e-28 0 9.01894e-28 0 1.66986e-27 0 2.98774e-27 0
7.84553 1.88538e-11 1.8526e-11 3.27752e-13 0.0173839 9.34187e-06 0 0 3.78351e-44 0 3.67029e-39 0 1.70462e-36 0 1.05905e-34 0 2.25358e-33 0 2.53379e-32 0 1.88366e-31 0 1.02306e-30 0 4.33367e-30 0 1.55182e-29 0 4.89827e-29 0 1.3774e-28 0 3.48217e-28 0 8.17038e-28 0 1.78809e-27 0 3.66602e-27 0 7.22878e-27 0 1.34392e-26 0 2.41455e-26 0 4.19917e-26 0
8.24824 1.72286e-11 1.69605e-11 2.68064e-13 0.0155593 8.19911e-06 0 0 3.47242e-42 0 1.94049e-37 0 6.6777e-35 0 3.39125e-33 0 6.21557e-32 0 6.20968e-31 0 4.18566e-30 0 2.09307e-29 0 8.2628e-29 0 2.78013e-28 0 8.29646e-28 0 2.21814e-27 0 5.35934e-27 0 1.2062e-26 0 2.54074e-26 0 5.0297e-26 0 9.59433e-26 0 1.73052e-25 0 3.02144e-25 0 5.11455e-25 0
8.67162 1.57883e-11 1.5569e-11 2.19278e-13 0.0138886 7.20916e-06 2.8026e-45 0 2.54352e-40 0 8.33631e-36 0 2.15694e-33 0 9.04252e-32 0 1.43794e-30 0 1.28388e-29 0 7.88423e-29 0 3.64459e-28 0 1.34548e-27 0 4.26666e-27 0 1.20707e-26 0 3.07593e-26 0 7.11857e-26 0 1.53993e-25 0 3.12784e-25 0 5.98888e-25 0 1.10694e-24 0 1.93989e-24 0 3.29609e-24 0 5.43791e-24 0
9.11674 1.45092e-11 1.43298e-11 1.79391e-13 0.012364 6.32492e-06 2.36819e-43 0 1.49027e-38 0 2.93992e-34 0 5.79954e-32 0 2.02596e-30 0 2.81463e-29 0 2.25832e-28 0 1.26921e-27 0 5.44455e-27 0 1.8858e-26 0 5.65244e-26 0 1.51995e-25 0 3.70031e-25 0 8.21983e-25 0 1.71241e-24 0 3.35991e-24 0 6.2324e-24 0 1.11792e-23 0 1.90619e-23 0 3.15607e-23 0 5.08118e-23 0
9.5847 1.33725e-11 1.32257e-11 1.46774e-13 0.0109758 5.52644e-06 1.91992e-41 0 7.06185e-37 0 8.59582e-33 0 1.31006e-30 0 3.84752e-29 0 4.70085e-28 0 3.4071e-27 0 1.76007e-26 0 7.032e-26 0 2.29229e-25 0 6.51229e-25 0 1.6686e-24 0 3.88952e-24 0 8.30991e-24 0 1.67025e-23 0 3.17108e-23 0 5.70734e-23 0 9.94944e-23 0 1.65288e-22 0 2.67011e-22 0 4.2e-22 0
10.0767 1.23643e-11 1.22442e-11 1.20107e-13 0.009714 4.78203e-06 1.24269e-39 0 2.7358e-35 0 2.10373e-31 0 2.50848e-29 0 6.24643e-28 0 6.75391e-27 0 4.44391e-26 0 2.11881e-25 0 7.91172e-25 0 2.43448e-24 0 6.57248e-24 0 1.60841e-23 0 3.59746e-23 0 7.40627e-23 0 1.43873e-22 0 2.64736e-22 0 4.62998e-22 0 7.85524e-22 0 1.27303e-21 0 2.0089e-21 0 3.09082e-21 0
10.5939 1.14713e-11 1.1373e-11 9.82542e-14 0.00856523 4.06995e-06 6.47899e-38 0 8.75388e-34 0 4.3489e-30 0 4.10602e-28 0 8.73925e-27 0 8.41235e-26 0 5.04869e-25 0 2.23042e-24 0 7.80961e-24 0 2.27474e-23 0 5.85055e-23 0 1.37053e-22 0 2.94726e-22 0 5.85747e-22 0 1.10157e-21 0 1.9675e-21 0 3.34832e-21 0 5.53603e-21 0 8.76274e-21 0 1.35234e-20 0 2.03735e-20 0
