# 1.8836e-05 0 109 : grain size, compostion index, size index
# Heating and cooling timescale: 0.00639626 312539
# Ratio of heating to cooling to determine stochastic cutoff: 100
# Equilibrium emission is recorded even for those grains in the stochastic regime.
# Emission spectrum was computed for: 
# Type: IRSF
# Scales: 0.25 0.5 1 1.5 2 2.5 3 3.5 4 4.5 5 5.5 6 6.5 7 7.5 8 8.5 9 9.5 10
# StochasticallyHeated: 0 0 0 0 0 0 0 0 0 0 0 0 0 0 0 0 0 0 0 0 0
# Temperature: -1
# Wavelength  CExt  CAbs  CSca  Albedo G EqEm1 StEm1 EqEm2 StEm2 EqEm3 StEm3 EqEm4 StEm4 EqEm5 StEm5 EqEm6 StEm6 EqEm7 StEm7 EqEm8 StEm8 EqEm9 StEm9 EqEm10 StEm10 EqEm11 StEm11 EqEm12 StEm12 EqEm13 StEm13 EqEm14 StEm14 EqEm15 StEm15 EqEm16 StEm16 EqEm17 StEm17 EqEm18 StEm18 EqEm19 StEm19 EqEm20 StEm20 EqEm21 StEm21
0.05 6.69176e-10 2.7715e-10 3.92026e-10 0.585834 0.00576547 0 0 0 0 0 0 0 0 0 0 0 0 0 0 0 0 0 0 0 0 0 0 0 0 0 0 0 0 0 0 0 0 0 0 0 0 0 0 0 0 0 0
0.0525665 7.39637e-10 3.06332e-10 4.33305e-10 0.585834 0.00637255 0 0 0 0 0 0 0 0 0 0 0 0 0 0 0 0 0 0 0 0 0 0 0 0 0 0 0 0 0 0 0 0 0 0 0 0 0 0 0 0 0 0
0.0552647 8.17517e-10 3.38588e-10 4.78929e-10 0.585834 0.00704355 0 0 0 0 0 0 0 0 0 0 0 0 0 0 0 0 0 0 0 0 0 0 0 0 0 0 0 0 0 0 0 0 0 0 0 0 0 0 0 0 0 0
0.0581015 9.03598e-10 3.74239e-10 5.29358e-10 0.585834 0.0077852 0 0 0 0 0 0 0 0 0 0 0 0 0 0 0 0 0 0 0 0 0 0 0 0 0 0 0 0 0 0 0 0 0 0 0 0 0 0 0 0 0 0
0.0610839 9.98742e-10 4.13645e-10 5.85097e-10 0.585834 0.00860494 0 0 0 0 0 0 0 0 0 0 0 0 0 0 0 0 0 0 0 0 0 0 0 0 0 0 0 0 0 0 0 0 0 0 0 0 0 0 0 0 0 0
0.0642193 1.1039e-09 4.572e-10 6.46705e-10 0.585834 0.009511 0 0 0 0 0 0 0 0 0 0 0 0 0 0 0 0 0 0 0 0 0 0 0 0 0 0 0 0 0 0 0 0 0 0 0 0 0 0 0 0 0 0
0.0675157 1.22014e-09 5.05341e-10 7.148e-10 0.585834 0.0105125 0 0 0 0 0 0 0 0 0 0 0 0 0 0 0 0 0 0 0 0 0 0 0 0 0 0 0 0 0 0 0 0 0 0 0 0 0 0 0 0 0 0
0.0709813 1.34862e-09 5.58551e-10 7.90065e-10 0.585834 0.0116194 0 0 0 0 0 0 0 0 0 0 0 0 0 0 0 0 0 0 0 0 0 0 0 0 0 0 0 0 0 0 0 0 0 0 0 0 0 0 0 0 0 0
0.0746248 1.49062e-09 6.17363e-10 8.73255e-10 0.585834 0.0128428 0 0 0 0 0 0 0 0 0 0 0 0 0 0 0 0 0 0 0 0 0 0 0 0 0 0 0 0 0 0 0 0 0 0 0 0 0 0 0 0 0 0
0.0784553 1.64757e-09 6.82369e-10 9.65204e-10 0.585834 0.0141951 0 0 0 0 0 0 0 0 0 0 0 0 0 0 0 0 0 0 0 0 0 0 0 0 0 0 0 0 0 0 0 0 0 0 0 0 0 0 0 0 0 0
0.0824824 1.82105e-09 7.54219e-10 1.06684e-09 0.585834 0.0156898 0 0 0 0 0 0 0 0 0 0 0 0 0 0 0 0 0 0 0 0 0 0 0 0 0 0 0 0 0 0 0 0 0 0 0 0 0 0 0 0 0 0
0.0867162 2.0128e-09 8.33635e-10 1.17917e-09 0.585834 0.0173419 0 0 0 0 0 0 0 0 0 0 0 0 0 0 0 0 0 0 0 0 0 0 0 0 0 0 0 0 0 0 0 0 0 0 0 0 0 0 0 0 0 0
0.0911674 2.22474e-09 9.21412e-10 1.30333e-09 0.585834 0.0191679 0 0 0 0 0 0 0 0 0 0 0 0 0 0 0 0 0 0 0 0 0 0 0 0 0 0 0 0 0 0 0 0 0 0 0 0 0 0 0 0 0 0
0.095847 2.459e-09 1.01843e-09 1.44056e-09 0.585834 0.0211862 0 0 0 0 0 0 0 0 0 0 0 0 0 0 0 0 0 0 0 0 0 0 0 0 0 0 0 0 0 0 0 0 0 0 0 0 0 0 0 0 0 0
0.100767 2.67428e-09 1.11584e-09 1.55844e-09 0.58275 0.0235692 0 0 0 0 0 0 0 0 0 0 0 0 0 0 0 0 0 0 0 0 0 0 0 0 0 0 0 0 0 0 0 0 0 0 0 0 0 0 0 0 0 0
0.105939 2.66767e-09 1.16119e-09 1.50648e-09 0.564717 0.0256046 0 0 0 0 0 0 0 0 0 0 0 0 0 0 0 0 0 0 0 0 0 0 0 0 0 0 0 0 0 0 0 0 0 0 0 0 0 0 0 0 0 0
0.111377 2.6741e-09 1.17715e-09 1.49695e-09 0.559796 0.0289403 0 0 0 0 0 0 0 0 0 0 0 0 0 0 0 0 0 0 0 0 0 0 0 0 0 0 0 0 0 0 0 0 0 0 0 0 0 0 0 0 0 0
0.117094 2.67331e-09 1.2187e-09 1.45461e-09 0.544124 0.0274507 0 0 0 0 0 0 0 0 0 0 0 0 0 0 0 0 0 0 0 0 0 0 0 0 0 0 0 0 0 0 0 0 0 0 0 0 0 0 0 0 0 0
0.123105 2.68437e-09 1.27439e-09 1.40998e-09 0.525256 0.0236555 0 0 0 0 0 0 0 0 0 0 0 0 0 0 0 0 0 0 0 0 0 0 0 0 0 0 0 0 0 0 0 0 0 0 0 0 0 0 0 0 0 0
0.129424 2.69835e-09 1.32218e-09 1.37617e-09 0.510003 0.0199126 0 0 0 0 0 0 0 0 0 0 0 0 0 0 0 0 0 0 0 0 0 0 0 0 0 0 0 0 0 0 0 0 0 0 0 0 0 0 0 0 0 0
0.136067 2.71618e-09 1.36348e-09 1.3527e-09 0.498016 0.0168557 0 0 0 0 0 0 0 0 0 0 0 0 0 0 0 0 0 0 0 0 0 0 0 0 0 0 0 0 0 0 0 0 0 0 0 0 0 0 0 0 0 0
0.143051 2.72537e-09 1.40024e-09 1.32513e-09 0.486219 0.0143876 0 0 0 0 0 0 0 0 0 0 0 0 0 0 0 0 0 0 0 0 0 0 0 0 0 0 0 0 0 0 0 0 0 0 0 0 0 0 0 0 0 0
0.150394 2.70995e-09 1.42059e-09 1.28936e-09 0.475788 0.0122986 0 0 0 0 0 0 0 0 0 0 0 0 0 0 0 0 0 0 0 0 0 0 0 0 0 0 0 0 0 0 0 0 0 0 0 0 0 0 0 0 0 0
0.158114 2.69687e-09 1.41498e-09 1.28188e-09 0.475324 0.01055 0 0 0 0 0 0 0 0 0 0 0 0 0 0 0 0 0 0 0 0 0 0 0 0 0 0 0 0 0 0 0 0 0 0 0 0 0 0 0 0 0 0
0.16623 2.62256e-09 1.38906e-09 1.2335e-09 0.470343 0.00908216 0 0 0 0 0 0 0 0 0 0 0 0 0 0 0 0 0 0 0 0 0 0 0 0 0 0 0 0 0 0 0 0 0 0 0 0 0 0 0 0 0 0
0.174762 2.53765e-09 1.35568e-09 1.18197e-09 0.465774 0.00782097 0 0 0 0 0 0 0 0 0 0 0 0 0 0 0 0 0 0 0 0 0 0 0 0 0 0 0 0 0 0 0 0 0 0 0 0 0 0 0 0 0 0
0.183733 2.51796e-09 1.31762e-09 1.20033e-09 0.476709 0.00667218 0 0 0 0 0 0 0 0 0 0 0 0 0 0 0 0 0 0 0 0 0 0 0 0 0 0 0 0 0 0 0 0 0 0 0 0 0 0 0 0 0 0
0.193164 2.59178e-09 1.27952e-09 1.31227e-09 0.506318 0.00556038 0 0 0 0 0 0 0 0 0 0 0 0 0 0 0 0 0 0 0 0 0 0 0 0 0 0 0 0 0 0 0 0 0 0 0 0 0 0 0 0 0 0
0.203079 2.72973e-09 1.2535e-09 1.47623e-09 0.540798 0.00446034 0 0 0 0 0 0 0 0 0 0 0 0 0 0 0 0 0 0 0 0 0 0 0 0 0 0 0 0 0 0 0 0 0 0 0 0 0 0 0 0 0 0
0.213503 2.89173e-09 1.24843e-09 1.6433e-09 0.568275 0.00342932 0 0 0 0 0 0 0 0 0 0 0 0 0 0 0 0 0 0 0 0 0 0 0 0 0 0 0 0 0 0 0 0 0 0 0 0 0 0 0 0 0 0
0.224463 3.03847e-09 1.25688e-09 1.78159e-09 0.586345 0.00254317 0 0 0 0 0 0 0 0 0 0 0 0 0 0 0 0 0 0 0 0 0 0 0 0 0 0 0 0 0 0 0 0 0 0 0 0 0 0 0 0 0 0
0.235984 3.13004e-09 1.25807e-09 1.87197e-09 0.598066 0.00182186 0 0 0 0 0 0 0 0 0 0 0 0 0 0 0 0 0 0 0 0 0 0 0 0 0 0 0 0 0 0 0 0 0 0 0 0 0 0 0 0 0 0
0.248097 3.15339e-09 1.24479e-09 1.9086e-09 0.605253 0.00138916 0 0 0 0 0 0 0 0 0 0 0 0 0 0 0 0 0 0 0 0 0 0 0 0 0 0 0 0 0 0 0 0 0 0 0 0 0 0 0 0 0 0
0.260832 3.12728e-09 1.23525e-09 1.89203e-09 0.605008 0.00141961 0 0 0 0 0 0 0 0 0 0 0 0 0 0 0 0 0 0 0 0 0 0 0 0 0 0 0 0 0 0 0 0 0 0 0 0 0 0 0 0 0 0
0.274221 3.07709e-09 1.24581e-09 1.83128e-09 0.595134 0.00187131 0 0 0 0 0 0 0 0 0 0 0 0 0 0 0 0 0 0 0 0 0 0 0 0 0 0 0 0 0 0 0 0 0 0 0 0 0 0 0 0 0 0
0.288297 3.03903e-09 1.2841e-09 1.75493e-09 0.577463 0.00251556 0 0 0 0 0 0 0 0 0 0 0 0 0 0 0 0 0 0 0 0 0 0 0 0 0 0 0 0 0 0 0 0 0 0 0 0 0 0 0 0 0 0
0.303095 3.0309e-09 1.34234e-09 1.68856e-09 0.557115 0.0028362 0 0 0 0 0 0 0 0 0 0 0 0 0 0 0 0 0 0 0 0 0 0 0 0 0 0 0 0 0 0 0 0 0 0 0 0 0 0 0 0 0 0
0.318653 3.04249e-09 1.40308e-09 1.63941e-09 0.538837 0.00297223 0 0 0 0 0 0 0 0 0 0 0 0 0 0 0 0 0 0 0 0 0 0 0 0 0 0 0 0 0 0 0 0 0 0 0 0 0 0 0 0 0 0
0.335009 3.06169e-09 1.45541e-09 1.60628e-09 0.524639 0.00293231 0 0 0 0 0 0 0 0 0 0 0 0 0 0 0 0 0 0 0 0 0 0 0 0 0 0 0 0 0 0 0 0 0 0 0 0 0 0 0 0 0 0
0.352205 3.08221e-09 1.49709e-09 1.58512e-09 0.514281 0.00278811 0 0 0 0 0 0 0 0 0 0 0 0 0 0 0 0 0 0 0 0 0 0 0 0 0 0 0 0 0 0 0 0 0 0 0 0 0 0 0 0 0 0
0.370284 3.10323e-09 1.52972e-09 1.57351e-09 0.507055 0.00261033 0 0 0 0 0 0 0 0 0 0 0 0 0 0 0 0 0 0 0 0 0 0 0 0 0 0 0 0 0 0 0 0 0 0 0 0 0 0 0 0 0 0
0.389291 3.12783e-09 1.5575e-09 1.57033e-09 0.502052 0.00243645 0 0 0 0 0 0 0 0 0 0 0 0 0 0 0 0 0 0 0 0 0 0 0 0 0 0 0 0 0 0 0 0 0 0 0 0 0 0 0 0 0 0
0.409273 3.15637e-09 1.58433e-09 1.57204e-09 0.498052 0.00226652 0 0 0 0 0 0 0 0 0 0 0 0 0 0 0 0 0 0 0 0 0 0 0 0 0 0 0 0 0 0 0 0 0 0 0 0 0 0 0 0 0 0
0.430281 3.18441e-09 1.61007e-09 1.57434e-09 0.49439 0.00210471 0 0 0 0 0 0 0 0 0 0 0 0 0 0 0 0 0 0 0 0 0 0 0 0 0 0 0 0 0 0 0 0 0 0 0 0 0 0 0 0 0 0
0.452368 3.20688e-09 1.63187e-09 1.575e-09 0.491134 0.00193723 0 0 0 0 0 0 0 0 0 0 0 0 0 0 0 0 0 0 0 0 0 0 0 0 0 0 0 0 0 0 0 0 0 0 0 0 0 0 0 0 0 0
0.475588 3.22404e-09 1.64843e-09 1.57561e-09 0.488707 0.00177642 0 0 0 0 0 0 0 0 0 0 0 0 0 0 0 0 0 0 0 0 0 0 0 0 0 0 0 0 0 0 0 0 0 0 0 0 0 0 0 0 0 0
0.5 3.24257e-09 1.66265e-09 1.57992e-09 0.487244 0.00162159 0 0 0 0 0 0 0 0 0 0 0 0 0 0 0 0 0 0 0 0 0 0 0 0 0 0 0 0 0 0 0 0 0 0 0 0 0 0 0 0 0 0
0.525665 3.27122e-09 1.6803e-09 1.59092e-09 0.48634 0.0014751 0 0 0 0 0 0 0 0 0 0 0 0 0 0 0 0 0 0 0 0 0 0 0 0 0 0 0 0 0 0 0 0 0 0 0 0 0 0 0 0 0 0
0.552648 3.31397e-09 1.70587e-09 1.6081e-09 0.48525 0.00134175 0 0 0 0 0 0 0 0 0 0 0 0 0 0 0 0 0 0 0 0 0 0 0 0 0 0 0 0 0 0 0 0 0 0 0 0 0 0 0 0 0 0
0.581015 3.36608e-09 1.7389e-09 1.62718e-09 0.483405 0.00121775 0 0 0 0 0 0 0 0 0 0 0 0 0 0 0 0 0 0 0 0 0 0 0 0 0 0 0 0 0 0 0 0 0 0 0 0 0 0 0 0 0 0
0.610839 3.41519e-09 1.77352e-09 1.64167e-09 0.480697 0.00110516 0 0 0 0 0 0 0 0 0 0 0 0 0 0 0 0 0 0 0 0 0 0 0 0 0 0 0 0 0 0 0 0 0 0 0 0 0 0 0 0 0 0
0.642193 3.44789e-09 1.80093e-09 1.64697e-09 0.477673 0.00100302 0 0 0 0 0 0 0 0 0 0 0 0 0 0 0 0 0 0 0 0 0 0 0 0 0 0 0 0 0 0 0 0 0 0 0 0 0 0 0 0 0 0
0.675157 3.45812e-09 1.81434e-09 1.64378e-09 0.47534 0.000910957 0 0 0 0 0 0 0 0 0 0 0 0 0 0 0 0 0 0 0 0 0 0 0 0 0 0 0 0 0 0 0 0 0 0 0 0 0 0 0 0 0 0
0.709813 3.4514e-09 1.81299e-09 1.63841e-09 0.474709 0.00082817 0 0 0 0 0 0 0 0 0 0 0 0 0 0 0 0 0 0 0 0 0 0 0 0 0 0 0 0 0 0 0 0 0 0 0 0 0 0 0 0 0 0
0.746248 3.44097e-09 1.80181e-09 1.63916e-09 0.476365 0.000754183 0 0 0 0 0 0 0 0 0 0 0 0 0 0 0 0 0 0 0 0 0 0 0 0 0 0 0 0 0 0 0 0 0 0 0 0 0 0 0 0 0 0
0.784553 3.44084e-09 1.78958e-09 1.65125e-09 0.479898 0.000686995 0 0 0 0 0 0 0 0 0 0 0 0 0 0 0 0 0 0 0 0 0 0 0 0 0 0 0 0 0 0 0 0 0 0 0 0 0 0 0 0 0 0
0.824824 3.4597e-09 1.78382e-09 1.67588e-09 0.4844 0.000626788 0 0 0 0 0 0 0 0 0 0 0 0 0 0 0 0 0 0 0 0 0 0 0 0 0 0 0 0 0 0 0 0 0 0 0 0 0 0 0 0 0 0
0.867162 3.49943e-09 1.78966e-09 1.70978e-09 0.488587 0.000572518 0 0 0 0 0 0 0 0 0 0 0 0 0 0 0 0 0 0 0 0 0 0 0 0 0 0 0 0 0 0 0 0 0 0 0 0 0 0 0 0 0 0
0.911674 3.55477e-09 1.80795e-09 1.74682e-09 0.491403 0.000523427 0 0 0 0 0 0 0 0 0 0 0 0 0 0 0 0 0 0 0 0 0 0 0 0 0 0 0 0 0 0 0 0 0 0 0 0 0 0 0 0 0 0
0.95847 3.61673e-09 1.83699e-09 1.77974e-09 0.492085 0.00047944 0 0 0 0 0 0 0 0 0 0 0 0 0 0 0 0 0 0 0 0 0 0 0 0 0 0 0 0 0 0 0 0 0 0 0 0 0 0 0 0 0 0
1.00767 3.67347e-09 1.87257e-09 1.80089e-09 0.490244 0.0004395 0 0 0 0 0 0 0 0 0 0 0 0 0 0 0 0 0 0 0 0 0 0 0 0 0 0 0 0 0 0 0 0 0 0 0 0 0 0 0 0 0 0
1.05939 3.71113e-09 1.90846e-09 1.80267e-09 0.485746 0.000403275 0 0 0 0 0 0 0 0 0 0 0 0 0 0 0 0 0 0 0 0 0 0 0 0 0 0 0 0 0 0 0 0 0 0 0 0 0 0 0 0 0 0
1.11377 3.71588e-09 1.93758e-09 1.7783e-09 0.478567 0.000370298 0 0 0 0 0 0 0 0 0 0 0 0 0 0 0 0 0 0 0 0 0 0 0 0 0 0 0 0 0 0 0 0 0 0 0 0 0 0 0 0 0 0
1.17094 3.67726e-09 1.95316e-09 1.72409e-09 0.468853 0.000339515 0 0 0 0 0 0 0 0 0 0 0 0 0 0 0 0 0 0 0 0 0 0 0 0 0 0 0 0 0 0 0 0 0 0 0 0 0 0 0 0 0 0
1.23105 3.58715e-09 1.94899e-09 1.63816e-09 0.456675 0.000311294 0 0 0 0 0 0 0 0 0 0 0 0 0 0 0 0 0 0 0 0 0 0 0 0 0 0 0 0 0 0 0 0 0 0 0 0 0 0 0 0 0 0
1.29424 3.44474e-09 1.92137e-09 1.52337e-09 0.442231 0.000285362 0 0 0 0 0 0 0 0 0 0 0 0 0 0 0 0 0 0 0 0 0 0 0 0 0 0 0 0 0 0 0 0 0 0 0 0 0 0 0 0 0 0
1.36067 3.255e-09 1.86905e-09 1.38595e-09 0.42579 0.000261742 0 0 0 0 0 0 0 0 0 0 0 0 0 0 0 0 0 0 0 0 0 0 0 0 0 0 0 0 0 0 0 0 0 0 0 0 0 0 0 0 0 0
1.43051 3.02689e-09 1.79331e-09 1.23358e-09 0.40754 0.000240209 0 0 0 0 0 0 0 0 0 0 0 0 0 0 0 0 0 0 0 0 0 0 0 0 0 0 0 0 0 0 0 0 0 0 0 0 0 0 0 0 0 0
1.50394 2.77514e-09 1.69855e-09 1.07659e-09 0.387941 0.000220279 0 0 0 0 0 0 0 0 0 0 0 0 0 0 0 0 0 0 0 0 0 0 0 0 0 0 0 0 0 0 0 0 0 0 0 0 0 0 0 0 0 0
1.58114 2.51303e-09 1.58983e-09 9.23199e-10 0.367365 0.000201732 0 0 0 0 0 0 0 0 0 0 0 0 0 0 0 0 0 0 0 0 0 0 0 0 0 0 0 0 0 0 0 0 0 0 0 0 0 0 0 0 0 0
1.6623 2.25211e-09 1.47235e-09 7.79761e-10 0.346235 0.000184534 0 0 0 0 0 0 0 0 0 0 0 0 0 0 0 0 0 0 0 0 0 0 0 0 0 0 0 0 0 0 0 0 0 0 0 0 0 0 0 0 0 0
1.74763 2.00206e-09 1.35139e-09 6.50672e-10 0.325001 0.000169005 0 0 0 0 0 0 0 0 0 0 0 0 0 0 0 0 0 0 0 0 0 0 0 0 0 0 0 0 0 0 0 0 0 0 0 0 0 0 0 0 0 0
1.83733 1.76851e-09 1.23083e-09 5.37679e-10 0.304029 0.000154804 0 0 0 0 0 0 0 0 0 0 0 0 0 0 0 0 0 0 0 0 0 0 0 0 0 0 0 0 0 0 0 0 0 0 0 0 0 0 0 0 0 0
1.93164 1.55475e-09 1.11375e-09 4.40993e-10 0.283643 0.000141793 0 0 0 0 0 0 0 0 0 0 0 0 0 0 0 0 0 0 0 0 0 0 0 0 0 0 0 0 0 0 0 0 0 0 0 0 0 0 0 0 0 0
2.03079 1.36199e-09 1.00227e-09 3.59721e-10 0.264114 0.000129725 0 0 0 0 0 0 0 0 0 0 0 0 0 0 0 0 0 0 0 0 0 0 0 0 0 0 0 0 0 0 0 0 0 0 0 0 0 0 0 0 0 0
2.13503 1.19016e-09 8.97846e-10 2.9231e-10 0.245606 0.000118657 0 0 0 0 0 0 0 0 0 0 0 0 0 0 0 0 0 0 0 0 0 0 0 0 0 0 0 0 0 0 0 0 0 0 0 0 0 0 0 0 0 0
2.24463 1.03798e-09 8.01097e-10 2.36886e-10 0.228218 0.000108569 0 0 0 0 0 0 0 0 0 0 0 0 0 0 0 0 0 0 0 0 0 0 0 0 0 0 0 0 0 0 0 0 0 0 0 0 0 0 0 0 0 0
2.35984 9.0402e-10 7.12366e-10 1.91654e-10 0.212002 9.92926e-05 0 0 0 0 0 0 0 0 0 0 0 0 0 0 0 0 0 0 0 0 0 0 0 0 0 0 0 0 0 0 0 0 0 0 0 0 0 0 0 0 0 0
2.48097 7.8656e-10 6.31645e-10 1.54915e-10 0.196953 9.07218e-05 0 0 0 0 0 0 0 0 0 0 0 0 0 0 0 0 0 0 0 0 0 0 0 0 0 0 0 0 0 0 0 0 0 0 0 0 0 0 0 0 0 0
2.60832 6.83914e-10 5.58742e-10 1.25172e-10 0.183023 8.27967e-05 0 0 0 0 0 0 0 0 0 0 0 0 0 0 0 0 0 0 0 0 0 0 0 0 0 0 0 0 0 0 0 0 0 0 0 0 0 0 0 0 0 0
2.74221 5.94469e-10 4.93312e-10 1.01157e-10 0.170163 7.55862e-05 0 0 0 0 0 0 0 0 0 0 0 0 0 0 0 0 0 0 0 0 0 0 0 0 0 0 0 0 0 0 0 0 0 0 0 0 0 0 0 0 0 0
2.88297 5.16543e-10 4.34795e-10 8.17482e-11 0.15826 6.90729e-05 0 0 0 0 0 0 0 0 0 0 0 0 0 0 0 0 0 0 0 0 0 0 0 0 0 0 0 0 0 0 0 0 0 0 0 0 0 0 0 0 0 0
3.03095 4.48948e-10 3.82832e-10 6.61161e-11 0.147269 6.31538e-05 0 0 0 0 0 0 0 0 0 0 0 0 0 0 0 0 0 0 0 0 0 0 0 0 0 0 0 0 0 0 0 0 0 0 0 0 0 0 0 0 0 0
3.18653 3.90279e-10 3.36781e-10 5.34977e-11 0.137076 5.76567e-05 0 0 0 0 0 0 0 0 0 0 0 0 0 0 0 0 0 0 0 0 0 0 0 0 0 0 0 0 0 0 0 0 0 0 0 0 0 0 0 0 0 0
3.35009 3.39446e-10 2.96127e-10 4.33186e-11 0.127616 5.2603e-05 0 0 0 0 0 0 0 0 0 0 0 0 0 0 0 0 0 0 0 0 0 0 0 0 0 0 0 0 0 0 0 0 0 0 0 0 0 0 0 0 0 0
3.52205 2.95475e-10 2.60371e-10 3.51042e-11 0.118806 4.80102e-05 0 0 0 0 0 0 0 0 0 0 0 0 0 0 0 0 0 0 0 0 0 0 0 0 0 0 0 0 0 0 0 0 0 0 0 0 0 0 0 0 0 0
3.70284 2.57443e-10 2.28975e-10 2.84672e-11 0.110577 4.38066e-05 0 0 0 0 0 0 0 0 0 0 0 0 0 0 0 0 0 0 0 0 0 0 0 0 0 0 0 0 0 0 0 0 0 0 0 0 0 0 0 0 0 0
3.89291 2.24567e-10 2.01464e-10 2.31023e-11 0.102875 3.9926e-05 0 0 0 0 0 0 0 0 0 0 0 0 0 0 0 0 0 0 0 0 0 0 0 0 0 0 0 0 0 0 0 0 0 0 0 0 0 0 0 0 0 0
4.09273 1.9618e-10 1.77418e-10 1.87623e-11 0.0956381 3.62643e-05 0 0 0 0 0 0 0 0 0 0 0 0 0 0 0 0 0 0 0 0 0 0 0 0 0 0 0 0 0 0 0 0 0 0 0 0 0 0 0 0 0 0
4.30281 1.71663e-10 1.56415e-10 1.52479e-11 0.0888246 3.29535e-05 0 0 0 0 0 0 0 0 0 0 0 0 0 0 0 0 0 0 0 0 0 0 0 0 0 0 0 0 0 0 0 0 0 0 0 0 0 0 0 0 0 0
4.52368 1.50484e-10 1.38082e-10 1.24015e-11 0.0824106 2.99416e-05 0 0 0 0 0 0 0 0 0 0 0 0 0 0 0 0 0 0 0 0 0 0 0 0 0 0 0 0 0 0 0 0 0 0 2.8026e-45 0 7.00649e-45 0 1.96182e-44 0 5.04467e-44 0
4.75588 1.32198e-10 1.22104e-10 1.0093e-11 0.076348 2.71796e-05 0 0 0 0 0 0 0 0 0 0 0 0 0 0 0 0 0 0 0 0 0 0 0 0 0 0 1.4013e-45 0 7.00649e-45 0 2.66247e-44 0 9.10844e-44 0 2.87266e-43 0 8.23963e-43 0 2.22526e-42 0 5.67666e-42 0
5 1.16375e-10 1.08157e-10 8.21754e-12 0.0706128 2.45398e-05 0 0 0 0 0 0 0 0 0 0 0 0 0 0 0 0 0 0 0 0 1.4013e-45 0 9.80909e-45 0 4.90454e-44 0 2.20004e-43 0 8.46384e-43 0 3.01559e-42 0 9.64794e-42 0 2.89424e-41 0 7.87418e-41 0 2.02485e-40 0 4.93473e-40 0
5.25665 1.02702e-10 9.60072e-11 6.69492e-12 0.0651877 2.21678e-05 0 0 0 0 0 0 0 0 0 0 0 0 0 0 0 0 2.8026e-45 0 2.66247e-44 0 1.84971e-43 0 1.079e-42 0 5.25627e-42 0 2.20901e-41 0 7.94256e-41 0 2.66107e-40 0 8.04305e-40 0 2.28665e-39 0 5.92445e-39 0 1.4548e-38 0 3.39459e-38 0
5.52648 9.08636e-11 8.54066e-11 5.45696e-12 0.0600567 2.00489e-05 0 0 0 0 0 0 0 0 0 0 0 0 1.4013e-45 0 2.94273e-44 0 3.41917e-43 0 2.90629e-42 0 1.83962e-41 0 9.85477e-41 0 4.44258e-40 0 1.74057e-39 0 5.87926e-39 0 1.85686e-38 0 5.31728e-38 0 1.43653e-37 0 3.55284e-37 0 8.34993e-37 0 1.86939e-36 0
5.81015 8.06092e-11 7.61591e-11 4.45005e-12 0.0552052 1.8115e-05 0 0 0 0 0 0 0 0 0 0 7.00649e-45 0 1.98984e-43 0 3.10808e-42 0 3.25129e-41 0 2.48887e-40 0 1.43996e-39 0 7.10707e-39 0 2.97678e-38 0 1.09106e-37 0 3.47272e-37 0 1.03691e-36 0 2.8206e-36 0 7.25926e-36 0 1.71773e-35 0 3.87206e-35 0 8.33431e-35 0
6.10839 7.17397e-11 6.8108e-11 3.63168e-12 0.050623 1.63023e-05 0 0 0 0 0 0 0 0 1.26117e-44 0 7.67912e-43 0 1.91572e-41 0 2.61372e-40 0 2.43852e-39 0 1.69008e-38 0 8.97498e-38 0 4.09753e-37 0 1.60032e-36 0 5.50511e-36 0 1.65592e-35 0 4.68721e-35 0 1.21422e-34 0 2.98403e-34 0 6.7702e-34 0 1.46675e-33 0 3.04108e-33 0
6.42193 6.34696e-11 6.05134e-11 2.95612e-12 0.0465754 1.48144e-05 0 0 0 0 0 0 8.40779e-45 0 1.42512e-42 0 6.75538e-41 0 1.4392e-39 0 1.72834e-38 0 1.44592e-37 0 9.11749e-37 0 4.4627e-36 0 1.89186e-35 0 6.91328e-35 0 2.23896e-34 0 6.38216e-34 0 1.71704e-33 0 4.24601e-33 0 9.98666e-33 0 2.17694e-32 0 4.5416e-32 0 9.08698e-32 0
6.75157 5.71722e-11 5.47558e-11 2.41642e-12 0.0422655 1.32279e-05 0 0 0 0 0 0 8.96831e-43 0 1.21558e-40 0 4.77329e-39 0 8.75849e-38 0 9.31605e-37 0 7.02597e-36 0 4.0494e-35 0 1.83416e-34 0 7.24605e-34 0 2.48553e-33 0 7.60087e-33 0 2.05861e-32 0 5.27718e-32 0 1.24855e-31 0 2.81649e-31 0 5.91034e-31 0 1.18955e-30 0 2.30084e-30 0
7.09813 5.13286e-11 4.93552e-11 1.97341e-12 0.0384467 1.18448e-05 0 0 0 0 7.14662e-44 0 7.66328e-41 0 8.17322e-39 0 2.68287e-37 0 4.27088e-36 0 4.0475e-35 0 2.76579e-34 0 1.4634e-33 0 6.15717e-33 0 2.27464e-32 0 7.34674e-32 0 2.12734e-31 0 5.48808e-31 0 1.34366e-30 0 3.04811e-30 0 6.60823e-30 0 1.33743e-29 0 2.60141e-29 0 4.87221e-29 0
7.46248 4.62185e-11 4.46066e-11 1.61186e-12 0.0348748 1.05694e-05 0 0 0 0 6.79209e-42 0 5.19349e-39 0 4.40987e-37 0 1.22069e-35 0 1.69762e-34 0 1.44154e-33 0 8.96825e-33 0 4.37448e-32 0 1.71584e-31 0 5.94701e-31 0 1.81393e-30 0 4.98676e-30 0 1.22831e-29 0 2.87865e-29 0 6.27425e-29 0 1.30981e-28 0 2.56122e-28 0 4.82255e-28 0 8.75968e-28 0
7.84553 4.17522e-11 4.04353e-11 1.31692e-12 0.0315413 9.34187e-06 0 0 4.2039e-45 0 5.10806e-40 0 2.82458e-37 0 1.93081e-35 0 4.54472e-34 0 5.55807e-33 0 4.2516e-32 0 2.41921e-31 0 1.09217e-30 0 4.00739e-30 0 1.30716e-29 0 3.77574e-29 0 9.88001e-29 0 2.3288e-28 0 5.23545e-28 0 1.09852e-27 0 2.21232e-27 0 4.18664e-27 0 7.64324e-27 0 1.34844e-26 0
8.24824 3.7839e-11 3.67629e-11 1.07611e-12 0.0284392 8.19911e-06 0 0 3.93765e-43 0 3.06778e-38 0 1.24627e-35 0 6.93134e-34 0 1.39833e-32 0 1.51333e-31 0 1.04814e-30 0 5.47864e-30 0 2.29789e-29 0 7.91288e-29 0 2.4363e-28 0 6.68212e-28 0 1.66829e-27 0 3.77108e-27 0 8.14912e-27 0 1.64911e-26 0 3.20956e-26 0 5.88761e-26 0 1.04373e-25 0 1.79104e-25 0
8.67162 3.44068e-11 3.35273e-11 8.79582e-13 0.0255642 7.20916e-06 0 0 3.31323e-41 0 1.48788e-36 0 4.50801e-34 0 2.06055e-32 0 3.58978e-31 0 3.45855e-30 0 2.17943e-29 0 1.05082e-28 0 4.10945e-28 0 1.33221e-27 0 3.8826e-27 0 1.0137e-26 0 2.4203e-26 0 5.25738e-26 0 1.09415e-25 0 2.13928e-25 0 4.03036e-25 0 7.17748e-25 0 1.23732e-24 0 2.06799e-24 0
9.11674 3.13918e-11 3.06727e-11 7.19058e-13 0.0229059 6.32492e-06 2.52234e-44 0 2.21281e-39 0 5.88996e-35 0 1.35013e-32 0 5.12066e-31 0 7.7592e-30 0 6.6928e-29 0 3.85501e-28 0 1.72129e-27 0 6.29787e-27 0 1.92771e-26 0 5.33227e-26 0 1.32847e-25 0 3.03988e-25 0 6.35782e-25 0 1.27665e-24 0 2.41573e-24 0 4.41259e-24 0 7.63986e-24 0 1.28247e-23 0 2.09037e-23 0
9.5847 2.87381e-11 2.81501e-11 5.87928e-13 0.0204582 5.52644e-06 2.40463e-42 0 1.18775e-37 0 1.92238e-33 0 3.37961e-31 0 1.07331e-29 0 1.42423e-28 0 1.10581e-27 0 5.84753e-27 0 2.42703e-26 0 8.33507e-26 0 2.41566e-25 0 6.35817e-25 0 1.51501e-24 0 3.32942e-24 0 6.71698e-24 0 1.30364e-23 0 2.39116e-23 0 4.24111e-23 0 7.14879e-23 0 1.17007e-22 0 1.8622e-22 0
10.0767 2.6404e-11 2.59232e-11 4.80818e-13 0.0182101 4.78203e-06 1.77755e-40 0 5.18089e-36 0 5.22411e-32 0 7.13554e-30 0 1.91407e-28 0 2.23868e-27 0 1.57266e-26 0 7.66675e-26 0 2.96849e-25 0 9.59861e-25 0 2.64103e-24 0 6.63053e-24 0 1.51433e-23 0 3.20242e-23 0 6.24312e-23 0 1.17307e-22 0 2.08888e-22 0 3.60275e-22 0 5.91991e-22 0 9.45901e-22 0 1.47167e-21 0
10.5939 2.43516e-11 2.39584e-11 3.93141e-13 0.0161444 4.06995e-06 1.05179e-38 0 1.85582e-34 0 1.19308e-30 0 1.28182e-28 0 2.92827e-27 0 3.03737e-26 0 1.94001e-25 0 8.7537e-25 0 3.17257e-24 0 9.68722e-24 0 2.53689e-23 0 6.08918e-23 0 1.33574e-22 0 2.72331e-22 0 5.13884e-22 0 9.36297e-22 0 1.62094e-21 0 2.72227e-21 0 4.36598e-21 0 6.81828e-21 0 1.03816e-20 0
