# 9.06173e-06 2 53 : grain size, compostion index, size index
# Heating and cooling timescale: 0.577827 1.08944e+06
# Ratio of heating to cooling to determine stochastic cutoff: 100
# Equilibrium emission is recorded even for those grains in the stochastic regime.
# Emission spectrum was computed for: 
# Type: IRSF
# Scales: 0.25 0.5 1 1.5 2 2.5 3 3.5 4 4.5 5 5.5 6 6.5 7 7.5 8 8.5 9 9.5 10
# StochasticallyHeated: 0 0 0 0 0 0 0 0 0 0 0 0 0 0 0 0 0 0 0 0 0
# Temperature: -1
# Wavelength  CExt  CAbs  CSca  Albedo G EqEm1 StEm1 EqEm2 StEm2 EqEm3 StEm3 EqEm4 StEm4 EqEm5 StEm5 EqEm6 StEm6 EqEm7 StEm7 EqEm8 StEm8 EqEm9 StEm9 EqEm10 StEm10 EqEm11 StEm11 EqEm12 StEm12 EqEm13 StEm13 EqEm14 StEm14 EqEm15 StEm15 EqEm16 StEm16 EqEm17 StEm17 EqEm18 StEm18 EqEm19 StEm19 EqEm20 StEm20 EqEm21 StEm21
0.05 5.4294e-10 2.53163e-10 2.89777e-10 0.533718 0.913627 0 0 0 0 0 0 0 0 0 0 0 0 0 0 0 0 0 0 0 0 0 0 0 0 0 0 0 0 0 0 0 0 0 0 0 0 0 0 0 0 0 0
0.0525665 5.47435e-10 2.54461e-10 2.92973e-10 0.535175 0.906784 0 0 0 0 0 0 0 0 0 0 0 0 0 0 0 0 0 0 0 0 0 0 0 0 0 0 0 0 0 0 0 0 0 0 0 0 0 0 0 0 0 0
0.0552647 5.53043e-10 2.54411e-10 2.98632e-10 0.53998 0.897077 0 0 0 0 0 0 0 0 0 0 0 0 0 0 0 0 0 0 0 0 0 0 0 0 0 0 0 0 0 0 0 0 0 0 0 0 0 0 0 0 0 0
0.0581015 5.61814e-10 2.53894e-10 3.0792e-10 0.548081 0.882899 0 0 0 0 0 0 0 0 0 0 0 0 0 0 0 0 0 0 0 0 0 0 0 0 0 0 0 0 0 0 0 0 0 0 0 0 0 0 0 0 0 0
0.0610839 5.73765e-10 2.55606e-10 3.18159e-10 0.554511 0.867354 0 0 0 0 0 0 0 0 0 0 0 0 0 0 0 0 0 0 0 0 0 0 0 0 0 0 0 0 0 0 0 0 0 0 0 0 0 0 0 0 0 0
0.0642193 5.86683e-10 2.60265e-10 3.26418e-10 0.556379 0.854594 0 0 0 0 0 0 0 0 0 0 0 0 0 0 0 0 0 0 0 0 0 0 0 0 0 0 0 0 0 0 0 0 0 0 0 0 0 0 0 0 0 0
0.0675157 5.99385e-10 2.6695e-10 3.32435e-10 0.554626 0.845248 0 0 0 0 0 0 0 0 0 0 0 0 0 0 0 0 0 0 0 0 0 0 0 0 0 0 0 0 0 0 0 0 0 0 0 0 0 0 0 0 0 0
0.0709813 6.11333e-10 2.74827e-10 3.36506e-10 0.550446 0.838779 0 0 0 0 0 0 0 0 0 0 0 0 0 0 0 0 0 0 0 0 0 0 0 0 0 0 0 0 0 0 0 0 0 0 0 0 0 0 0 0 0 0
0.0746248 6.21997e-10 2.83208e-10 3.38789e-10 0.544679 0.834665 0 0 0 0 0 0 0 0 0 0 0 0 0 0 0 0 0 0 0 0 0 0 0 0 0 0 0 0 0 0 0 0 0 0 0 0 0 0 0 0 0 0
0.0784553 6.30549e-10 2.9174e-10 3.38809e-10 0.537324 0.83318 0 0 0 0 0 0 0 0 0 0 0 0 0 0 0 0 0 0 0 0 0 0 0 0 0 0 0 0 0 0 0 0 0 0 0 0 0 0 0 0 0 0
0.0824824 6.36039e-10 3.0056e-10 3.35479e-10 0.527451 0.835561 0 0 0 0 0 0 0 0 0 0 0 0 0 0 0 0 0 0 0 0 0 0 0 0 0 0 0 0 0 0 0 0 0 0 0 0 0 0 0 0 0 0
0.0867162 6.38633e-10 3.05553e-10 3.3308e-10 0.521552 0.835497 0 0 0 0 0 0 0 0 0 0 0 0 0 0 0 0 0 0 0 0 0 0 0 0 0 0 0 0 0 0 0 0 0 0 0 0 0 0 0 0 0 0
0.0911674 6.46491e-10 3.08961e-10 3.3753e-10 0.522096 0.827045 0 0 0 0 0 0 0 0 0 0 0 0 0 0 0 0 0 0 0 0 0 0 0 0 0 0 0 0 0 0 0 0 0 0 0 0 0 0 0 0 0 0
0.095847 6.54476e-10 3.14182e-10 3.40294e-10 0.519949 0.820941 0 0 0 0 0 0 0 0 0 0 0 0 0 0 0 0 0 0 0 0 0 0 0 0 0 0 0 0 0 0 0 0 0 0 0 0 0 0 0 0 0 0
0.100767 6.60406e-10 3.19439e-10 3.40967e-10 0.5163 0.81698 0 0 0 0 0 0 0 0 0 0 0 0 0 0 0 0 0 0 0 0 0 0 0 0 0 0 0 0 0 0 0 0 0 0 0 0 0 0 0 0 0 0
0.105939 6.64702e-10 3.25896e-10 3.38805e-10 0.50971 0.816494 0 0 0 0 0 0 0 0 0 0 0 0 0 0 0 0 0 0 0 0 0 0 0 0 0 0 0 0 0 0 0 0 0 0 0 0 0 0 0 0 0 0
0.111377 6.68268e-10 3.32352e-10 3.35916e-10 0.502667 0.81678 0 0 0 0 0 0 0 0 0 0 0 0 0 0 0 0 0 0 0 0 0 0 0 0 0 0 0 0 0 0 0 0 0 0 0 0 0 0 0 0 0 0
0.117094 6.72628e-10 3.38344e-10 3.34284e-10 0.496982 0.815319 0 0 0 0 0 0 0 0 0 0 0 0 0 0 0 0 0 0 0 0 0 0 0 0 0 0 0 0 0 0 0 0 0 0 0 0 0 0 0 0 0 0
0.123105 6.77673e-10 3.44426e-10 3.33248e-10 0.491753 0.812678 0 0 0 0 0 0 0 0 0 0 0 0 0 0 0 0 0 0 0 0 0 0 0 0 0 0 0 0 0 0 0 0 0 0 0 0 0 0 0 0 0 0
0.129424 6.82858e-10 3.50381e-10 3.32477e-10 0.48689 0.808496 0 0 0 0 0 0 0 0 0 0 0 0 0 0 0 0 0 0 0 0 0 0 0 0 0 0 0 0 0 0 0 0 0 0 0 0 0 0 0 0 0 0
0.136067 6.87722e-10 3.55759e-10 3.31963e-10 0.482699 0.802437 0 0 0 0 0 0 0 0 0 0 0 0 0 0 0 0 0 0 0 0 0 0 0 0 0 0 0 0 0 0 0 0 0 0 0 0 0 0 0 0 0 0
0.143051 6.92473e-10 3.60556e-10 3.31917e-10 0.479321 0.794467 0 0 0 0 0 0 0 0 0 0 0 0 0 0 0 0 0 0 0 0 0 0 0 0 0 0 0 0 0 0 0 0 0 0 0 0 0 0 0 0 0 0
0.150394 6.94137e-10 3.68474e-10 3.25663e-10 0.469162 0.788517 0 0 0 0 0 0 0 0 0 0 0 0 0 0 0 0 0 0 0 0 0 0 0 0 0 0 0 0 0 0 0 0 0 0 0 0 0 0 0 0 0 0
0.158114 6.85588e-10 3.80666e-10 3.04922e-10 0.44476 0.771677 0 0 0 0 0 0 0 0 0 0 0 0 0 0 0 0 0 0 0 0 0 0 0 0 0 0 0 0 0 0 0 0 0 0 0 0 0 0 0 0 0 0
0.16623 6.69244e-10 3.77839e-10 2.91405e-10 0.435424 0.690257 0 0 0 0 0 0 0 0 0 0 0 0 0 0 0 0 0 0 0 0 0 0 0 0 0 0 0 0 0 0 0 0 0 0 0 0 0 0 0 0 0 0
0.174762 6.97733e-10 3.49906e-10 3.47827e-10 0.49851 0.570975 0 0 0 0 0 0 0 0 0 0 0 0 0 0 0 0 0 0 0 0 0 0 0 0 0 0 0 0 0 0 0 0 0 0 0 0 0 0 0 0 0 0
0.183733 7.886e-10 2.77325e-10 5.11275e-10 0.648332 0.573474 0 0 0 0 0 0 0 0 0 0 0 0 0 0 0 0 0 0 0 0 0 0 0 0 0 0 0 0 0 0 0 0 0 0 0 0 0 0 0 0 0 0
0.193164 9.89536e-10 2.35746e-10 7.5379e-10 0.761761 0.612195 0 0 0 0 0 0 0 0 0 0 0 0 0 0 0 0 0 0 0 0 0 0 0 0 0 0 0 0 0 0 0 0 0 0 0 0 0 0 0 0 0 0
0.203079 1.08797e-09 1.91941e-10 8.96033e-10 0.82358 0.568033 0 0 0 0 0 0 0 0 0 0 0 0 0 0 0 0 0 0 0 0 0 0 0 0 0 0 0 0 0 0 0 0 0 0 0 0 0 0 0 0 0 0
0.213503 1.0227e-09 1.11345e-10 9.11353e-10 0.891126 0.572216 0 0 0 0 0 0 0 0 0 0 0 0 0 0 0 0 0 0 0 0 0 0 0 0 0 0 0 0 0 0 0 0 0 0 0 0 0 0 0 0 0 0
0.224463 1.10699e-09 9.44043e-11 1.01258e-09 0.91472 0.62893 0 0 0 0 0 0 0 0 0 0 0 0 0 0 0 0 0 0 0 0 0 0 0 0 0 0 0 0 0 0 0 0 0 0 0 0 0 0 0 0 0 0
0.235984 1.18924e-09 1.0309e-10 1.08615e-09 0.913314 0.662801 0 0 0 0 0 0 0 0 0 0 0 0 0 0 0 0 0 0 0 0 0 0 0 0 0 0 0 0 0 0 0 0 0 0 0 0 0 0 0 0 0 0
0.248097 1.12237e-09 1.05823e-10 1.01655e-09 0.905714 0.656957 0 0 0 0 0 0 0 0 0 0 0 0 0 0 0 0 0 0 0 0 0 0 0 0 0 0 0 0 0 0 0 0 0 0 0 0 0 0 0 0 0 0
0.260832 9.55732e-10 8.83126e-11 8.67419e-10 0.907597 0.618736 0 0 0 0 0 0 0 0 0 0 0 0 0 0 0 0 0 0 0 0 0 0 0 0 0 0 0 0 0 0 0 0 0 0 0 0 0 0 0 0 0 0
0.274221 8.43787e-10 7.22641e-11 7.71523e-10 0.914357 0.5786 0 0 0 0 0 0 0 0 0 0 0 0 0 0 0 0 0 0 0 0 0 0 0 0 0 0 0 0 0 0 0 0 0 0 0 0 0 0 0 0 0 0
0.288297 7.95703e-10 6.53066e-11 7.30397e-10 0.917926 0.555473 0 0 0 0 0 0 0 0 0 0 0 0 0 0 0 0 0 0 0 0 0 0 0 0 0 0 0 0 0 0 0 0 0 0 0 0 0 0 0 0 0 0
0.303095 7.74233e-10 6.4721e-11 7.09512e-10 0.916406 0.551431 0 0 0 0 0 0 0 0 0 0 0 0 0 0 0 0 0 0 0 0 0 0 0 0 0 0 0 0 0 0 0 0 0 0 0 0 0 0 0 0 0 0
0.318653 7.46977e-10 6.6889e-11 6.80088e-10 0.910454 0.562964 0 0 0 0 0 0 0 0 0 0 0 0 0 0 0 0 0 0 0 0 0 0 0 0 0 0 0 0 0 0 0 0 0 0 0 0 0 0 0 0 0 0
0.335009 6.89322e-10 6.78355e-11 6.21487e-10 0.901591 0.581047 0 0 0 0 0 0 0 0 0 0 0 0 0 0 0 0 0 0 0 0 0 0 0 0 0 0 0 0 0 0 0 0 0 0 0 0 0 0 0 0 0 0
0.352205 5.99913e-10 6.47647e-11 5.35148e-10 0.892043 0.591426 0 0 0 0 0 0 0 0 0 0 0 0 0 0 0 0 0 0 0 0 0 0 0 0 0 0 0 0 0 0 0 0 0 0 0 0 0 0 0 0 0 0
0.370284 5.01885e-10 5.82674e-11 4.43618e-10 0.883903 0.58156 0 0 0 0 0 0 0 0 0 0 0 0 0 0 0 0 0 0 0 0 0 0 0 0 0 0 0 0 0 0 0 0 0 0 0 0 0 0 0 0 0 0
0.389291 4.16433e-10 5.08088e-11 3.65625e-10 0.877991 0.548691 0 0 0 0 0 0 0 0 0 0 0 0 0 0 0 0 0 0 0 0 0 0 0 0 0 0 0 0 0 0 0 0 0 0 0 0 0 0 0 0 0 0
0.409273 3.49277e-10 4.40964e-11 3.05181e-10 0.87375 0.499968 0 0 0 0 0 0 0 0 0 0 0 0 0 0 0 0 0 0 0 0 0 0 0 0 0 0 0 0 0 0 0 0 0 0 0 0 0 0 0 0 0 0
0.430281 2.96529e-10 3.86186e-11 2.57911e-10 0.869765 0.445739 0 0 0 0 0 0 0 0 0 0 0 0 0 0 0 0 0 0 0 0 0 0 0 0 0 0 0 0 0 0 0 0 0 0 0 0 0 0 0 0 0 0
0.452368 2.54037e-10 3.4301e-11 2.19736e-10 0.864976 0.393397 0 0 0 0 0 0 0 0 0 0 0 0 0 0 0 0 0 0 0 0 0 0 0 0 0 0 0 0 0 0 0 0 0 0 0 0 0 0 0 0 0 0
0.475588 2.18169e-10 3.0833e-11 1.87336e-10 0.858674 0.346211 0 0 0 0 0 0 0 0 0 0 0 0 0 0 0 0 0 0 0 0 0 0 0 0 0 0 0 0 0 0 0 0 0 0 0 0 0 0 0 0 0 0
0.5 1.87197e-10 2.79835e-11 1.59213e-10 0.850513 0.305199 0 0 0 0 0 0 0 0 0 0 0 0 0 0 0 0 0 0 0 0 0 0 0 0 0 0 0 0 0 0 0 0 0 0 0 0 0 0 0 0 0 0
0.525665 1.60081e-10 2.5559e-11 1.34522e-10 0.840337 0.269883 0 0 0 0 0 0 0 0 0 0 0 0 0 0 0 0 0 0 0 0 0 0 0 0 0 0 0 0 0 0 0 0 0 0 0 0 0 0 0 0 0 0
0.552648 1.36315e-10 2.34422e-11 1.12873e-10 0.82803 0.239503 0 0 0 0 0 0 0 0 0 0 0 0 0 0 0 0 0 0 0 0 0 0 0 0 0 0 0 0 0 0 0 0 0 0 0 0 0 0 0 0 0 0
0.581015 1.15867e-10 2.15633e-11 9.43036e-11 0.813896 0.213424 0 0 0 0 0 0 0 0 0 0 0 0 0 0 0 0 0 0 0 0 0 0 0 0 0 0 0 0 0 0 0 0 0 0 0 0 0 0 0 0 0 0
0.610839 9.82207e-11 1.98756e-11 7.83451e-11 0.797644 0.190799 0 0 0 0 0 0 0 0 0 0 0 0 0 0 0 0 0 0 0 0 0 0 0 0 0 0 0 0 0 0 0 0 0 0 0 0 0 0 0 0 0 0
0.642193 8.31037e-11 1.83484e-11 6.47553e-11 0.779211 0.171012 0 0 0 0 0 0 0 0 0 0 0 0 0 0 0 0 0 0 0 0 0 0 0 0 0 0 0 0 0 0 0 0 0 0 0 0 0 0 0 0 0 0
0.675157 7.02981e-11 1.69665e-11 5.33315e-11 0.758649 0.153622 0 0 0 0 0 0 0 0 0 0 0 0 0 0 0 0 0 0 0 0 0 0 0 0 0 0 0 0 0 0 0 0 0 0 0 0 0 0 0 0 0 0
0.709813 5.95481e-11 1.57167e-11 4.38314e-11 0.736067 0.138294 0 0 0 0 0 0 0 0 0 0 0 0 0 0 0 0 0 0 0 0 0 0 0 0 0 0 0 0 0 0 0 0 0 0 0 0 0 0 0 0 0 0
0.746248 5.05181e-11 1.45816e-11 3.59365e-11 0.71136 0.12467 0 0 0 0 0 0 0 0 0 0 0 0 0 0 0 0 0 0 0 0 0 0 0 0 0 0 0 0 0 0 0 0 0 0 0 0 0 0 0 0 0 0
0.784553 4.29509e-11 1.35486e-11 2.94023e-11 0.684556 0.112504 0 0 0 0 0 0 0 0 0 0 0 0 0 0 0 0 0 0 0 0 0 0 0 0 0 0 0 0 0 0 0 0 0 0 0 0 0 0 0 0 0 0
0.824824 3.66394e-11 1.26038e-11 2.40356e-11 0.656005 0.101624 0 0 0 0 0 0 0 0 0 0 0 0 0 0 0 0 0 0 0 0 0 0 0 0 0 0 0 0 0 0 0 0 0 0 0 0 0 0 0 0 0 0
0.867162 3.13891e-11 1.17417e-11 1.96474e-11 0.625929 0.0918816 0 0 0 0 0 0 0 0 0 0 0 0 0 0 0 0 0 0 0 0 0 0 0 0 0 0 0 0 0 0 0 0 0 0 0 0 0 0 0 0 0 0
0.911674 2.70004e-11 1.09541e-11 1.60464e-11 0.5943 0.0831094 0 0 0 0 0 0 0 0 0 0 0 0 0 0 0 0 0 0 0 0 0 0 0 0 0 0 0 0 0 0 0 0 0 0 0 0 0 0 0 0 0 0
0.95847 2.33296e-11 1.02311e-11 1.30984e-11 0.561453 0.0752002 0 0 0 0 0 0 0 0 0 0 0 0 0 0 0 0 0 0 0 0 0 0 0 0 0 0 0 0 0 0 0 0 0 0 0 0 0 0 0 0 0 0
1.00767 2.02636e-11 9.57154e-12 1.0692e-11 0.527648 0.0680683 0 0 0 0 0 0 0 0 0 0 0 0 0 0 0 0 0 0 0 0 0 0 0 0 0 0 0 0 0 0 0 0 0 0 0 0 0 0 0 0 0 0
1.05939 1.76981e-11 8.97077e-12 8.72738e-12 0.493124 0.0616276 0 0 0 0 0 0 0 0 0 0 0 0 0 0 0 0 0 0 0 0 0 0 0 0 0 0 0 0 0 0 0 0 0 0 0 0 0 0 0 0 0 0
1.11377 1.55412e-11 8.4197e-12 7.12147e-12 0.458232 0.0557993 0 0 0 0 0 0 0 0 0 0 0 0 0 0 0 0 0 0 0 0 0 0 0 0 0 0 0 0 0 0 0 0 0 0 0 0 0 0 0 0 0 0
1.17094 1.37204e-11 7.91159e-12 5.8088e-12 0.42337 0.0505217 0 0 0 0 0 0 0 0 0 0 0 0 0 0 0 0 0 0 0 0 0 0 0 0 0 0 0 0 0 0 0 0 0 0 0 0 0 0 0 0 0 0
1.23105 1.21852e-11 7.44429e-12 4.74093e-12 0.389072 0.0457523 0 0 0 0 0 0 0 0 0 0 0 0 0 0 0 0 0 0 0 0 0 0 0 0 0 0 0 0 0 0 0 0 0 0 0 0 0 0 0 0 0 0
1.29424 1.0899e-11 7.03067e-12 3.86829e-12 0.354923 0.0414303 0 0 0 0 0 0 0 0 0 0 0 0 0 0 0 0 0 0 0 0 0 0 0 0 0 0 0 0 0 0 0 0 0 0 0 0 0 0 0 0 0 0
1.36067 9.81107e-12 6.65303e-12 3.15804e-12 0.321885 0.0375189 0 0 0 0 0 0 0 0 0 0 0 0 0 0 0 0 0 0 0 0 0 0 0 0 0 0 0 0 0 0 0 0 0 0 0 0 0 0 0 0 0 0
1.43051 8.87976e-12 6.30319e-12 2.57657e-12 0.290162 0.0339704 0 0 0 0 0 0 0 0 0 0 0 0 0 0 0 0 0 0 0 0 0 0 0 0 0 0 0 0 0 0 0 0 0 0 0 0 0 0 0 0 0 0
1.50394 8.08324e-12 5.9792e-12 2.10405e-12 0.260297 0.0307626 0 0 0 0 0 0 0 0 0 0 0 0 0 0 0 0 0 0 0 0 0 0 0 0 0 0 0 0 0 0 0 0 0 0 0 0 0 0 0 0 0 0
1.58114 7.39472e-12 5.67678e-12 1.71794e-12 0.23232 0.0278543 0 0 0 0 0 0 0 0 0 0 0 0 0 0 0 0 0 0 0 0 0 0 0 0 0 0 0 0 0 0 0 0 0 0 0 0 0 0 0 0 0 0
1.6623 6.79531e-12 5.39361e-12 1.4017e-12 0.206274 0.0252148 0 0 0 0 0 0 0 0 0 0 0 0 0 0 0 0 0 0 0 0 0 0 0 0 0 0 0 0 0 0 0 0 0 0 0 0 0 0 0 0 0 0
1.74763 6.27635e-12 5.13222e-12 1.14413e-12 0.182293 0.022826 0 0 0 0 0 0 0 0 0 0 0 0 0 0 0 0 0 0 0 0 0 0 0 0 0 0 0 0 0 0 0 0 0 0 0 0 0 0 0 0 0 0
1.83733 5.83054e-12 4.89672e-12 9.33819e-13 0.16016 0.0206618 0 0 0 0 0 0 0 0 0 0 0 0 0 0 0 0 0 0 0 0 0 0 0 0 0 0 0 0 0 0 0 0 0 0 0 0 0 0 0 0 0 0
1.93164 5.44206e-12 4.68012e-12 7.61942e-13 0.14001 0.0186997 0 0 0 0 0 0 0 0 0 0 0 0 0 0 0 0 0 0 0 0 0 0 0 0 0 0 0 0 0 0 0 0 0 0 0 0 0 0 0 0 0 0
2.03079 5.10056e-12 4.47887e-12 6.2169e-13 0.121887 0.0169222 0 0 0 0 0 0 0 0 0 0 0 0 0 0 0 0 0 0 0 0 0 0 0 0 0 0 0 0 0 0 0 0 0 0 0 0 0 0 0 0 0 0
2.13503 4.79848e-12 4.29114e-12 5.07337e-13 0.105729 0.0153138 0 0 0 0 0 0 0 0 0 0 0 0 0 0 0 0 0 0 0 0 0 0 0 0 0 0 0 0 0 0 0 0 0 0 0 0 0 0 0 0 0 0
2.24463 4.53217e-12 4.11837e-12 4.13799e-13 0.0913026 0.0138556 0 0 0 0 0 0 0 0 0 0 0 0 0 0 0 0 0 0 0 0 0 0 0 0 0 0 0 0 0 0 0 0 0 0 0 0 0 0 0 0 0 0
2.35984 4.29303e-12 3.95566e-12 3.37374e-13 0.0785864 0.012534 0 0 0 0 0 0 0 0 0 0 0 0 0 0 0 0 0 0 0 0 0 0 0 0 0 0 0 0 0 0 0 0 0 0 0 0 0 0 0 0 0 0
2.48097 4.07843e-12 3.80361e-12 2.74825e-13 0.0673849 0.0113357 0 0 0 0 0 0 0 0 0 0 0 0 0 0 0 0 0 0 0 0 0 0 0 0 0 0 0 0 0 0 0 0 0 0 0 0 0 0 0 0 0 0
2.60832 3.88827e-12 3.66431e-12 2.23963e-13 0.0575995 0.0102526 0 0 0 0 0 0 0 0 0 0 0 0 0 0 0 0 0 0 0 0 0 0 0 0 0 0 0 0 0 0 0 0 0 0 0 0 0 0 0 0 0 0
2.74221 3.7159e-12 3.53346e-12 1.82438e-13 0.0490966 0.00927147 0 0 0 0 0 0 0 0 0 0 0 0 0 0 0 0 0 0 0 0 0 0 0 0 0 0 0 0 0 0 0 0 0 0 0 0 0 0 0 0 0 0
2.88297 3.56128e-12 3.41291e-12 1.48369e-13 0.0416615 0.00838071 0 0 0 0 0 0 0 0 0 0 0 0 0 0 0 0 0 0 0 0 0 0 0 0 0 0 0 0 0 0 0 0 0 0 0 0 0 0 0 0 0 0
3.03095 3.42068e-12 3.30003e-12 1.20652e-13 0.0352714 0.00757528 0 0 0 0 0 0 0 0 0 0 0 0 0 0 0 0 0 0 0 0 0 0 0 0 0 0 0 0 0 0 0 0 0 0 0 0 0 0 0 0 0 0
3.18653 3.29973e-12 3.20166e-12 9.80713e-14 0.029721 0.0068464 0 0 0 0 0 0 0 0 0 0 0 0 0 0 0 0 0 0 0 0 0 0 0 0 0 0 0 0 0 0 0 0 0 0 0 0 0 0 0 0 0 0
3.35009 3.18897e-12 3.10936e-12 7.96163e-14 0.0249661 0.00618567 0 0 0 0 0 0 0 0 0 0 0 0 0 0 0 0 0 0 0 0 0 0 0 0 0 0 0 0 0 0 0 0 0 0 0 0 0 0 0 0 0 0
3.52205 3.07533e-12 3.01081e-12 6.45227e-14 0.0209807 0.0055865 0 0 0 0 0 0 0 0 0 0 0 0 0 0 0 0 0 0 0 0 0 0 0 0 0 0 0 0 0 0 0 0 0 0 0 0 0 0 0 0 0 0
3.70284 2.96687e-12 2.91461e-12 5.22625e-14 0.0176154 0.00504496 0 0 0 0 0 0 0 0 0 0 0 0 0 0 0 0 0 0 0 0 0 0 0 0 0 0 0 0 0 0 0 0 0 0 0 0 0 0 0 0 0 0
3.89291 2.86449e-12 2.82225e-12 4.2249e-14 0.0147492 0.00455399 0 0 0 0 0 0 0 0 0 0 0 0 0 0 0 0 0 0 0 0 0 0 0 0 0 0 0 0 0 0 0 0 0 0 0 0 0 0 0 0 0 0
4.09273 2.76925e-12 2.73519e-12 3.40628e-14 0.0123003 0.00410848 0 0 0 0 0 0 0 0 0 0 0 0 0 0 0 0 0 0 0 0 0 0 0 0 0 0 0 0 0 0 0 0 0 0 0 0 0 0 0 0 0 0
4.30281 2.6723e-12 2.64491e-12 2.7386e-14 0.0102481 0.00370457 0 0 0 0 0 0 0 0 0 0 0 0 0 0 0 0 0 0 0 0 0 0 0 0 0 0 0 0 0 0 0 0 0 0 0 0 0 0 0 0 0 0
4.52368 2.58399e-12 2.56203e-12 2.19601e-14 0.00849851 0.00333888 0 0 0 0 0 0 0 0 0 0 0 0 0 0 0 0 0 0 0 0 0 0 0 0 0 0 0 0 0 0 0 0 0 0 0 0 0 0 0 0 0 0
4.75588 2.50769e-12 2.49015e-12 1.75367e-14 0.00699318 0.00300698 0 0 0 0 0 0 0 0 0 0 0 0 0 0 0 0 0 0 0 0 0 0 0 0 0 0 0 0 0 0 0 0 0 0 0 0 0 0 0 0 0 0
5 2.44974e-12 2.43583e-12 1.39178e-14 0.00568132 0.00270508 0 0 0 0 0 0 0 0 0 0 0 0 0 0 0 0 0 0 0 0 0 0 0 0 0 0 0 0 0 0 0 0 0 0 0 0 0 0 0 0 0 0
5.25665 2.41635e-12 2.40538e-12 1.09751e-14 0.00454202 0.00243101 0 0 0 0 0 0 0 0 0 0 0 0 0 0 0 0 0 0 0 0 0 0 0 0 0 0 0 0 0 0 0 0 0 0 0 0 0 0 0 0 0 0
5.52648 2.40404e-12 2.39544e-12 8.59717e-15 0.00357614 0.00218258 0 0 0 0 0 0 0 0 0 0 0 0 0 0 0 0 0 0 0 0 0 0 0 0 0 0 0 0 0 0 0 0 0 0 0 0 0 0 0 0 0 0
5.81015 2.42449e-12 2.41784e-12 6.65413e-15 0.00274454 0.00195603 0 0 0 0 0 0 0 0 0 0 0 0 0 0 0 0 0 0 0 0 0 0 0 0 0 0 0 0 0 0 0 0 0 0 0 0 0 0 0 0 0 0
6.10839 2.4673e-12 2.46222e-12 5.08449e-15 0.00206075 0.00175006 0 0 0 0 0 0 0 0 0 0 0 0 0 0 0 0 0 0 0 0 0 0 0 0 0 0 0 0 0 0 0 0 0 0 0 0 0 0 0 0 1.4013e-45 0
6.42193 2.50078e-12 2.49697e-12 3.81476e-15 0.00152542 0.00156262 0 0 0 0 0 0 0 0 0 0 0 0 0 0 0 0 0 0 0 0 0 0 0 0 0 0 0 0 0 0 1.4013e-45 0 2.8026e-45 0 5.60519e-45 0 1.54143e-44 0 3.78351e-44 0 8.54792e-44 0
6.75157 2.50449e-12 2.50173e-12 2.7561e-15 0.00110047 0.0013895 0 0 0 0 0 0 0 0 0 0 0 0 0 0 0 0 0 0 0 0 0 0 0 0 2.8026e-45 0 8.40779e-45 0 2.94273e-44 0 8.68805e-44 0 2.43826e-43 0 6.41795e-43 0 1.54003e-42 0 3.63497e-42 0 7.88371e-42 0
7.09813 2.54187e-12 2.54002e-12 1.84519e-15 0.00072592 0.00122653 0 0 0 0 0 0 0 0 0 0 0 0 0 0 0 0 0 0 2.8026e-45 0 1.4013e-44 0 6.30584e-44 0 2.53635e-43 0 8.98232e-43 0 2.85725e-42 0 8.02804e-42 0 2.15338e-41 0 5.39976e-41 0 1.24131e-40 0 2.81079e-40 0 5.8693e-40 0
7.46248 3.12827e-12 3.12723e-12 1.03928e-15 0.000332221 0.00106771 0 0 0 0 0 0 0 0 0 0 0 0 0 0 5.60519e-45 0 4.90454e-44 0 3.16693e-43 0 1.63251e-42 0 7.19146e-42 0 2.67298e-41 0 8.90721e-41 0 2.67997e-40 0 7.1589e-40 0 1.82995e-39 0 4.38725e-39 0 9.68383e-39 0 2.107e-38 0 4.24435e-38 0
7.84553 6.07301e-12 6.07249e-12 5.19159e-16 8.54862e-05 0.000916458 0 0 0 0 0 0 0 0 0 0 5.60519e-45 0 9.66896e-44 0 1.10562e-42 0 8.79035e-42 0 5.2005e-41 0 2.47586e-40 0 1.01478e-39 0 3.53771e-39 0 1.11158e-38 0 3.16933e-38 0 8.06957e-38 0 1.97035e-37 0 4.52642e-37 0 9.61217e-37 0 2.01352e-36 0 3.91969e-36 0
8.24824 1.26256e-11 1.2625e-11 6.34213e-16 5.02323e-05 0.00078771 0 0 0 0 0 0 0 0 3.08286e-44 0 1.09021e-42 0 1.84159e-41 0 1.86678e-40 0 1.34199e-39 0 7.27896e-39 0 3.21117e-38 0 1.22856e-37 0 4.02965e-37 0 1.19732e-36 0 3.24356e-36 0 7.89017e-36 0 1.84438e-35 0 4.06843e-35 0 8.32769e-35 0 1.68259e-34 0 3.17067e-34 0
8.67162 1.92675e-11 1.92664e-11 1.14085e-15 5.92108e-05 0.000685813 0 0 0 0 0 0 4.76441e-44 0 4.58785e-42 0 1.38518e-40 0 2.03768e-39 0 1.84475e-38 0 1.2044e-37 0 6.015e-37 0 2.46807e-36 0 8.84384e-36 0 2.73731e-35 0 7.71214e-35 0 1.99001e-34 0 4.63523e-34 0 1.03952e-33 0 2.20613e-33 0 4.36055e-33 0 8.51298e-33 0 1.55532e-32 0
9.11674 2.84108e-11 2.84085e-11 2.22543e-15 7.83304e-05 0.000584468 0 0 0 0 9.80909e-45 0 6.81171e-42 0 5.29447e-40 0 1.35335e-38 0 1.74595e-37 0 1.41944e-36 0 8.45602e-36 0 3.90419e-35 0 1.49526e-34 0 5.03429e-34 0 1.47457e-33 0 3.94959e-33 0 9.73044e-33 0 2.1748e-32 0 4.68872e-32 0 9.59177e-32 0 1.83384e-31 0 3.4651e-31 0 6.14715e-31 0
9.5847 3.19963e-11 3.19931e-11 3.16874e-15 9.90346e-05 0.000523283 0 0 0 0 1.23174e-42 0 5.92874e-40 0 3.7255e-38 0 8.12922e-37 0 9.25645e-36 0 6.79353e-35 0 3.7094e-34 0 1.58939e-33 0 5.70092e-33 0 1.80894e-32 0 5.02763e-32 0 1.28339e-31 0 3.02567e-31 0 6.50211e-31 0 1.35021e-30 0 2.66727e-30 0 4.94069e-30 0 9.05003e-30 0 1.56118e-29 0
10.0767 2.86858e-11 2.86827e-11 3.04888e-15 0.000106285 0.000496848 0 0 1.4013e-45 0 9.21732e-41 0 3.28164e-38 0 1.68468e-36 0 3.16237e-35 0 3.19765e-34 0 2.12921e-33 0 1.07012e-32 0 4.27078e-32 0 1.43925e-31 0 4.3165e-31 0 1.14129e-30 0 2.78305e-30 0 6.29213e-30 0 1.3026e-29 0 2.61012e-29 0 4.98762e-29 0 8.96483e-29 0 1.5943e-28 0 2.67801e-28 0
10.5939 2.40747e-11 2.40719e-11 2.7655e-15 0.000114872 0.000488159 0 0 1.45735e-43 0 5.13931e-39 0 1.37346e-36 0 5.81745e-35 0 9.46347e-34 0 8.54692e-33 0 5.18794e-32 0 2.40976e-31 0 8.98879e-31 0 2.85477e-30 0 8.11479e-30 0 2.04609e-29 0 4.77692e-29 0 1.03783e-28 0 2.07353e-28 0 4.01629e-28 0 7.43577e-28 0 1.2988e-27 0 2.24576e-27 0 3.67796e-27 0
11.1377 1.89282e-11 1.8926e-11 2.18891e-15 0.000115643 0.000500303 0 0 1.02393e-41 0 2.16061e-37 0 4.39538e-35 0 1.55053e-33 0 2.20119e-32 0 1.78547e-31 0 9.9243e-31 0 4.27675e-30 0 1.49598e-29 0 4.49049e-29 0 1.21296e-28 0 2.92338e-28 0 6.54833e-28 0 1.3698e-27 0 2.64585e-27 0 4.96205e-27 0 8.9146e-27 0 1.51527e-26 0 2.55095e-26 0 4.07835e-26 0
11.7094 1.51131e-11 1.51114e-11 1.72004e-15 0.000113812 0.000503288 1.4013e-44 0 5.78223e-40 0 7.50352e-36 0 1.17755e-33 0 3.49066e-32 0 4.35342e-31 0 3.18816e-30 0 1.62973e-29 0 6.53966e-29 0 2.15188e-28 0 6.12177e-28 0 1.57529e-27 0 3.63702e-27 0 7.83233e-27 0 1.58041e-26 0 2.95609e-26 0 5.37625e-26 0 9.38636e-26 0 1.55467e-25 0 2.55155e-25 0 3.98692e-25 0
12.3105 1.17997e-11 1.17983e-11 1.31842e-15 0.000111734 0.000500745 1.06218e-42 0 2.56199e-38 0 2.09375e-34 0 2.56705e-32 0 6.44909e-31 0 7.11073e-30 0 4.72503e-29 0 2.23041e-28 0 8.363e-28 0 2.59639e-27 0 7.01876e-27 0 1.72466e-26 0 3.82248e-26 0 7.92913e-26 0 1.54603e-25 0 2.80471e-25 0 4.95414e-25 0 8.41724e-25 0 1.36023e-24 0 2.17907e-24 0 3.33152e-24 0
12.9424 9.2068e-12 9.20582e-12 9.82327e-16 0.000106696 0.000479327 6.2418e-41 0 9.20113e-37 0 4.84364e-33 0 4.69583e-31 0 1.0079e-29 0 9.88416e-29 0 5.98788e-28 0 2.62028e-27 0 9.21086e-27 0 2.70574e-26 0 6.96771e-26 0 1.63859e-25 0 3.49331e-25 0 6.9927e-25 0 1.31971e-24 0 2.32552e-24 0 3.99518e-24 0 6.61452e-24 0 1.04415e-23 0 1.63467e-23 0 2.44793e-23 0
