# 0.000188035 2 82 : grain size, compostion index, size index
# Heating and cooling timescale: 8.44688e-05 6.94428e+11
# Ratio of heating to cooling to determine stochastic cutoff: 100
# Equilibrium emission is recorded even for those grains in the stochastic regime.
# Emission spectrum was computed for: 
# Type: ISRF
# Scales: 0.25 0.5 1 1.5 2 2.5 3 3.5 4 4.5 5 5.5 6 6.5 7 7.5 8 8.5 9 9.5 10
# StochasticallyHeated: 0 0 0 0 0 0 0 0 0 0 0 0 0 0 0 0 0 0 0 0 0
# Temperature: -1
# Wavelength  CExt  CAbs  CSca  Albedo G EqEm1 StEm1 EqEm2 StEm2 EqEm3 StEm3 EqEm4 StEm4 EqEm5 StEm5 EqEm6 StEm6 EqEm7 StEm7 EqEm8 StEm8 EqEm9 StEm9 EqEm10 StEm10 EqEm11 StEm11 EqEm12 StEm12 EqEm13 StEm13 EqEm14 StEm14 EqEm15 StEm15 EqEm16 StEm16 EqEm17 StEm17 EqEm18 StEm18 EqEm19 StEm19 EqEm20 StEm20 EqEm21 StEm21
0.05 2.26685e-07 9.55523e-08 1.31133e-07 0.57848 0.932497 0 0 0 0 0 0 0 0 0 0 0 0 0 0 0 0 0 0 0 0 0 0 0 0 0 0 0 0 0 0 0 0 0 0 0 0 0 0 0 0 0 0
0.0525665 2.26914e-07 9.48138e-08 1.321e-07 0.58216 0.926811 0 0 0 0 0 0 0 0 0 0 0 0 0 0 0 0 0 0 0 0 0 0 0 0 0 0 0 0 0 0 0 0 0 0 0 0 0 0 0 0 0 0
0.0552647 2.27168e-07 9.35169e-08 1.33651e-07 0.588335 0.918129 0 0 0 0 0 0 0 0 0 0 0 0 0 0 0 0 0 0 0 0 0 0 0 0 0 0 0 0 0 0 0 0 0 0 0 0 0 0 0 0 0 0
0.0581015 2.27486e-07 9.15292e-08 1.35957e-07 0.597649 0.904647 0 0 0 0 0 0 0 0 0 0 0 0 0 0 0 0 0 0 0 0 0 0 0 0 0 0 0 0 0 0 0 0 0 0 0 0 0 0 0 0 0 0
0.0610839 2.27876e-07 8.95849e-08 1.38291e-07 0.606869 0.889539 0 0 0 0 0 0 0 0 0 0 0 0 0 0 0 0 0 0 0 0 0 0 0 0 0 0 0 0 0 0 0 0 0 0 0 0 0 0 0 0 0 0
0.0642193 2.28295e-07 8.83256e-08 1.39969e-07 0.613108 0.877259 0 0 0 0 0 0 0 0 0 0 0 0 0 0 0 0 0 0 0 0 0 0 0 0 0 0 0 0 0 0 0 0 0 0 0 0 0 0 0 0 0 0
0.0675157 2.28724e-07 8.774e-08 1.40984e-07 0.616394 0.868601 0 0 0 0 0 0 0 0 0 0 0 0 0 0 0 0 0 0 0 0 0 0 0 0 0 0 0 0 0 0 0 0 0 0 0 0 0 0 0 0 0 0
0.0709813 2.29156e-07 8.77017e-08 1.41454e-07 0.617283 0.863143 0 0 0 0 0 0 0 0 0 0 0 0 0 0 0 0 0 0 0 0 0 0 0 0 0 0 0 0 0 0 0 0 0 0 0 0 0 0 0 0 0 0
0.0746248 2.29583e-07 8.81173e-08 1.41465e-07 0.616185 0.86048 0 0 0 0 0 0 0 0 0 0 0 0 0 0 0 0 0 0 0 0 0 0 0 0 0 0 0 0 0 0 0 0 0 0 0 0 0 0 0 0 0 0
0.0784553 2.29984e-07 8.90336e-08 1.40951e-07 0.612871 0.861088 0 0 0 0 0 0 0 0 0 0 0 0 0 0 0 0 0 0 0 0 0 0 0 0 0 0 0 0 0 0 0 0 0 0 0 0 0 0 0 0 0 0
0.0824824 2.30325e-07 9.06372e-08 1.39688e-07 0.606481 0.866453 0 0 0 0 0 0 0 0 0 0 0 0 0 0 0 0 0 0 0 0 0 0 0 0 0 0 0 0 0 0 0 0 0 0 0 0 0 0 0 0 0 0
0.0867162 2.30592e-07 9.13589e-08 1.39233e-07 0.603807 0.869347 0 0 0 0 0 0 0 0 0 0 0 0 0 0 0 0 0 0 0 0 0 0 0 0 0 0 0 0 0 0 0 0 0 0 0 0 0 0 0 0 0 0
0.0911674 2.31007e-07 9.08003e-08 1.40207e-07 0.606937 0.863003 0 0 0 0 0 0 0 0 0 0 0 0 0 0 0 0 0 0 0 0 0 0 0 0 0 0 0 0 0 0 0 0 0 0 0 0 0 0 0 0 0 0
0.095847 2.3144e-07 9.10038e-08 1.40436e-07 0.606793 0.859755 0 0 0 0 0 0 0 0 0 0 0 0 0 0 0 0 0 0 0 0 0 0 0 0 0 0 0 0 0 0 0 0 0 0 0 0 0 0 0 0 0 0
0.100767 2.31814e-07 9.15557e-08 1.40258e-07 0.605046 0.859241 0 0 0 0 0 0 0 0 0 0 0 0 0 0 0 0 0 0 0 0 0 0 0 0 0 0 0 0 0 0 0 0 0 0 0 0 0 0 0 0 0 0
0.105939 2.32106e-07 9.27056e-08 1.394e-07 0.600589 0.86297 0 0 0 0 0 0 0 0 0 0 0 0 0 0 0 0 0 0 0 0 0 0 0 0 0 0 0 0 0 0 0 0 0 0 0 0 0 0 0 0 0 0
0.111377 2.32365e-07 9.38392e-08 1.38526e-07 0.596156 0.867834 0 0 0 0 0 0 0 0 0 0 0 0 0 0 0 0 0 0 0 0 0 0 0 0 0 0 0 0 0 0 0 0 0 0 0 0 0 0 0 0 0 0
0.117094 2.32648e-07 9.46541e-08 1.37994e-07 0.593145 0.870858 0 0 0 0 0 0 0 0 0 0 0 0 0 0 0 0 0 0 0 0 0 0 0 0 0 0 0 0 0 0 0 0 0 0 0 0 0 0 0 0 0 0
0.123105 2.3295e-07 9.52815e-08 1.37668e-07 0.590978 0.872736 0 0 0 0 0 0 0 0 0 0 0 0 0 0 0 0 0 0 0 0 0 0 0 0 0 0 0 0 0 0 0 0 0 0 0 0 0 0 0 0 0 0
0.129424 2.33267e-07 9.57565e-08 1.3751e-07 0.589498 0.873606 0 0 0 0 0 0 0 0 0 0 0 0 0 0 0 0 0 0 0 0 0 0 0 0 0 0 0 0 0 0 0 0 0 0 0 0 0 0 0 0 0 0
0.136067 2.33597e-07 9.60619e-08 1.37535e-07 0.58877 0.873283 0 0 0 0 0 0 0 0 0 0 0 0 0 0 0 0 0 0 0 0 0 0 0 0 0 0 0 0 0 0 0 0 0 0 0 0 0 0 0 0 0 0
0.143051 2.33933e-07 9.60936e-08 1.37839e-07 0.589226 0.870908 0 0 0 0 0 0 0 0 0 0 0 0 0 0 0 0 0 0 0 0 0 0 0 0 0 0 0 0 0 0 0 0 0 0 0 0 0 0 0 0 0 0
0.150394 2.34187e-07 9.66074e-08 1.3758e-07 0.587478 0.871957 0 0 0 0 0 0 0 0 0 0 0 0 0 0 0 0 0 0 0 0 0 0 0 0 0 0 0 0 0 0 0 0 0 0 0 0 0 0 0 0 0 0
0.158114 2.34435e-07 9.7774e-08 1.36661e-07 0.582937 0.878103 0 0 0 0 0 0 0 0 0 0 0 0 0 0 0 0 0 0 0 0 0 0 0 0 0 0 0 0 0 0 0 0 0 0 0 0 0 0 0 0 0 0
0.16623 2.3475e-07 9.91117e-08 1.35638e-07 0.577798 0.885626 0 0 0 0 0 0 0 0 0 0 0 0 0 0 0 0 0 0 0 0 0 0 0 0 0 0 0 0 0 0 0 0 0 0 0 0 0 0 0 0 0 0
0.174762 2.35128e-07 1.00366e-07 1.34763e-07 0.573146 0.892455 0 0 0 0 0 0 0 0 0 0 0 0 0 0 0 0 0 0 0 0 0 0 0 0 0 0 0 0 0 0 0 0 0 0 0 0 0 0 0 0 0 0
0.183733 2.35546e-07 1.01539e-07 1.34007e-07 0.568922 0.898546 0 0 0 0 0 0 0 0 0 0 0 0 0 0 0 0 0 0 0 0 0 0 0 0 0 0 0 0 0 0 0 0 0 0 0 0 0 0 0 0 0 0
0.193164 2.35998e-07 1.02605e-07 1.33393e-07 0.565228 0.903697 0 0 0 0 0 0 0 0 0 0 0 0 0 0 0 0 0 0 0 0 0 0 0 0 0 0 0 0 0 0 0 0 0 0 0 0 0 0 0 0 0 0
0.203079 2.36455e-07 1.03575e-07 1.3288e-07 0.561968 0.908001 0 0 0 0 0 0 0 0 0 0 0 0 0 0 0 0 0 0 0 0 0 0 0 0 0 0 0 0 0 0 0 0 0 0 0 0 0 0 0 0 0 0
0.213503 2.37077e-07 1.04379e-07 1.32698e-07 0.559726 0.911519 0 0 0 0 0 0 0 0 0 0 0 0 0 0 0 0 0 0 0 0 0 0 0 0 0 0 0 0 0 0 0 0 0 0 0 0 0 0 0 0 0 0
0.224463 2.37678e-07 1.04937e-07 1.32742e-07 0.558493 0.913893 0 0 0 0 0 0 0 0 0 0 0 0 0 0 0 0 0 0 0 0 0 0 0 0 0 0 0 0 0 0 0 0 0 0 0 0 0 0 0 0 0 0
0.235984 2.38119e-07 1.05504e-07 1.32615e-07 0.556929 0.915692 0 0 0 0 0 0 0 0 0 0 0 0 0 0 0 0 0 0 0 0 0 0 0 0 0 0 0 0 0 0 0 0 0 0 0 0 0 0 0 0 0 0
0.248097 2.39026e-07 1.06137e-07 1.32889e-07 0.555961 0.917432 0 0 0 0 0 0 0 0 0 0 0 0 0 0 0 0 0 0 0 0 0 0 0 0 0 0 0 0 0 0 0 0 0 0 0 0 0 0 0 0 0 0
0.260832 2.39422e-07 1.06653e-07 1.32768e-07 0.554538 0.918294 0 0 0 0 0 0 0 0 0 0 0 0 0 0 0 0 0 0 0 0 0 0 0 0 0 0 0 0 0 0 0 0 0 0 0 0 0 0 0 0 0 0
0.274221 2.38771e-07 1.07106e-07 1.31664e-07 0.551427 0.918144 0 0 0 0 0 0 0 0 0 0 0 0 0 0 0 0 0 0 0 0 0 0 0 0 0 0 0 0 0 0 0 0 0 0 0 0 0 0 0 0 0 0
0.288297 2.409e-07 1.07456e-07 1.33443e-07 0.553937 0.919255 0 0 0 0 0 0 0 0 0 0 0 0 0 0 0 0 0 0 0 0 0 0 0 0 0 0 0 0 0 0 0 0 0 0 0 0 0 0 0 0 0 0
0.303095 2.40548e-07 1.07838e-07 1.3271e-07 0.551699 0.918571 0 0 0 0 0 0 0 0 0 0 0 0 0 0 0 0 0 0 0 0 0 0 0 0 0 0 0 0 0 0 0 0 0 0 0 0 0 0 0 0 0 0
0.318653 2.41784e-07 1.08125e-07 1.33659e-07 0.552801 0.918733 0 0 0 0 0 0 0 0 0 0 0 0 0 0 0 0 0 0 0 0 0 0 0 0 0 0 0 0 0 0 0 0 0 0 0 0 0 0 0 0 0 0
0.335009 2.41659e-07 1.08377e-07 1.33282e-07 0.551528 0.917559 0 0 0 0 0 0 0 0 0 0 0 0 0 0 0 0 0 0 0 0 0 0 0 0 0 0 0 0 0 0 0 0 0 0 0 0 0 0 0 0 0 0
0.352205 2.44044e-07 1.08572e-07 1.35472e-07 0.555112 0.917657 0 0 0 0 0 0 0 0 0 0 0 0 0 0 0 0 0 0 0 0 0 0 0 0 0 0 0 0 0 0 0 0 0 0 0 0 0 0 0 0 0 0
0.370284 2.4147e-07 1.08689e-07 1.32781e-07 0.549887 0.914669 0 0 0 0 0 0 0 0 0 0 0 0 0 0 0 0 0 0 0 0 0 0 0 0 0 0 0 0 0 0 0 0 0 0 0 0 0 0 0 0 0 0
0.389291 2.46773e-07 1.08708e-07 1.38065e-07 0.559482 0.916255 0 0 0 0 0 0 0 0 0 0 0 0 0 0 0 0 0 0 0 0 0 0 0 0 0 0 0 0 0 0 0 0 0 0 0 0 0 0 0 0 0 0
0.409273 2.43988e-07 1.08773e-07 1.35216e-07 0.554189 0.912185 0 0 0 0 0 0 0 0 0 0 0 0 0 0 0 0 0 0 0 0 0 0 0 0 0 0 0 0 0 0 0 0 0 0 0 0 0 0 0 0 0 0
0.430281 2.43686e-07 1.08755e-07 1.34931e-07 0.553707 0.909409 0 0 0 0 0 0 0 0 0 0 0 0 0 0 0 0 0 0 0 0 0 0 0 0 0 0 0 0 0 0 0 0 0 0 0 0 0 0 0 0 0 0
0.452368 2.50411e-07 1.08472e-07 1.41939e-07 0.566824 0.910723 0 0 0 0 0 0 0 0 0 0 0 0 0 0 0 0 0 0 0 0 0 0 0 0 0 0 0 0 0 0 0 0 0 0 0 0 0 0 0 0 0 0
0.475588 2.47045e-07 1.08249e-07 1.38796e-07 0.561825 0.906376 0 0 0 0 0 0 0 0 0 0 0 0 0 0 0 0 0 0 0 0 0 0 0 0 0 0 0 0 0 0 0 0 0 0 0 0 0 0 0 0 0 0
0.5 2.43233e-07 1.08241e-07 1.34992e-07 0.55499 0.900551 0 0 0 0 0 0 0 0 0 0 0 0 0 0 0 0 0 0 0 0 0 0 0 0 0 0 0 0 0 0 0 0 0 0 0 0 0 0 0 0 0 0
0.525665 2.51117e-07 1.07966e-07 1.43151e-07 0.570058 0.90219 0 0 0 0 0 0 0 0 0 0 0 0 0 0 0 0 0 0 0 0 0 0 0 0 0 0 0 0 0 0 0 0 0 0 0 0 0 0 0 0 0 0
0.552648 2.56048e-07 1.07535e-07 1.48513e-07 0.580019 0.901188 0 0 0 0 0 0 0 0 0 0 0 0 0 0 0 0 0 0 0 0 0 0 0 0 0 0 0 0 0 0 0 0 0 0 0 0 0 0 0 0 0 0
0.581015 2.49769e-07 1.07385e-07 1.42384e-07 0.570061 0.892173 0 0 0 0 0 0 0 0 0 0 0 0 0 0 0 0 0 0 0 0 0 0 0 0 0 0 0 0 0 0 0 0 0 0 0 0 0 0 0 0 0 0
0.610839 2.4379e-07 1.06571e-07 1.37219e-07 0.562858 0.882286 0 0 0 0 0 0 0 0 0 0 0 0 0 0 0 0 0 0 0 0 0 0 0 0 0 0 0 0 0 0 0 0 0 0 0 0 0 0 0 0 0 0
0.642193 2.51237e-07 1.05638e-07 1.45598e-07 0.579526 0.883985 0 0 0 0 0 0 0 0 0 0 0 0 0 0 0 0 0 0 0 0 0 0 0 0 0 0 0 0 0 0 0 0 0 0 0 0 0 0 0 0 0 0
0.675157 2.63812e-07 1.05794e-07 1.58018e-07 0.59898 0.889973 0 0 0 0 0 0 0 0 0 0 0 0 0 0 0 0 0 0 0 0 0 0 0 0 0 0 0 0 0 0 0 0 0 0 0 0 0 0 0 0 0 0
0.709813 2.63843e-07 1.0522e-07 1.58623e-07 0.601202 0.886755 0 0 0 0 0 0 0 0 0 0 0 0 0 0 0 0 0 0 0 0 0 0 0 0 0 0 0 0 0 0 0 0 0 0 0 0 0 0 0 0 0 0
0.746248 2.52974e-07 1.04413e-07 1.48561e-07 0.587259 0.872808 0 0 0 0 0 0 0 0 0 0 0 0 0 0 0 0 0 0 0 0 0 0 0 0 0 0 0 0 0 0 0 0 0 0 0 0 0 0 0 0 0 0
0.784553 2.43654e-07 1.03642e-07 1.40012e-07 0.574634 0.856192 0 0 0 0 0 0 0 0 0 0 0 0 0 0 0 0 0 0 0 0 0 0 0 0 0 0 0 0 0 0 0 0 0 0 0 0 0 0 0 0 0 0
0.824824 2.46639e-07 1.02618e-07 1.44022e-07 0.583936 0.850367 0 0 0 0 0 0 0 0 0 0 0 0 0 0 0 0 0 0 0 0 0 0 0 0 0 0 0 0 0 0 0 0 0 0 0 0 0 0 0 0 0 0
0.867162 2.61185e-07 1.01964e-07 1.59221e-07 0.609611 0.856308 0 0 0 0 0 0 0 0 0 0 0 0 0 0 0 0 0 0 0 0 0 0 0 0 0 0 0 0 0 0 0 0 0 0 0 0 0 0 0 0 0 0
0.911674 2.76003e-07 1.01529e-07 1.74474e-07 0.632144 0.858061 0 0 0 0 0 0 0 0 0 0 0 0 0 0 0 0 0 0 0 0 0 0 0 0 0 0 0 0 0 0 0 0 0 0 0 0 0 0 0 0 0 0
0.95847 2.81503e-07 1.01166e-07 1.80337e-07 0.640621 0.849717 0 0 0 0 0 0 0 0 0 0 0 0 0 0 0 0 0 0 0 0 0 0 0 0 0 0 0 0 0 0 0 0 0 0 0 0 0 0 0 0 0 0
1.00767 2.74628e-07 1.0022e-07 1.74408e-07 0.63507 0.838739 0 0 0 0 0 0 0 0 0 0 0 0 0 0 0 0 0 0 0 0 0 0 0 0 0 0 0 0 0 0 0 0 0 0 0 0 0 0 0 0 0 0
1.05939 2.58807e-07 9.73157e-08 1.61492e-07 0.623984 0.815571 0 0 0 0 0 0 0 0 0 0 0 0 0 0 0 0 0 0 0 0 0 0 0 0 0 0 0 0 0 0 0 0 0 0 0 0 0 0 0 0 0 0
1.11377 2.43399e-07 9.46968e-08 1.48702e-07 0.61094 0.789845 0 0 0 0 0 0 0 0 0 0 0 0 0 0 0 0 0 0 0 0 0 0 0 0 0 0 0 0 0 0 0 0 0 0 0 0 0 0 0 0 0 0
1.17094 2.4033e-07 9.49583e-08 1.45372e-07 0.604884 0.787584 0 0 0 0 0 0 0 0 0 0 0 0 0 0 0 0 0 0 0 0 0 0 0 0 0 0 0 0 0 0 0 0 0 0 0 0 0 0 0 0 0 0
1.23105 2.54124e-07 9.3908e-08 1.60216e-07 0.630464 0.796587 0 0 0 0 0 0 0 0 0 0 0 0 0 0 0 0 0 0 0 0 0 0 0 0 0 0 0 0 0 0 0 0 0 0 0 0 0 0 0 0 0 0
1.29424 2.74855e-07 9.43088e-08 1.80547e-07 0.656878 0.818382 0 0 0 0 0 0 0 0 0 0 0 0 0 0 0 0 0 0 0 0 0 0 0 0 0 0 0 0 0 0 0 0 0 0 0 0 0 0 0 0 0 0
1.36067 2.92344e-07 9.36495e-08 1.98695e-07 0.67966 0.83166 0 0 0 0 0 0 0 0 0 0 0 0 0 0 0 0 0 0 0 0 0 0 0 0 0 0 0 0 0 0 0 0 0 0 0 0 0 0 0 0 0 0
1.43051 3.10516e-07 9.22171e-08 2.18299e-07 0.70302 0.842605 0 0 0 0 0 0 0 0 0 0 0 0 0 0 0 0 0 0 0 0 0 0 0 0 0 0 0 0 0 0 0 0 0 0 0 0 0 0 0 0 0 0
1.50394 3.16301e-07 9.26912e-08 2.2361e-07 0.706953 0.835807 0 0 0 0 0 0 0 0 0 0 0 0 0 0 0 0 0 0 0 0 0 0 0 0 0 0 0 0 0 0 0 0 0 0 0 0 0 0 0 0 0 0
1.58114 3.08052e-07 9.11532e-08 2.16899e-07 0.704098 0.825753 0 0 0 0 0 0 0 0 0 0 0 0 0 0 0 0 0 0 0 0 0 0 0 0 0 0 0 0 0 0 0 0 0 0 0 0 0 0 0 0 0 0
1.6623 2.98689e-07 9.15369e-08 2.07152e-07 0.693537 0.798041 0 0 0 0 0 0 0 0 0 0 0 0 0 0 0 0 0 0 0 0 0 0 0 0 0 0 0 0 0 0 0 0 0 0 0 0 0 0 0 0 0 0
1.74763 2.73844e-07 9.11444e-08 1.827e-07 0.667167 0.749664 0 0 0 0 0 0 0 0 0 0 0 0 0 0 0 0 0 0 0 0 0 0 0 0 0 0 0 0 0 0 0 0 0 0 0 0 0 0 0 0 0 0
1.83733 2.55777e-07 8.91905e-08 1.66586e-07 0.651296 0.69891 0 0 0 0 0 0 0 0 0 0 0 0 0 0 0 0 0 0 0 0 0 0 0 0 0 0 0 0 0 0 0 0 0 0 0 0 0 0 0 0 0 0
1.93164 2.40746e-07 9.04763e-08 1.50269e-07 0.624183 0.626786 0 0 0 0 0 0 0 0 0 0 0 0 0 0 0 0 0 0 0 0 0 0 0 0 0 0 0 0 0 0 0 0 0 0 0 0 0 0 0 0 0 0
2.03079 2.23735e-07 8.80534e-08 1.35681e-07 0.606438 0.53672 0 0 0 0 0 0 0 0 0 0 0 0 0 0 0 0 0 0 0 0 0 0 0 0 0 0 0 0 0 0 0 0 0 0 0 0 0 0 0 0 0 0
2.13503 2.37948e-07 8.63916e-08 1.51557e-07 0.636931 0.536338 0 0 0 0 0 0 0 0 0 0 0 0 0 0 0 0 0 0 0 0 0 0 0 0 0 0 0 0 0 0 0 0 0 0 0 0 0 0 0 0 0 0
2.24463 2.44567e-07 9.38471e-08 1.5072e-07 0.616272 0.500396 0 0 0 0 0 0 0 0 0 0 0 0 0 0 0 0 0 0 0 0 0 0 0 0 0 0 0 0 0 0 0 0 0 0 0 0 0 0 0 0 0 0
2.35984 2.49483e-07 7.93234e-08 1.70159e-07 0.682049 0.525941 0 0 0 0 0 0 0 0 0 0 0 0 0 0 0 0 0 0 0 0 0 0 0 0 0 0 0 0 0 0 0 0 0 0 0 0 0 0 0 0 0 0
2.48097 2.93391e-07 8.27989e-08 2.10592e-07 0.717787 0.574151 0 0 0 0 0 0 0 0 0 0 0 0 0 0 0 0 0 0 0 0 0 0 0 0 0 0 0 0 0 0 0 0 0 0 0 0 0 0 0 0 0 0
2.60832 3.16549e-07 8.87325e-08 2.27817e-07 0.719688 0.581641 0 0 0 0 0 0 0 0 0 0 0 0 0 0 0 0 0 0 0 0 0 0 0 0 0 0 0 0 0 0 0 0 0 0 0 0 0 0 0 0 0 0
2.74221 3.27653e-07 7.44313e-08 2.53222e-07 0.772835 0.629807 0 0 0 0 0 0 0 0 0 0 0 0 0 0 0 0 0 0 0 0 0 0 0 0 0 0 0 0 0 0 0 0 0 0 0 0 0 0 0 0 0 0
2.88297 3.81376e-07 7.48932e-08 3.06483e-07 0.803624 0.66517 0 0 0 0 0 0 0 0 0 0 0 0 0 0 0 0 0 0 0 0 0 0 0 0 0 0 0 0 0 0 0 0 0 0 0 0 0 0 0 0 0 0
3.03095 4.18248e-07 8.21903e-08 3.36057e-07 0.803489 0.665639 0 0 0 0 0 0 0 0 0 0 0 0 0 0 0 0 0 0 0 0 0 0 0 0 0 0 0 0 0 0 0 0 0 0 0 0 0 0 0 0 0 0
3.18653 4.06776e-07 7.32251e-08 3.33551e-07 0.819987 0.673019 0 0 0 0 0 0 0 0 0 0 0 0 0 0 0 0 0 0 0 0 0 0 0 0 0 0 0 0 0 0 0 0 0 0 0 0 0 0 0 0 0 0
3.35009 4.26058e-07 6.65867e-08 3.59471e-07 0.843714 0.707932 0 0 0 0 0 0 0 0 0 0 0 0 0 0 0 0 0 0 0 0 0 0 0 0 0 0 0 0 0 0 0 0 0 0 0 0 0 0 0 0 0 0
3.52205 4.63433e-07 6.90858e-08 3.94347e-07 0.850926 0.722462 0 0 0 0 0 0 0 0 0 0 0 0 0 0 0 0 0 0 0 0 0 0 0 0 0 0 0 0 0 0 0 0 0 0 0 0 0 0 0 0 0 0
3.70284 4.71759e-07 7.18887e-08 3.9987e-07 0.847616 0.712163 0 0 0 0 0 0 0 0 0 0 0 0 0 0 0 0 0 0 0 0 0 0 0 0 0 0 0 0 0 0 0 0 0 0 0 0 0 0 0 0 0 0
3.89291 4.39751e-07 6.47113e-08 3.7504e-07 0.852846 0.693471 0 0 0 0 0 0 0 0 0 0 0 0 0 0 0 0 0 0 0 0 0 0 0 0 0 0 0 0 0 0 0 0 0 0 0 0 0 0 0 0 0 0
4.09273 4.21358e-07 5.76396e-08 3.63718e-07 0.863205 0.69514 0 0 0 0 0 0 0 0 0 0 0 0 0 0 0 0 0 0 0 0 0 0 0 0 0 0 0 0 0 0 0 0 0 0 0 0 0 0 0 0 0 0
4.30281 4.23441e-07 5.65134e-08 3.66928e-07 0.866538 0.710375 0 0 0 0 0 0 0 0 0 0 0 0 0 0 0 0 0 0 0 0 0 0 0 0 0 0 0 0 0 0 0 0 0 0 0 0 0 0 0 0 0 0
4.52368 4.20677e-07 5.82365e-08 3.6244e-07 0.861565 0.720718 0 0 0 0 0 0 0 0 0 0 0 0 0 0 0 0 0 0 0 0 0 0 0 0 0 0 0 0 0 0 0 0 0 0 0 0 0 0 0 0 0 0
4.75588 3.9219e-07 5.74132e-08 3.34777e-07 0.853609 0.713879 0 0 0 0 0 0 0 0 0 0 0 0 0 0 0 0 0 0 0 0 0 0 0 0 0 0 0 0 0 0 0 0 0 0 0 0 0 0 0 0 0 0
5 3.45472e-07 5.21379e-08 2.93334e-07 0.849082 0.686443 0 0 0 0 0 0 0 0 0 0 0 0 0 0 0 0 0 0 0 0 0 0 0 0 0 0 0 0 0 0 0 0 0 0 0 0 0 0 0 0 0 0
5.25665 3.04988e-07 4.6674e-08 2.58314e-07 0.846964 0.652857 0 0 0 0 0 0 0 0 0 0 0 0 0 0 0 0 0 0 0 0 0 0 0 0 0 0 0 0 0 0 0 0 0 0 0 0 0 0 0 0 0 0
5.52648 2.76216e-07 4.39994e-08 2.32217e-07 0.840707 0.630947 0 0 0 0 0 0 0 0 0 0 0 0 0 0 0 0 0 0 0 0 0 0 0 0 0 0 0 0 0 0 0 0 0 0 0 0 0 0 0 0 0 0
5.81015 2.50408e-07 4.38813e-08 2.06526e-07 0.824761 0.626481 0 0 0 0 0 0 0 0 0 0 0 0 0 0 0 0 0 0 0 0 0 0 0 0 0 0 0 0 0 0 0 0 0 0 0 0 0 0 0 0 0 0
6.10839 2.20057e-07 4.44558e-08 1.75602e-07 0.797981 0.634078 0 0 0 0 0 0 0 0 0 0 0 0 0 0 0 0 0 0 0 0 0 0 0 0 0 0 0 0 0 0 0 0 0 0 0 0 0 0 0 0 0 0
6.42193 1.8302e-07 4.34033e-08 1.39617e-07 0.762849 0.639872 0 0 0 0 0 0 0 0 0 0 0 0 0 0 0 0 0 0 0 0 0 0 0 0 0 0 0 0 0 0 0 0 0 0 0 0 0 0 0 0 0 0
6.75157 1.43084e-07 3.9921e-08 1.03163e-07 0.720996 0.626972 0 0 0 0 0 0 0 0 0 0 0 0 0 0 0 0 0 0 0 0 0 0 0 0 0 0 0 0 0 0 0 0 0 0 0 0 0 0 0 0 0 0
7.09813 1.05303e-07 3.56762e-08 6.96268e-08 0.661204 0.584529 0 0 0 0 0 0 0 0 0 0 0 0 0 0 0 0 0 0 0 0 0 0 0 0 0 0 0 0 0 0 0 0 0 0 0 0 0 0 0 0 0 0
7.46248 7.55882e-08 3.69577e-08 3.86306e-08 0.511066 0.51642 0 0 0 0 0 0 0 0 0 0 0 0 0 0 0 0 0 0 0 0 0 0 0 0 0 0 0 0 0 0 0 0 1.4013e-45 0 5.60519e-45 0 1.54143e-44 0 3.78351e-44 0 9.66896e-44 0
7.84553 7.42228e-08 5.68061e-08 1.74167e-08 0.234654 0.450189 0 0 0 0 0 0 0 0 0 0 0 0 0 0 0 0 0 0 0 0 0 0 0 0 2.8026e-45 0 1.26117e-44 0 4.76441e-44 0 1.59748e-43 0 4.87652e-43 0 1.36066e-42 0 3.59433e-42 0 8.7413e-42 0 2.0934e-41 0
8.24824 1.0958e-07 9.2071e-08 1.75092e-08 0.159784 0.406577 0 0 0 0 0 0 0 0 0 0 0 0 0 0 0 0 0 0 5.60519e-45 0 3.64338e-44 0 1.89175e-43 0 8.49187e-43 0 3.28044e-42 0 1.14374e-41 0 3.61997e-41 0 1.04583e-40 0 2.7716e-40 0 6.98428e-40 0 1.62612e-39 0 3.7318e-39 0
8.67162 1.47455e-07 1.19617e-07 2.78378e-08 0.188788 0.372486 0 0 0 0 0 0 0 0 0 0 0 0 1.4013e-45 0 1.54143e-44 0 1.58347e-43 0 1.1841e-42 0 7.12981e-42 0 3.44789e-41 0 1.43445e-40 0 5.18962e-40 0 1.70242e-39 0 5.09365e-39 0 1.39732e-38 0 3.531e-38 0 8.50533e-38 0 1.90022e-37 0 4.18749e-37 0
9.11674 1.96951e-07 1.49831e-07 4.71192e-08 0.239244 0.33987 0 0 0 0 0 0 0 0 0 0 8.40779e-45 0 2.08793e-43 0 2.96234e-42 0 2.79447e-41 0 1.89999e-40 0 1.04778e-39 0 4.6913e-39 0 1.82054e-38 0 6.1856e-38 0 1.9148e-37 0 5.4306e-37 0 1.41813e-36 0 3.42501e-36 0 7.9034e-36 0 1.69778e-35 0 3.59979e-35 0
9.5847 2.44717e-07 1.74143e-07 7.05739e-08 0.28839 0.309925 0 0 0 0 0 0 0 0 3.36312e-44 0 1.57506e-42 0 3.38021e-41 0 4.21093e-40 0 3.56012e-39 0 2.2043e-38 0 1.11837e-37 0 4.65395e-37 0 1.69034e-36 0 5.41033e-36 0 1.58491e-35 0 4.27194e-35 0 1.06449e-34 0 2.46257e-34 0 5.4552e-34 0 1.12893e-33 0 2.30741e-33 0
10.0767 2.65593e-07 1.82597e-07 8.2996e-08 0.312494 0.279011 0 0 0 0 0 0 3.78351e-44 0 5.30111e-42 0 2.07309e-40 0 3.83037e-39 0 4.21875e-38 0 3.2137e-37 0 1.82034e-36 0 8.53164e-36 0 3.31157e-35 0 1.12938e-34 0 3.41522e-34 0 9.49314e-34 0 2.43784e-33 0 5.80981e-33 0 1.29011e-32 0 2.74905e-32 0 5.49055e-32 0 1.08372e-31 0
10.5939 2.82814e-07 1.876e-07 9.52139e-08 0.336666 0.251689 0 0 0 0 5.60519e-45 0 5.70188e-42 0 6.38013e-40 0 2.08594e-38 0 3.34258e-37 0 3.27456e-36 0 2.25902e-35 0 1.1757e-34 0 5.11e-34 0 1.85637e-33 0 5.96287e-33 0 1.70833e-32 0 4.51737e-32 0 1.10786e-31 0 2.53061e-31 0 5.40472e-31 0 1.10991e-30 0 2.14316e-30 0 4.09202e-30 0
11.1377 2.82962e-07 1.85527e-07 9.74344e-08 0.344338 0.236852 0 0 0 0 8.11352e-43 0 6.50956e-40 0 5.78596e-38 0 1.59553e-36 0 2.23287e-35 0 1.9568e-34 0 1.22846e-33 0 5.89877e-33 0 2.38633e-32 0 8.13993e-32 0 2.46984e-31 0 6.7215e-31 0 1.69497e-30 0 3.97866e-30 0 8.72898e-30 0 1.79648e-29 0 3.56188e-29 0 6.66027e-29 0 1.23215e-28 0
11.7094 2.74233e-07 1.79321e-07 9.49122e-08 0.3461 0.227204 0 0 0 0 9.82871e-41 0 5.69087e-38 0 4.06306e-36 0 9.52907e-35 0 1.17235e-33 0 9.24092e-33 0 5.3037e-32 0 2.3589e-31 0 8.9134e-31 0 2.86363e-30 0 8.23054e-30 0 2.13303e-29 0 5.14138e-29 0 1.15761e-28 0 2.44416e-28 0 4.85606e-28 0 9.31167e-28 0 1.68877e-27 0 3.03176e-27 0
12.3105 2.52861e-07 1.65265e-07 8.75958e-08 0.346419 0.223787 0 0 1.09301e-43 0 8.86157e-39 0 3.76103e-36 0 2.18011e-34 0 4.38305e-33 0 4.77052e-32 0 3.39973e-31 0 1.79167e-30 0 7.40873e-30 0 2.62355e-29 0 7.96187e-29 0 2.1734e-28 0 5.37672e-28 0 1.2415e-27 0 2.6867e-27 0 5.46939e-27 0 1.05084e-26 0 1.95198e-26 0 3.43869e-26 0 5.99946e-26 0
12.9424 2.15942e-07 1.41495e-07 7.4447e-08 0.344755 0.218224 0 0 1.25837e-41 0 5.86202e-37 0 1.85159e-34 0 8.80297e-33 0 1.52861e-31 0 1.48069e-30 0 9.58743e-30 0 4.65879e-29 0 1.79746e-28 0 5.98404e-28 0 1.72021e-27 0 4.47108e-27 0 1.05824e-26 0 2.34567e-26 0 4.88845e-26 0 9.6121e-26 0 1.78883e-25 0 3.22387e-25 0 5.52445e-25 0 9.38007e-25 0
13.6067 1.69018e-07 1.12093e-07 5.69256e-08 0.336801 0.200316 1.12104e-44 0 1.04001e-39 0 2.86663e-35 0 6.83648e-33 0 2.69176e-31 0 4.06609e-30 0 3.52531e-29 0 2.08366e-28 0 9.37296e-28 0 3.38559e-27 0 1.06284e-26 0 2.90176e-26 0 7.19847e-26 0 1.63359e-25 0 3.48296e-25 0 7.00297e-25 0 1.33227e-24 0 2.40532e-24 0 4.21203e-24 0 7.03045e-24 0 1.16325e-23 0
14.3051 1.31458e-07 9.26156e-08 3.88425e-08 0.295474 0.169082 1.28219e-42 0 7.05831e-38 0 1.18097e-33 0 2.15588e-31 0 7.09485e-30 0 9.38672e-29 0 7.32379e-28 0 3.9691e-27 0 1.65904e-26 0 5.62837e-26 0 1.67093e-25 0 4.34367e-25 0 1.03079e-24 0 2.24748e-24 0 4.61794e-24 0 8.9737e-24 0 1.65442e-23 0 2.902e-23 0 4.94466e-23 0 8.04943e-23 0 1.29951e-22 0
