# 0.00169024 1 103 : grain size, compostion index, size index
# Heating and cooling timescale: 1.21924e-06 1.50348e+26
# Ratio of heating to cooling to determine stochastic cutoff: 100
# Equilibrium emission is recorded even for those grains in the stochastic regime.
# Emission spectrum was computed for: 
# Type: IRSF
# Scales: 0.25 0.5 1 1.5 2 2.5 3 3.5 4 4.5 5 5.5 6 6.5 7 7.5 8 8.5 9 9.5 10
# StochasticallyHeated: 0 0 0 0 0 0 0 0 0 0 0 0 0 0 0 0 0 0 0 0 0
# Temperature: -1
# Wavelength  CExt  CAbs  CSca  Albedo G EqEm1 StEm1 EqEm2 StEm2 EqEm3 StEm3 EqEm4 StEm4 EqEm5 StEm5 EqEm6 StEm6 EqEm7 StEm7 EqEm8 StEm8 EqEm9 StEm9 EqEm10 StEm10 EqEm11 StEm11 EqEm12 StEm12 EqEm13 StEm13 EqEm14 StEm14 EqEm15 StEm15 EqEm16 StEm16 EqEm17 StEm17 EqEm18 StEm18 EqEm19 StEm19 EqEm20 StEm20 EqEm21 StEm21
0.05 1.80491e-05 6.36832e-06 1.16808e-05 0.647168 0.854446 0 0 0 0 0 0 0 0 0 0 0 0 0 0 0 0 0 0 0 0 0 0 0 0 0 0 0 0 0 0 0 0 0 0 0 0 0 0 0 0 0 0
0.0525665 1.80538e-05 6.26577e-06 1.1788e-05 0.652939 0.842007 0 0 0 0 0 0 0 0 0 0 0 0 0 0 0 0 0 0 0 0 0 0 0 0 0 0 0 0 0 0 0 0 0 0 0 0 0 0 0 0 0 0
0.0552647 1.80586e-05 6.18851e-06 1.18701e-05 0.65731 0.831684 0 0 0 0 0 0 0 0 0 0 0 0 0 0 0 0 0 0 0 0 0 0 0 0 0 0 0 0 0 0 0 0 0 0 0 0 0 0 0 0 0 0
0.0581015 1.80633e-05 6.15416e-06 1.19092e-05 0.659301 0.825357 0 0 0 0 0 0 0 0 0 0 0 0 0 0 0 0 0 0 0 0 0 0 0 0 0 0 0 0 0 0 0 0 0 0 0 0 0 0 0 0 0 0
0.0610839 1.80681e-05 6.06778e-06 1.20003e-05 0.664172 0.816638 0 0 0 0 0 0 0 0 0 0 0 0 0 0 0 0 0 0 0 0 0 0 0 0 0 0 0 0 0 0 0 0 0 0 0 0 0 0 0 0 0 0
0.0642193 1.80738e-05 5.85117e-06 1.22226e-05 0.676262 0.798439 0 0 0 0 0 0 0 0 0 0 0 0 0 0 0 0 0 0 0 0 0 0 0 0 0 0 0 0 0 0 0 0 0 0 0 0 0 0 0 0 0 0
0.0675157 1.80807e-05 5.63658e-06 1.24441e-05 0.688254 0.77856 0 0 0 0 0 0 0 0 0 0 0 0 0 0 0 0 0 0 0 0 0 0 0 0 0 0 0 0 0 0 0 0 0 0 0 0 0 0 0 0 0 0
0.0709813 1.80879e-05 5.61708e-06 1.24709e-05 0.689457 0.77149 0 0 0 0 0 0 0 0 0 0 0 0 0 0 0 0 0 0 0 0 0 0 0 0 0 0 0 0 0 0 0 0 0 0 0 0 0 0 0 0 0 0
0.0746248 1.8095e-05 5.70486e-06 1.23902e-05 0.684728 0.772861 0 0 0 0 0 0 0 0 0 0 0 0 0 0 0 0 0 0 0 0 0 0 0 0 0 0 0 0 0 0 0 0 0 0 0 0 0 0 0 0 0 0
0.0784553 1.81018e-05 5.82626e-06 1.22756e-05 0.67814 0.777769 0 0 0 0 0 0 0 0 0 0 0 0 0 0 0 0 0 0 0 0 0 0 0 0 0 0 0 0 0 0 0 0 0 0 0 0 0 0 0 0 0 0
0.0824824 1.81087e-05 5.96481e-06 1.21439e-05 0.670611 0.783648 0 0 0 0 0 0 0 0 0 0 0 0 0 0 0 0 0 0 0 0 0 0 0 0 0 0 0 0 0 0 0 0 0 0 0 0 0 0 0 0 0 0
0.0867162 1.81158e-05 5.99913e-06 1.21166e-05 0.668845 0.782549 0 0 0 0 0 0 0 0 0 0 0 0 0 0 0 0 0 0 0 0 0 0 0 0 0 0 0 0 0 0 0 0 0 0 0 0 0 0 0 0 0 0
0.0911674 1.81236e-05 5.97444e-06 1.21492e-05 0.670351 0.777438 0 0 0 0 0 0 0 0 0 0 0 0 0 0 0 0 0 0 0 0 0 0 0 0 0 0 0 0 0 0 0 0 0 0 0 0 0 0 0 0 0 0
0.095847 1.81317e-05 6.00353e-06 1.21282e-05 0.668893 0.775704 0 0 0 0 0 0 0 0 0 0 0 0 0 0 0 0 0 0 0 0 0 0 0 0 0 0 0 0 0 0 0 0 0 0 0 0 0 0 0 0 0 0
0.100767 1.81379e-05 6.21781e-06 1.19201e-05 0.657193 0.787118 0 0 0 0 0 0 0 0 0 0 0 0 0 0 0 0 0 0 0 0 0 0 0 0 0 0 0 0 0 0 0 0 0 0 0 0 0 0 0 0 0 0
0.105939 1.81427e-05 6.43232e-06 1.17104e-05 0.64546 0.801707 0 0 0 0 0 0 0 0 0 0 0 0 0 0 0 0 0 0 0 0 0 0 0 0 0 0 0 0 0 0 0 0 0 0 0 0 0 0 0 0 0 0
0.111377 1.81447e-05 6.8206e-06 1.13241e-05 0.624099 0.829578 0 0 0 0 0 0 0 0 0 0 0 0 0 0 0 0 0 0 0 0 0 0 0 0 0 0 0 0 0 0 0 0 0 0 0 0 0 0 0 0 0 0
0.117094 1.81457e-05 7.21864e-06 1.0927e-05 0.602184 0.861781 0 0 0 0 0 0 0 0 0 0 0 0 0 0 0 0 0 0 0 0 0 0 0 0 0 0 0 0 0 0 0 0 0 0 0 0 0 0 0 0 0 0
0.123105 1.81495e-05 7.4762e-06 1.06733e-05 0.588076 0.884324 0 0 0 0 0 0 0 0 0 0 0 0 0 0 0 0 0 0 0 0 0 0 0 0 0 0 0 0 0 0 0 0 0 0 0 0 0 0 0 0 0 0
0.129424 1.81543e-05 7.69537e-06 1.04589e-05 0.576113 0.904211 0 0 0 0 0 0 0 0 0 0 0 0 0 0 0 0 0 0 0 0 0 0 0 0 0 0 0 0 0 0 0 0 0 0 0 0 0 0 0 0 0 0
0.136067 1.81593e-05 7.87111e-06 1.02882e-05 0.566552 0.92034 0 0 0 0 0 0 0 0 0 0 0 0 0 0 0 0 0 0 0 0 0 0 0 0 0 0 0 0 0 0 0 0 0 0 0 0 0 0 0 0 0 0
0.143051 1.81634e-05 8.00776e-06 1.01556e-05 0.559125 0.932922 0 0 0 0 0 0 0 0 0 0 0 0 0 0 0 0 0 0 0 0 0 0 0 0 0 0 0 0 0 0 0 0 0 0 0 0 0 0 0 0 0 0
0.150394 1.81653e-05 8.0849e-06 1.00804e-05 0.554927 0.941033 0 0 0 0 0 0 0 0 0 0 0 0 0 0 0 0 0 0 0 0 0 0 0 0 0 0 0 0 0 0 0 0 0 0 0 0 0 0 0 0 0 0
0.158114 1.81671e-05 8.05633e-06 1.01108e-05 0.556543 0.94192 0 0 0 0 0 0 0 0 0 0 0 0 0 0 0 0 0 0 0 0 0 0 0 0 0 0 0 0 0 0 0 0 0 0 0 0 0 0 0 0 0 0
0.16623 1.81728e-05 7.86415e-06 1.03086e-05 0.567256 0.931196 0 0 0 0 0 0 0 0 0 0 0 0 0 0 0 0 0 0 0 0 0 0 0 0 0 0 0 0 0 0 0 0 0 0 0 0 0 0 0 0 0 0
0.174762 1.81843e-05 7.48796e-06 1.06963e-05 0.588218 0.904886 0 0 0 0 0 0 0 0 0 0 0 0 0 0 0 0 0 0 0 0 0 0 0 0 0 0 0 0 0 0 0 0 0 0 0 0 0 0 0 0 0 0
0.183733 1.81984e-05 7.01564e-06 1.11828e-05 0.614492 0.869353 0 0 0 0 0 0 0 0 0 0 0 0 0 0 0 0 0 0 0 0 0 0 0 0 0 0 0 0 0 0 0 0 0 0 0 0 0 0 0 0 0 0
0.193164 1.82141e-05 6.52601e-06 1.16881e-05 0.641705 0.832783 0 0 0 0 0 0 0 0 0 0 0 0 0 0 0 0 0 0 0 0 0 0 0 0 0 0 0 0 0 0 0 0 0 0 0 0 0 0 0 0 0 0
0.203079 1.82308e-05 6.10163e-06 1.21292e-05 0.665312 0.802566 0 0 0 0 0 0 0 0 0 0 0 0 0 0 0 0 0 0 0 0 0 0 0 0 0 0 0 0 0 0 0 0 0 0 0 0 0 0 0 0 0 0
0.213503 1.82488e-05 5.73828e-06 1.25106e-05 0.685553 0.777992 0 0 0 0 0 0 0 0 0 0 0 0 0 0 0 0 0 0 0 0 0 0 0 0 0 0 0 0 0 0 0 0 0 0 0 0 0 0 0 0 0 0
0.224463 1.82695e-05 5.49901e-06 1.27705e-05 0.699006 0.761017 0 0 0 0 0 0 0 0 0 0 0 0 0 0 0 0 0 0 0 0 0 0 0 0 0 0 0 0 0 0 0 0 0 0 0 0 0 0 0 0 0 0
0.235984 1.82925e-05 5.3676e-06 1.29249e-05 0.706569 0.749603 0 0 0 0 0 0 0 0 0 0 0 0 0 0 0 0 0 0 0 0 0 0 0 0 0 0 0 0 0 0 0 0 0 0 0 0 0 0 0 0 0 0
0.248097 1.83169e-05 5.40228e-06 1.29146e-05 0.705066 0.745903 0 0 0 0 0 0 0 0 0 0 0 0 0 0 0 0 0 0 0 0 0 0 0 0 0 0 0 0 0 0 0 0 0 0 0 0 0 0 0 0 0 0
0.260832 1.83376e-05 5.54241e-06 1.27951e-05 0.697756 0.748025 0 0 0 0 0 0 0 0 0 0 0 0 0 0 0 0 0 0 0 0 0 0 0 0 0 0 0 0 0 0 0 0 0 0 0 0 0 0 0 0 0 0
0.274221 1.83526e-05 5.70839e-06 1.26442e-05 0.68896 0.752169 0 0 0 0 0 0 0 0 0 0 0 0 0 0 0 0 0 0 0 0 0 0 0 0 0 0 0 0 0 0 0 0 0 0 0 0 0 0 0 0 0 0
0.288297 1.83599e-05 5.9209e-06 1.2439e-05 0.677509 0.761525 0 0 0 0 0 0 0 0 0 0 0 0 0 0 0 0 0 0 0 0 0 0 0 0 0 0 0 0 0 0 0 0 0 0 0 0 0 0 0 0 0 0
0.303095 1.83677e-05 6.06697e-06 1.23008e-05 0.669694 0.768668 0 0 0 0 0 0 0 0 0 0 0 0 0 0 0 0 0 0 0 0 0 0 0 0 0 0 0 0 0 0 0 0 0 0 0 0 0 0 0 0 0 0
0.318653 1.83762e-05 6.18635e-06 1.21898e-05 0.66335 0.774955 0 0 0 0 0 0 0 0 0 0 0 0 0 0 0 0 0 0 0 0 0 0 0 0 0 0 0 0 0 0 0 0 0 0 0 0 0 0 0 0 0 0
0.335009 1.8386e-05 6.28157e-06 1.21044e-05 0.65835 0.780364 0 0 0 0 0 0 0 0 0 0 0 0 0 0 0 0 0 0 0 0 0 0 0 0 0 0 0 0 0 0 0 0 0 0 0 0 0 0 0 0 0 0
0.352205 1.83976e-05 6.34832e-06 1.20493e-05 0.654937 0.784184 0 0 0 0 0 0 0 0 0 0 0 0 0 0 0 0 0 0 0 0 0 0 0 0 0 0 0 0 0 0 0 0 0 0 0 0 0 0 0 0 0 0
0.370284 1.84105e-05 6.39297e-06 1.20175e-05 0.652754 0.786545 0 0 0 0 0 0 0 0 0 0 0 0 0 0 0 0 0 0 0 0 0 0 0 0 0 0 0 0 0 0 0 0 0 0 0 0 0 0 0 0 0 0
0.389291 1.84245e-05 6.41841e-06 1.20061e-05 0.651637 0.787454 0 0 0 0 0 0 0 0 0 0 0 0 0 0 0 0 0 0 0 0 0 0 0 0 0 0 0 0 0 0 0 0 0 0 0 0 0 0 0 0 0 0
0.409273 1.84391e-05 6.43828e-06 1.20008e-05 0.650835 0.787998 0 0 0 0 0 0 0 0 0 0 0 0 0 0 0 0 0 0 0 0 0 0 0 0 0 0 0 0 0 0 0 0 0 0 0 0 0 0 0 0 0 0
0.430281 1.84541e-05 6.45567e-06 1.19984e-05 0.650176 0.788381 0 0 0 0 0 0 0 0 0 0 0 0 0 0 0 0 0 0 0 0 0 0 0 0 0 0 0 0 0 0 0 0 0 0 0 0 0 0 0 0 0 0
0.452368 1.84698e-05 6.47341e-06 1.19964e-05 0.649513 0.788949 0 0 0 0 0 0 0 0 0 0 0 0 0 0 0 0 0 0 0 0 0 0 0 0 0 0 0 0 0 0 0 0 0 0 0 0 0 0 0 0 0 0
0.475588 1.84861e-05 6.48983e-06 1.19963e-05 0.648935 0.789462 0 0 0 0 0 0 0 0 0 0 0 0 0 0 0 0 0 0 0 0 0 0 0 0 0 0 0 0 0 0 0 0 0 0 0 0 0 0 0 0 0 0
0.5 1.85036e-05 6.50233e-06 1.20013e-05 0.648592 0.789714 0 0 0 0 0 0 0 0 0 0 0 0 0 0 0 0 0 0 0 0 0 0 0 0 0 0 0 0 0 0 0 0 0 0 0 0 0 0 0 0 0 0
0.525665 1.85219e-05 6.51234e-06 1.20096e-05 0.648398 0.789805 0 0 0 0 0 0 0 0 0 0 0 0 0 0 0 0 0 0 0 0 0 0 0 0 0 0 0 0 0 0 0 0 0 0 0 0 0 0 0 0 0 0
0.552648 1.8541e-05 6.52108e-06 1.20199e-05 0.648288 0.789775 0 0 0 0 0 0 0 0 0 0 0 0 0 0 0 0 0 0 0 0 0 0 0 0 0 0 0 0 0 0 0 0 0 0 0 0 0 0 0 0 0 0
0.581015 1.85615e-05 6.51934e-06 1.20421e-05 0.64877 0.788951 0 0 0 0 0 0 0 0 0 0 0 0 0 0 0 0 0 0 0 0 0 0 0 0 0 0 0 0 0 0 0 0 0 0 0 0 0 0 0 0 0 0
0.610839 1.85826e-05 6.51734e-06 1.20653e-05 0.649278 0.788088 0 0 0 0 0 0 0 0 0 0 0 0 0 0 0 0 0 0 0 0 0 0 0 0 0 0 0 0 0 0 0 0 0 0 0 0 0 0 0 0 0 0
0.642193 1.86045e-05 6.51503e-06 1.20895e-05 0.649815 0.787183 0 0 0 0 0 0 0 0 0 0 0 0 0 0 0 0 0 0 0 0 0 0 0 0 0 0 0 0 0 0 0 0 0 0 0 0 0 0 0 0 0 0
0.675157 1.86274e-05 6.50882e-06 1.21186e-05 0.650578 0.785961 0 0 0 0 0 0 0 0 0 0 0 0 0 0 0 0 0 0 0 0 0 0 0 0 0 0 0 0 0 0 0 0 0 0 0 0 0 0 0 0 0 0
0.709813 1.86512e-05 6.49902e-06 1.21522e-05 0.651549 0.784445 0 0 0 0 0 0 0 0 0 0 0 0 0 0 0 0 0 0 0 0 0 0 0 0 0 0 0 0 0 0 0 0 0 0 0 0 0 0 0 0 0 0
0.746248 1.86757e-05 6.4876e-06 1.21881e-05 0.652618 0.782774 0 0 0 0 0 0 0 0 0 0 0 0 0 0 0 0 0 0 0 0 0 0 0 0 0 0 0 0 0 0 0 0 0 0 0 0 0 0 0 0 0 0
0.784553 1.87009e-05 6.47574e-06 1.22252e-05 0.653721 0.781062 0 0 0 0 0 0 0 0 0 0 0 0 0 0 0 0 0 0 0 0 0 0 0 0 0 0 0 0 0 0 0 0 0 0 0 0 0 0 0 0 0 0
0.824824 1.87268e-05 6.46357e-06 1.22632e-05 0.65485 0.779298 0 0 0 0 0 0 0 0 0 0 0 0 0 0 0 0 0 0 0 0 0 0 0 0 0 0 0 0 0 0 0 0 0 0 0 0 0 0 0 0 0 0
0.867162 1.87534e-05 6.45102e-06 1.23024e-05 0.656008 0.777488 0 0 0 0 0 0 0 0 0 0 0 0 0 0 0 0 0 0 0 0 0 0 0 0 0 0 0 0 0 0 0 0 0 0 0 0 0 0 0 0 0 0
0.911674 1.87806e-05 6.43857e-06 1.2342e-05 0.657169 0.775669 0 0 0 0 0 0 0 0 0 0 0 0 0 0 0 0 0 0 0 0 0 0 0 0 0 0 0 0 0 0 0 0 0 0 0 0 0 0 0 0 0 0
0.95847 1.88082e-05 6.42725e-06 1.23809e-05 0.658274 0.773898 0 0 0 0 0 0 0 0 0 0 0 0 0 0 0 0 0 0 0 0 0 0 0 0 0 0 0 0 0 0 0 0 0 0 0 0 0 0 0 0 0 0
1.00767 1.88364e-05 6.41588e-06 1.24205e-05 0.659389 0.772116 0 0 0 0 0 0 0 0 0 0 0 0 0 0 0 0 0 0 0 0 0 0 0 0 0 0 0 0 0 0 0 0 0 0 0 0 0 0 0 0 0 0
1.05939 1.8865e-05 6.40646e-06 1.24585e-05 0.660405 0.770438 0 0 0 0 0 0 0 0 0 0 0 0 0 0 0 0 0 0 0 0 0 0 0 0 0 0 0 0 0 0 0 0 0 0 0 0 0 0 0 0 0 0
1.11377 1.88942e-05 6.3965e-06 1.24977e-05 0.661457 0.768721 0 0 0 0 0 0 0 0 0 0 0 0 0 0 0 0 0 0 0 0 0 0 0 0 0 0 0 0 0 0 0 0 0 0 0 0 0 0 0 0 0 0
1.17094 1.89242e-05 6.38832e-06 1.25359e-05 0.662426 0.767104 0 0 0 0 0 0 0 0 0 0 0 0 0 0 0 0 0 0 0 0 0 0 0 0 0 0 0 0 0 0 0 0 0 0 0 0 0 0 0 0 0 0
1.23105 1.89549e-05 6.38034e-06 1.25745e-05 0.663393 0.76549 0 0 0 0 0 0 0 0 0 0 0 0 0 0 0 0 0 0 0 0 0 0 0 0 0 0 0 0 0 0 0 0 0 0 0 0 0 0 0 0 0 0
1.29424 1.89864e-05 6.37047e-06 1.26159e-05 0.664472 0.763746 0 0 0 0 0 0 0 0 0 0 0 0 0 0 0 0 0 0 0 0 0 0 0 0 0 0 0 0 0 0 0 0 0 0 0 0 0 0 0 0 0 0
1.36067 1.90184e-05 6.36142e-06 1.2657e-05 0.665512 0.762044 0 0 0 0 0 0 0 0 0 0 0 0 0 0 0 0 0 0 0 0 0 0 0 0 0 0 0 0 0 0 0 0 0 0 0 0 0 0 0 0 0 0
1.43051 1.90507e-05 6.35371e-06 1.26969e-05 0.666484 0.760413 0 0 0 0 0 0 0 0 0 0 0 0 0 0 0 0 0 0 0 0 0 0 0 0 0 0 0 0 0 0 0 0 0 0 0 0 0 0 0 0 0 0
1.50394 1.90842e-05 6.3469e-06 1.27373e-05 0.667427 0.75883 0 0 0 0 0 0 0 0 0 0 0 0 0 0 0 0 0 0 0 0 0 0 0 0 0 0 0 0 0 0 0 0 0 0 0 0 0 0 0 0 0 0
1.58114 1.91185e-05 6.33938e-06 1.27791e-05 0.668416 0.757192 0 0 0 0 0 0 0 0 0 0 0 0 0 0 0 0 0 0 0 0 0 0 0 0 0 0 0 0 0 0 0 0 0 0 0 0 0 0 0 0 0 0
1.6623 1.91518e-05 6.33e-06 1.28218e-05 0.669483 0.755422 0 0 0 0 0 0 0 0 0 0 0 0 0 0 0 0 0 0 0 0 0 0 0 0 0 0 0 0 0 0 0 0 0 0 0 0 0 0 0 0 0 0
1.74763 1.91886e-05 6.31988e-06 1.28687e-05 0.670644 0.753645 0 0 0 0 0 0 0 0 0 0 0 0 0 0 0 0 0 0 0 0 0 0 0 0 0 0 0 0 0 0 0 0 0 0 0 0 0 0 0 0 0 0
1.83733 1.92272e-05 6.31001e-06 1.29172e-05 0.671819 0.7519 0 0 0 0 0 0 0 0 0 0 0 0 0 0 0 0 0 0 0 0 0 0 0 0 0 0 0 0 0 0 0 0 0 0 0 0 0 0 0 0 0 0
1.93164 1.92662e-05 6.2993e-06 1.29669e-05 0.673039 0.750123 0 0 0 0 0 0 0 0 0 0 0 0 0 0 0 0 0 0 0 0 0 0 0 0 0 0 0 0 0 0 0 0 0 0 0 0 0 0 0 0 0 0
2.03079 1.93079e-05 6.28742e-06 1.30205e-05 0.67436 0.748317 0 0 0 0 0 0 0 0 0 0 0 0 0 0 0 0 0 0 0 0 0 0 0 0 0 0 0 0 0 0 0 0 0 0 0 0 0 0 0 0 0 0
2.13503 1.93469e-05 6.27249e-06 1.30745e-05 0.675789 0.746327 0 0 0 0 0 0 0 0 0 0 0 0 0 0 0 0 0 0 0 0 0 0 0 0 0 0 0 0 0 0 0 0 0 0 0 0 0 0 0 0 0 0
2.24463 1.93879e-05 6.25567e-06 1.31322e-05 0.677341 0.744274 0 0 0 0 0 0 0 0 0 0 0 0 0 0 0 0 0 0 0 0 0 0 0 0 0 0 0 0 0 0 0 0 0 0 0 0 0 0 0 0 0 0
2.35984 1.94275e-05 6.23814e-06 1.31893e-05 0.678901 0.742206 0 0 0 0 0 0 0 0 0 0 0 0 0 0 0 0 0 0 0 0 0 0 0 0 0 0 0 0 0 0 0 0 0 0 0 0 0 0 0 0 0 0
2.48097 1.94527e-05 6.21762e-06 1.32351e-05 0.680372 0.739796 0 0 0 0 0 0 0 0 0 0 0 0 0 0 0 0 0 0 0 0 0 0 0 0 0 0 0 0 0 0 0 0 0 0 0 0 0 0 0 0 0 0
2.60832 1.94693e-05 6.19239e-06 1.32769e-05 0.68194 0.737146 0 0 0 0 0 0 0 0 0 0 0 0 0 0 0 0 0 0 0 0 0 0 0 0 0 0 0 0 0 0 0 0 0 0 0 0 0 0 0 0 0 0
2.74221 1.95271e-05 6.16413e-06 1.3363e-05 0.68433 0.734809 0 0 0 0 0 0 0 0 0 0 0 0 0 0 0 0 0 0 0 0 0 0 0 0 0 0 0 0 0 0 0 0 0 0 0 0 0 0 0 0 0 0
2.88297 1.96213e-05 6.13543e-06 1.34859e-05 0.687308 0.732852 0 0 0 0 0 0 0 0 0 0 0 0 0 0 0 0 0 0 0 0 0 0 0 0 0 0 0 0 0 0 0 0 0 0 0 0 0 0 0 0 0 0
3.03095 1.96151e-05 6.10078e-06 1.35143e-05 0.688975 0.72955 0 0 0 0 0 0 0 0 0 0 0 0 0 0 0 0 0 0 0 0 0 0 0 0 0 0 0 0 0 0 0 0 0 0 0 0 0 0 0 0 0 0
3.18653 1.96211e-05 6.06777e-06 1.35533e-05 0.690753 0.726416 0 0 0 0 0 0 0 0 0 0 0 0 0 0 0 0 0 0 0 0 0 0 0 0 0 0 0 0 0 0 0 0 0 0 0 0 0 0 0 0 0 0
3.35009 1.97695e-05 6.0316e-06 1.37379e-05 0.694904 0.724897 0 0 0 0 0 0 0 0 0 0 0 0 0 0 0 0 0 0 0 0 0 0 0 0 0 0 0 0 0 0 0 0 0 0 0 0 0 0 0 0 0 0
3.52205 1.96716e-05 5.99071e-06 1.36809e-05 0.695464 0.720256 0 0 0 0 0 0 0 0 0 0 0 0 0 0 0 0 0 0 0 0 0 0 0 0 0 0 0 0 0 0 0 0 0 0 0 0 0 0 0 0 0 0
3.70284 1.98396e-05 5.95247e-06 1.38872e-05 0.699971 0.718594 0 0 0 0 0 0 0 0 0 0 0 0 0 0 0 0 0 0 0 0 0 0 0 0 0 0 0 0 0 0 0 0 0 0 0 0 0 0 0 0 0 0
3.89291 1.97965e-05 5.91312e-06 1.38834e-05 0.701305 0.714751 0 0 0 0 0 0 0 0 0 0 0 0 0 0 0 0 0 0 0 0 0 0 0 0 0 0 0 0 0 0 0 0 0 0 0 0 0 0 0 0 0 0
4.09273 1.99274e-05 5.87048e-06 1.40569e-05 0.705406 0.71285 0 0 0 0 0 0 0 0 0 0 0 0 0 0 0 0 0 0 0 0 0 0 0 0 0 0 0 0 0 0 0 0 0 0 0 0 0 0 0 0 0 0
4.30281 1.98763e-05 5.82851e-06 1.40478e-05 0.706761 0.708778 0 0 0 0 0 0 0 0 0 0 0 0 0 0 0 0 0 0 0 0 0 0 0 0 0 0 0 0 0 0 0 0 0 0 0 0 0 0 0 0 0 0
4.52368 2.0062e-05 5.77927e-06 1.42828e-05 0.71193 0.706994 0 0 0 0 0 0 0 0 0 0 0 0 0 0 0 0 0 0 0 0 0 0 0 0 0 0 0 0 0 0 0 0 0 0 0 0 0 0 0 0 0 0
4.75588 1.98906e-05 5.73567e-06 1.4155e-05 0.71164 0.700801 0 0 0 0 0 0 0 0 0 0 0 0 0 0 0 0 0 0 0 0 0 0 0 0 0 0 0 0 0 0 0 0 0 0 0 0 0 0 0 0 0 0
5 2.02493e-05 5.67363e-06 1.45757e-05 0.719811 0.701871 0 0 0 0 0 0 0 0 0 0 0 0 0 0 0 0 0 0 0 0 0 0 0 0 0 0 0 0 0 0 0 0 0 0 0 0 0 0 0 0 0 0
5.25665 1.99625e-05 5.63399e-06 1.43285e-05 0.717771 0.694171 0 0 0 0 0 0 0 0 0 0 0 0 0 0 0 0 0 0 0 0 0 0 0 0 0 0 0 0 0 0 0 0 0 0 0 0 0 0 0 0 0 0
5.52648 2.02278e-05 5.59022e-06 1.46376e-05 0.723637 0.692993 0 0 0 0 0 0 0 0 0 0 0 0 0 0 0 0 0 0 0 0 0 0 0 0 0 0 0 0 0 0 0 0 0 0 0 0 0 0 0 0 0 0
5.81015 2.03403e-05 5.55837e-06 1.4782e-05 0.726732 0.691019 0 0 0 0 0 0 0 0 0 0 0 0 0 0 0 0 0 0 0 0 0 0 0 0 0 0 0 0 0 0 0 0 0 0 0 0 0 0 0 0 0 0
6.10839 2.00256e-05 5.48073e-06 1.45448e-05 0.726313 0.683453 0 0 0 0 0 0 0 0 0 0 0 0 0 0 0 0 0 0 0 0 0 0 0 0 0 0 0 0 0 0 0 0 0 0 0 0 0 0 0 0 0 0
6.42193 2.04847e-05 5.47411e-06 1.50106e-05 0.732771 0.684562 0 0 0 0 0 0 0 0 0 0 0 0 0 0 0 0 0 0 0 0 0 0 0 0 0 0 0 0 0 0 0 0 0 0 0 0 0 0 0 0 0 0
6.75157 2.05256e-05 5.4223e-06 1.51033e-05 0.735828 0.68097 0 0 0 0 0 0 0 0 0 0 0 0 0 0 0 0 0 0 0 0 0 0 0 0 0 0 0 0 0 0 0 0 0 0 0 0 0 0 0 0 0 0
7.09813 2.00885e-05 5.39227e-06 1.46963e-05 0.731575 0.669566 0 0 0 0 0 0 0 0 0 0 0 0 0 0 0 0 0 0 0 0 0 0 0 0 0 0 0 0 0 0 0 0 0 0 0 0 0 0 0 0 0 0
7.46248 2.05198e-05 5.31891e-06 1.52009e-05 0.740791 0.674418 0 0 0 0 0 0 0 0 0 0 0 0 0 0 0 0 0 0 0 0 0 0 0 0 0 0 0 0 0 0 0 0 0 0 0 0 0 0 0 0 0 0
7.84553 2.08716e-05 5.35636e-06 1.55153e-05 0.743366 0.676567 0 0 0 0 0 0 0 0 0 0 0 0 0 0 0 0 0 0 0 0 0 0 0 0 0 0 0 0 0 0 0 0 0 0 0 0 0 0 0 0 0 0
8.24824 2.04482e-05 5.37082e-06 1.50774e-05 0.737345 0.666782 0 0 0 0 0 0 0 0 0 0 0 0 0 0 0 0 0 0 0 0 0 0 0 0 0 0 0 0 0 0 0 0 0 0 0 0 0 0 0 0 0 0
8.67162 2.03143e-05 5.35275e-06 1.49616e-05 0.736503 0.659569 0 0 0 0 0 0 0 0 0 0 0 0 0 0 0 0 0 0 0 0 0 0 0 0 0 0 0 0 0 0 0 0 0 0 0 0 0 0 0 0 0 0
9.11674 2.09199e-05 5.33286e-06 1.5587e-05 0.745081 0.665624 0 0 0 0 0 0 0 0 0 0 0 0 0 0 0 0 0 0 0 0 0 0 0 0 0 0 0 0 0 0 0 0 0 0 0 0 0 0 0 0 0 0
9.5847 2.11724e-05 5.3528e-06 1.58196e-05 0.74718 0.667978 0 0 0 0 0 0 0 0 0 0 0 0 0 0 0 0 0 0 0 0 0 0 0 0 0 0 0 0 0 0 0 0 0 0 0 0 0 0 0 0 0 0
10.0767 2.07187e-05 5.38828e-06 1.53304e-05 0.739931 0.662889 0 0 0 0 0 0 0 0 0 0 0 0 0 0 0 0 0 0 0 0 0 0 0 0 0 0 0 0 0 0 0 0 0 0 0 0 0 0 0 0 0 0
10.5939 2.04529e-05 5.43856e-06 1.50144e-05 0.734094 0.659221 0 0 0 0 0 0 0 0 0 0 0 0 0 0 0 0 0 0 0 0 0 0 0 0 0 0 0 0 0 0 0 0 0 0 0 0 0 0 0 0 0 0
11.1377 2.10095e-05 5.54881e-06 1.54607e-05 0.73589 0.664614 0 0 0 0 0 0 0 0 0 0 0 0 0 0 0 0 0 0 0 0 0 0 0 0 0 0 0 0 0 0 0 0 0 0 0 0 0 0 0 0 0 0
11.7094 2.11803e-05 5.61542e-06 1.55649e-05 0.734875 0.664045 0 0 0 0 0 0 0 0 0 0 0 0 0 0 0 0 0 0 0 0 0 0 0 0 0 0 0 0 0 0 0 0 0 0 0 0 0 0 0 0 0 0
12.3105 2.14392e-05 5.65837e-06 1.57809e-05 0.736074 0.663934 0 0 0 0 0 0 0 0 0 0 0 0 0 0 0 0 0 0 0 0 0 0 0 0 0 0 0 0 0 0 0 0 0 0 0 0 0 0 0 0 0 0
12.9424 2.10006e-05 5.69249e-06 1.53081e-05 0.728937 0.652814 0 0 0 0 0 0 0 0 0 0 0 0 0 0 0 0 0 0 0 0 0 0 0 0 0 0 0 0 0 0 0 0 0 0 0 0 0 0 0 0 0 0
13.6067 2.0855e-05 5.76016e-06 1.50949e-05 0.7238 0.649599 0 0 0 0 0 0 0 0 0 0 0 0 0 0 0 0 0 0 0 0 0 0 0 0 0 0 0 0 0 0 0 0 0 0 0 0 0 0 0 0 1.4013e-45 0
14.3051 2.11551e-05 5.79087e-06 1.53642e-05 0.726265 0.655208 0 0 0 0 0 0 0 0 0 0 0 0 0 0 0 0 0 0 0 0 0 0 0 0 0 0 0 0 0 0 0 0 1.4013e-45 0 5.60519e-45 0 1.82169e-44 0 5.60519e-44 0 1.61149e-43 0
15.0394 2.16029e-05 5.85311e-06 1.57497e-05 0.729058 0.660571 0 0 0 0 0 0 0 0 0 0 0 0 0 0 0 0 0 0 0 0 0 0 0 0 0 0 4.2039e-45 0 1.82169e-44 0 7.56701e-44 0 2.83062e-43 0 9.57087e-43 0 3.05343e-42 0 8.90665e-42 0 2.46334e-41 0
15.8114 2.1811e-05 5.97219e-06 1.58388e-05 0.726184 0.663303 0 0 0 0 0 0 0 0 0 0 0 0 0 0 0 0 0 0 0 0 2.8026e-45 0 2.10195e-44 0 1.33123e-43 0 6.67018e-43 0 3.08286e-42 0 1.19419e-41 0 4.18638e-41 0 1.33612e-40 0 4.02683e-40 0 1.11476e-39 0 2.93393e-39 0
16.623 2.16237e-05 6.02657e-06 1.55971e-05 0.721298 0.658292 0 0 0 0 0 0 0 0 0 0 0 0 0 0 0 0 4.2039e-45 0 5.74532e-44 0 5.15678e-43 0 3.5579e-42 0 1.99657e-41 0 9.26174e-41 0 3.97431e-40 0 1.44101e-39 0 4.75153e-39 0 1.43295e-38 0 4.09216e-38 0 1.0779e-37 0 2.706e-37 0
17.4762 2.14501e-05 6.10064e-06 1.53494e-05 0.715589 0.651364 0 0 0 0 0 0 0 0 0 0 0 0 1.4013e-45 0 5.1848e-44 0 8.28167e-43 0 8.87582e-42 0 7.18516e-41 0 4.51522e-40 0 2.32926e-39 0 1.00254e-38 0 4.00666e-38 0 1.36419e-37 0 4.24368e-37 0 1.21264e-36 0 3.29007e-36 0 8.26602e-36 0 1.98393e-35 0
18.3733 2.14403e-05 6.10418e-06 1.53361e-05 0.715294 0.645165 0 0 0 0 0 0 0 0 0 0 7.00649e-45 0 3.41917e-43 0 7.92995e-42 0 1.10247e-40 0 1.05258e-39 0 7.69368e-39 0 4.41982e-38 0 2.10453e-37 0 8.43504e-37 0 3.1506e-36 0 1.01043e-35 0 2.97379e-35 0 8.07306e-35 0 2.08615e-34 0 5.01075e-34 0 1.15231e-33 0
19.3164 2.16309e-05 6.09356e-06 1.55374e-05 0.718294 0.64211 0 0 0 0 0 0 0 0 1.12104e-44 0 1.23875e-42 0 4.69365e-41 0 9.31886e-40 0 1.1394e-38 0 9.74362e-38 0 6.46281e-37 0 3.40896e-36 0 1.50412e-35 0 5.63347e-35 0 1.97306e-34 0 5.97783e-34 0 1.66901e-33 0 4.31528e-33 0 1.0646e-32 0 2.44998e-32 0 5.40967e-32 0
20.3079 2.17691e-05 5.99988e-06 1.57692e-05 0.724385 0.638855 0 0 0 0 0 0 4.2039e-45 0 1.81328e-42 0 1.55223e-40 0 4.92728e-39 0 8.45459e-38 0 9.14786e-37 0 7.04461e-36 0 4.26029e-35 0 2.07195e-34 0 8.50284e-34 0 2.98578e-33 0 9.83657e-33 0 2.82322e-32 0 7.49699e-32 0 1.85053e-31 0 4.36842e-31 0 9.65225e-31 0 2.05041e-30 0
21.3503 2.17733e-05 5.9116e-06 1.58617e-05 0.728493 0.636195 0 0 0 0 0 0 7.16064e-43 0 2.20349e-40 0 1.51828e-38 0 4.07085e-37 0 6.07992e-36 0 5.85639e-35 0 4.08209e-34 0 2.26102e-33 0 1.0179e-32 0 3.89899e-32 0 1.2877e-31 0 4.00238e-31 0 1.09109e-30 0 2.76246e-30 0 6.52448e-30 0 1.47694e-29 0 3.13947e-29 0 6.42825e-29 0
