# 0.000231776 0 84 : grain size, compostion index, size index
# Heating and cooling timescale: 4.43082e-05 8.74034e+08
# Ratio of heating to cooling to determine stochastic cutoff: 100
# Equilibrium emission is recorded even for those grains in the stochastic regime.
# Emission spectrum was computed for: 
# Type: ISRF
# Scales: 0.25 0.5 1 1.5 2 2.5 3 3.5 4 4.5 5 5.5 6 6.5 7 7.5 8 8.5 9 9.5 10
# StochasticallyHeated: 0 0 0 0 0 0 0 0 0 0 0 0 0 0 0 0 0 0 0 0 0
# Temperature: -1
# Wavelength  CExt  CAbs  CSca  Albedo G EqEm1 StEm1 EqEm2 StEm2 EqEm3 StEm3 EqEm4 StEm4 EqEm5 StEm5 EqEm6 StEm6 EqEm7 StEm7 EqEm8 StEm8 EqEm9 StEm9 EqEm10 StEm10 EqEm11 StEm11 EqEm12 StEm12 EqEm13 StEm13 EqEm14 StEm14 EqEm15 StEm15 EqEm16 StEm16 EqEm17 StEm17 EqEm18 StEm18 EqEm19 StEm19 EqEm20 StEm20 EqEm21 StEm21
0.05 3.40494e-07 1.60517e-07 1.79978e-07 0.528578 0.989683 0 0 0 0 0 0 0 0 0 0 0 0 0 0 0 0 0 0 0 0 0 0 0 0 0 0 0 0 0 0 0 0 0 0 0 0 0 0 0 0 0 0
0.0525665 3.41405e-07 1.57601e-07 1.83804e-07 0.538375 0.98307 0 0 0 0 0 0 0 0 0 0 0 0 0 0 0 0 0 0 0 0 0 0 0 0 0 0 0 0 0 0 0 0 0 0 0 0 0 0 0 0 0 0
0.0552647 3.41967e-07 1.56857e-07 1.8511e-07 0.541309 0.979482 0 0 0 0 0 0 0 0 0 0 0 0 0 0 0 0 0 0 0 0 0 0 0 0 0 0 0 0 0 0 0 0 0 0 0 0 0 0 0 0 0 0
0.0581015 3.42414e-07 1.56614e-07 1.85801e-07 0.54262 0.97699 0 0 0 0 0 0 0 0 0 0 0 0 0 0 0 0 0 0 0 0 0 0 0 0 0 0 0 0 0 0 0 0 0 0 0 0 0 0 0 0 0 0
0.0610839 3.428e-07 1.5656e-07 1.8624e-07 0.543292 0.975126 0 0 0 0 0 0 0 0 0 0 0 0 0 0 0 0 0 0 0 0 0 0 0 0 0 0 0 0 0 0 0 0 0 0 0 0 0 0 0 0 0 0
0.0642193 3.43151e-07 1.56513e-07 1.86638e-07 0.543895 0.97349 0 0 0 0 0 0 0 0 0 0 0 0 0 0 0 0 0 0 0 0 0 0 0 0 0 0 0 0 0 0 0 0 0 0 0 0 0 0 0 0 0 0
0.0675157 3.43487e-07 1.56371e-07 1.87116e-07 0.544754 0.971771 0 0 0 0 0 0 0 0 0 0 0 0 0 0 0 0 0 0 0 0 0 0 0 0 0 0 0 0 0 0 0 0 0 0 0 0 0 0 0 0 0 0
0.0709813 3.43831e-07 1.56126e-07 1.87705e-07 0.545924 0.969802 0 0 0 0 0 0 0 0 0 0 0 0 0 0 0 0 0 0 0 0 0 0 0 0 0 0 0 0 0 0 0 0 0 0 0 0 0 0 0 0 0 0
0.0746248 3.44194e-07 1.5582e-07 1.88374e-07 0.547291 0.967575 0 0 0 0 0 0 0 0 0 0 0 0 0 0 0 0 0 0 0 0 0 0 0 0 0 0 0 0 0 0 0 0 0 0 0 0 0 0 0 0 0 0
0.0784553 3.44573e-07 1.55522e-07 1.89051e-07 0.548654 0.965253 0 0 0 0 0 0 0 0 0 0 0 0 0 0 0 0 0 0 0 0 0 0 0 0 0 0 0 0 0 0 0 0 0 0 0 0 0 0 0 0 0 0
0.0824824 3.44967e-07 1.55247e-07 1.8972e-07 0.549966 0.962892 0 0 0 0 0 0 0 0 0 0 0 0 0 0 0 0 0 0 0 0 0 0 0 0 0 0 0 0 0 0 0 0 0 0 0 0 0 0 0 0 0 0
0.0867162 3.45374e-07 1.54986e-07 1.90388e-07 0.551252 0.960482 0 0 0 0 0 0 0 0 0 0 0 0 0 0 0 0 0 0 0 0 0 0 0 0 0 0 0 0 0 0 0 0 0 0 0 0 0 0 0 0 0 0
0.0911674 3.45798e-07 1.54738e-07 1.9106e-07 0.552519 0.958012 0 0 0 0 0 0 0 0 0 0 0 0 0 0 0 0 0 0 0 0 0 0 0 0 0 0 0 0 0 0 0 0 0 0 0 0 0 0 0 0 0 0
0.095847 3.46241e-07 1.54512e-07 1.91729e-07 0.553745 0.95549 0 0 0 0 0 0 0 0 0 0 0 0 0 0 0 0 0 0 0 0 0 0 0 0 0 0 0 0 0 0 0 0 0 0 0 0 0 0 0 0 0 0
0.100767 3.46706e-07 1.54329e-07 1.92378e-07 0.554872 0.952973 0 0 0 0 0 0 0 0 0 0 0 0 0 0 0 0 0 0 0 0 0 0 0 0 0 0 0 0 0 0 0 0 0 0 0 0 0 0 0 0 0 0
0.105939 3.47198e-07 1.54271e-07 1.92927e-07 0.555669 0.950663 0 0 0 0 0 0 0 0 0 0 0 0 0 0 0 0 0 0 0 0 0 0 0 0 0 0 0 0 0 0 0 0 0 0 0 0 0 0 0 0 0 0
0.111377 3.47689e-07 1.5439e-07 1.93299e-07 0.555954 0.948927 0 0 0 0 0 0 0 0 0 0 0 0 0 0 0 0 0 0 0 0 0 0 0 0 0 0 0 0 0 0 0 0 0 0 0 0 0 0 0 0 0 0
0.117094 3.4816e-07 1.54619e-07 1.93541e-07 0.555898 0.947732 0 0 0 0 0 0 0 0 0 0 0 0 0 0 0 0 0 0 0 0 0 0 0 0 0 0 0 0 0 0 0 0 0 0 0 0 0 0 0 0 0 0
0.123105 3.48644e-07 1.54777e-07 1.93867e-07 0.55606 0.946328 0 0 0 0 0 0 0 0 0 0 0 0 0 0 0 0 0 0 0 0 0 0 0 0 0 0 0 0 0 0 0 0 0 0 0 0 0 0 0 0 0 0
0.129424 3.49155e-07 1.55068e-07 1.94088e-07 0.555877 0.945217 0 0 0 0 0 0 0 0 0 0 0 0 0 0 0 0 0 0 0 0 0 0 0 0 0 0 0 0 0 0 0 0 0 0 0 0 0 0 0 0 0 0
0.136067 3.49625e-07 1.55636e-07 1.93989e-07 0.55485 0.945284 0 0 0 0 0 0 0 0 0 0 0 0 0 0 0 0 0 0 0 0 0 0 0 0 0 0 0 0 0 0 0 0 0 0 0 0 0 0 0 0 0 0
0.143051 3.50086e-07 1.5603e-07 1.94056e-07 0.554309 0.94495 0 0 0 0 0 0 0 0 0 0 0 0 0 0 0 0 0 0 0 0 0 0 0 0 0 0 0 0 0 0 0 0 0 0 0 0 0 0 0 0 0 0
0.150394 3.50591e-07 1.56802e-07 1.93789e-07 0.55275 0.945558 0 0 0 0 0 0 0 0 0 0 0 0 0 0 0 0 0 0 0 0 0 0 0 0 0 0 0 0 0 0 0 0 0 0 0 0 0 0 0 0 0 0
0.158114 3.50807e-07 1.58332e-07 1.92474e-07 0.548662 0.950038 0 0 0 0 0 0 0 0 0 0 0 0 0 0 0 0 0 0 0 0 0 0 0 0 0 0 0 0 0 0 0 0 0 0 0 0 0 0 0 0 0 0
0.16623 3.50825e-07 1.58533e-07 1.92291e-07 0.548112 0.951407 0 0 0 0 0 0 0 0 0 0 0 0 0 0 0 0 0 0 0 0 0 0 0 0 0 0 0 0 0 0 0 0 0 0 0 0 0 0 0 0 0 0
0.174762 3.51059e-07 1.57437e-07 1.93622e-07 0.551537 0.947999 0 0 0 0 0 0 0 0 0 0 0 0 0 0 0 0 0 0 0 0 0 0 0 0 0 0 0 0 0 0 0 0 0 0 0 0 0 0 0 0 0 0
0.183733 3.51507e-07 1.55751e-07 1.95756e-07 0.556906 0.941946 0 0 0 0 0 0 0 0 0 0 0 0 0 0 0 0 0 0 0 0 0 0 0 0 0 0 0 0 0 0 0 0 0 0 0 0 0 0 0 0 0 0
0.193164 3.52206e-07 1.53307e-07 1.98899e-07 0.564725 0.932431 0 0 0 0 0 0 0 0 0 0 0 0 0 0 0 0 0 0 0 0 0 0 0 0 0 0 0 0 0 0 0 0 0 0 0 0 0 0 0 0 0 0
0.203079 3.53231e-07 1.50951e-07 2.0228e-07 0.572656 0.921171 0 0 0 0 0 0 0 0 0 0 0 0 0 0 0 0 0 0 0 0 0 0 0 0 0 0 0 0 0 0 0 0 0 0 0 0 0 0 0 0 0 0
0.213503 3.54269e-07 1.49307e-07 2.04962e-07 0.57855 0.911778 0 0 0 0 0 0 0 0 0 0 0 0 0 0 0 0 0 0 0 0 0 0 0 0 0 0 0 0 0 0 0 0 0 0 0 0 0 0 0 0 0 0
0.224463 3.55322e-07 1.47997e-07 2.07324e-07 0.583484 0.90334 0 0 0 0 0 0 0 0 0 0 0 0 0 0 0 0 0 0 0 0 0 0 0 0 0 0 0 0 0 0 0 0 0 0 0 0 0 0 0 0 0 0
0.235984 3.56398e-07 1.46683e-07 2.09715e-07 0.588429 0.894869 0 0 0 0 0 0 0 0 0 0 0 0 0 0 0 0 0 0 0 0 0 0 0 0 0 0 0 0 0 0 0 0 0 0 0 0 0 0 0 0 0 0
0.248097 3.57631e-07 1.45123e-07 2.12508e-07 0.594211 0.884875 0 0 0 0 0 0 0 0 0 0 0 0 0 0 0 0 0 0 0 0 0 0 0 0 0 0 0 0 0 0 0 0 0 0 0 0 0 0 0 0 0 0
0.260832 3.58933e-07 1.44138e-07 2.14795e-07 0.598426 0.876385 0 0 0 0 0 0 0 0 0 0 0 0 0 0 0 0 0 0 0 0 0 0 0 0 0 0 0 0 0 0 0 0 0 0 0 0 0 0 0 0 0 0
0.274221 3.60257e-07 1.43566e-07 2.16691e-07 0.60149 0.869244 0 0 0 0 0 0 0 0 0 0 0 0 0 0 0 0 0 0 0 0 0 0 0 0 0 0 0 0 0 0 0 0 0 0 0 0 0 0 0 0 0 0
0.288297 3.61557e-07 1.43282e-07 2.18276e-07 0.603709 0.863328 0 0 0 0 0 0 0 0 0 0 0 0 0 0 0 0 0 0 0 0 0 0 0 0 0 0 0 0 0 0 0 0 0 0 0 0 0 0 0 0 0 0
0.303095 3.62886e-07 1.43211e-07 2.19676e-07 0.605357 0.858073 0 0 0 0 0 0 0 0 0 0 0 0 0 0 0 0 0 0 0 0 0 0 0 0 0 0 0 0 0 0 0 0 0 0 0 0 0 0 0 0 0 0
0.318653 3.64206e-07 1.43295e-07 2.20911e-07 0.606555 0.853514 0 0 0 0 0 0 0 0 0 0 0 0 0 0 0 0 0 0 0 0 0 0 0 0 0 0 0 0 0 0 0 0 0 0 0 0 0 0 0 0 0 0
0.335009 3.65537e-07 1.43479e-07 2.22059e-07 0.607486 0.849344 0 0 0 0 0 0 0 0 0 0 0 0 0 0 0 0 0 0 0 0 0 0 0 0 0 0 0 0 0 0 0 0 0 0 0 0 0 0 0 0 0 0
0.352205 3.66878e-07 1.43755e-07 2.23122e-07 0.608165 0.845528 0 0 0 0 0 0 0 0 0 0 0 0 0 0 0 0 0 0 0 0 0 0 0 0 0 0 0 0 0 0 0 0 0 0 0 0 0 0 0 0 0 0
0.370284 3.68238e-07 1.44048e-07 2.2419e-07 0.608818 0.84178 0 0 0 0 0 0 0 0 0 0 0 0 0 0 0 0 0 0 0 0 0 0 0 0 0 0 0 0 0 0 0 0 0 0 0 0 0 0 0 0 0 0
0.389291 3.69613e-07 1.44377e-07 2.25236e-07 0.609384 0.838159 0 0 0 0 0 0 0 0 0 0 0 0 0 0 0 0 0 0 0 0 0 0 0 0 0 0 0 0 0 0 0 0 0 0 0 0 0 0 0 0 0 0
0.409273 3.71016e-07 1.44695e-07 2.26322e-07 0.610005 0.834479 0 0 0 0 0 0 0 0 0 0 0 0 0 0 0 0 0 0 0 0 0 0 0 0 0 0 0 0 0 0 0 0 0 0 0 0 0 0 0 0 0 0
0.430281 3.72443e-07 1.45019e-07 2.27425e-07 0.610629 0.830765 0 0 0 0 0 0 0 0 0 0 0 0 0 0 0 0 0 0 0 0 0 0 0 0 0 0 0 0 0 0 0 0 0 0 0 0 0 0 0 0 0 0
0.452368 3.73879e-07 1.4539e-07 2.28489e-07 0.611132 0.827167 0 0 0 0 0 0 0 0 0 0 0 0 0 0 0 0 0 0 0 0 0 0 0 0 0 0 0 0 0 0 0 0 0 0 0 0 0 0 0 0 0 0
0.475588 3.75323e-07 1.45777e-07 2.29546e-07 0.611597 0.823594 0 0 0 0 0 0 0 0 0 0 0 0 0 0 0 0 0 0 0 0 0 0 0 0 0 0 0 0 0 0 0 0 0 0 0 0 0 0 0 0 0 0
0.5 3.76739e-07 1.46256e-07 2.30483e-07 0.611784 0.820359 0 0 0 0 0 0 0 0 0 0 0 0 0 0 0 0 0 0 0 0 0 0 0 0 0 0 0 0 0 0 0 0 0 0 0 0 0 0 0 0 0 0
0.525665 3.78121e-07 1.46814e-07 2.31307e-07 0.611728 0.817467 0 0 0 0 0 0 0 0 0 0 0 0 0 0 0 0 0 0 0 0 0 0 0 0 0 0 0 0 0 0 0 0 0 0 0 0 0 0 0 0 0 0
0.552648 3.79471e-07 1.47438e-07 2.32032e-07 0.611463 0.81489 0 0 0 0 0 0 0 0 0 0 0 0 0 0 0 0 0 0 0 0 0 0 0 0 0 0 0 0 0 0 0 0 0 0 0 0 0 0 0 0 0 0
0.581015 3.808e-07 1.48103e-07 2.32697e-07 0.611075 0.812515 0 0 0 0 0 0 0 0 0 0 0 0 0 0 0 0 0 0 0 0 0 0 0 0 0 0 0 0 0 0 0 0 0 0 0 0 0 0 0 0 0 0
0.610839 3.82119e-07 1.48773e-07 2.33346e-07 0.610663 0.810187 0 0 0 0 0 0 0 0 0 0 0 0 0 0 0 0 0 0 0 0 0 0 0 0 0 0 0 0 0 0 0 0 0 0 0 0 0 0 0 0 0 0
0.642193 3.83433e-07 1.49455e-07 2.33978e-07 0.610219 0.807919 0 0 0 0 0 0 0 0 0 0 0 0 0 0 0 0 0 0 0 0 0 0 0 0 0 0 0 0 0 0 0 0 0 0 0 0 0 0 0 0 0 0
0.675157 3.8475e-07 1.50133e-07 2.34617e-07 0.609791 0.805636 0 0 0 0 0 0 0 0 0 0 0 0 0 0 0 0 0 0 0 0 0 0 0 0 0 0 0 0 0 0 0 0 0 0 0 0 0 0 0 0 0 0
0.709813 3.86065e-07 1.50806e-07 2.35259e-07 0.609376 0.80331 0 0 0 0 0 0 0 0 0 0 0 0 0 0 0 0 0 0 0 0 0 0 0 0 0 0 0 0 0 0 0 0 0 0 0 0 0 0 0 0 0 0
0.746248 3.87374e-07 1.51494e-07 2.3588e-07 0.608921 0.801014 0 0 0 0 0 0 0 0 0 0 0 0 0 0 0 0 0 0 0 0 0 0 0 0 0 0 0 0 0 0 0 0 0 0 0 0 0 0 0 0 0 0
0.784553 3.88659e-07 1.52205e-07 2.36454e-07 0.608385 0.798774 0 0 0 0 0 0 0 0 0 0 0 0 0 0 0 0 0 0 0 0 0 0 0 0 0 0 0 0 0 0 0 0 0 0 0 0 0 0 0 0 0 0
0.824824 3.89905e-07 1.53031e-07 2.36874e-07 0.607518 0.79693 0 0 0 0 0 0 0 0 0 0 0 0 0 0 0 0 0 0 0 0 0 0 0 0 0 0 0 0 0 0 0 0 0 0 0 0 0 0 0 0 0 0
0.867162 3.9116e-07 1.53994e-07 2.37166e-07 0.606314 0.79553 0 0 0 0 0 0 0 0 0 0 0 0 0 0 0 0 0 0 0 0 0 0 0 0 0 0 0 0 0 0 0 0 0 0 0 0 0 0 0 0 0 0
0.911674 3.92473e-07 1.55004e-07 2.37469e-07 0.605059 0.794184 0 0 0 0 0 0 0 0 0 0 0 0 0 0 0 0 0 0 0 0 0 0 0 0 0 0 0 0 0 0 0 0 0 0 0 0 0 0 0 0 0 0
0.95847 3.93872e-07 1.5594e-07 2.37932e-07 0.604084 0.792425 0 0 0 0 0 0 0 0 0 0 0 0 0 0 0 0 0 0 0 0 0 0 0 0 0 0 0 0 0 0 0 0 0 0 0 0 0 0 0 0 0 0
1.00767 3.953e-07 1.56824e-07 2.38476e-07 0.603278 0.790348 0 0 0 0 0 0 0 0 0 0 0 0 0 0 0 0 0 0 0 0 0 0 0 0 0 0 0 0 0 0 0 0 0 0 0 0 0 0 0 0 0 0
1.05939 3.96752e-07 1.57743e-07 2.39009e-07 0.602414 0.788258 0 0 0 0 0 0 0 0 0 0 0 0 0 0 0 0 0 0 0 0 0 0 0 0 0 0 0 0 0 0 0 0 0 0 0 0 0 0 0 0 0 0
1.11377 3.98233e-07 1.5869e-07 2.39543e-07 0.601516 0.786122 0 0 0 0 0 0 0 0 0 0 0 0 0 0 0 0 0 0 0 0 0 0 0 0 0 0 0 0 0 0 0 0 0 0 0 0 0 0 0 0 0 0
1.17094 3.99751e-07 1.59626e-07 2.40125e-07 0.600686 0.783793 0 0 0 0 0 0 0 0 0 0 0 0 0 0 0 0 0 0 0 0 0 0 0 0 0 0 0 0 0 0 0 0 0 0 0 0 0 0 0 0 0 0
1.23105 4.01305e-07 1.60589e-07 2.40716e-07 0.599833 0.78138 0 0 0 0 0 0 0 0 0 0 0 0 0 0 0 0 0 0 0 0 0 0 0 0 0 0 0 0 0 0 0 0 0 0 0 0 0 0 0 0 0 0
1.29424 4.02876e-07 1.61593e-07 2.41283e-07 0.598901 0.77895 0 0 0 0 0 0 0 0 0 0 0 0 0 0 0 0 0 0 0 0 0 0 0 0 0 0 0 0 0 0 0 0 0 0 0 0 0 0 0 0 0 0
1.36067 4.04473e-07 1.62728e-07 2.41745e-07 0.59768 0.776741 0 0 0 0 0 0 0 0 0 0 0 0 0 0 0 0 0 0 0 0 0 0 0 0 0 0 0 0 0 0 0 0 0 0 0 0 0 0 0 0 0 0
1.43051 4.06183e-07 1.63936e-07 2.42246e-07 0.596398 0.774504 0 0 0 0 0 0 0 0 0 0 0 0 0 0 0 0 0 0 0 0 0 0 0 0 0 0 0 0 0 0 0 0 0 0 0 0 0 0 0 0 0 0
1.50394 4.07946e-07 1.65046e-07 2.429e-07 0.595421 0.77174 0 0 0 0 0 0 0 0 0 0 0 0 0 0 0 0 0 0 0 0 0 0 0 0 0 0 0 0 0 0 0 0 0 0 0 0 0 0 0 0 0 0
1.58114 4.09749e-07 1.66162e-07 2.43587e-07 0.594479 0.768765 0 0 0 0 0 0 0 0 0 0 0 0 0 0 0 0 0 0 0 0 0 0 0 0 0 0 0 0 0 0 0 0 0 0 0 0 0 0 0 0 0 0
1.6623 4.11553e-07 1.67313e-07 2.44239e-07 0.593459 0.765711 0 0 0 0 0 0 0 0 0 0 0 0 0 0 0 0 0 0 0 0 0 0 0 0 0 0 0 0 0 0 0 0 0 0 0 0 0 0 0 0 0 0
1.74763 4.1343e-07 1.6858e-07 2.4485e-07 0.592241 0.762716 0 0 0 0 0 0 0 0 0 0 0 0 0 0 0 0 0 0 0 0 0 0 0 0 0 0 0 0 0 0 0 0 0 0 0 0 0 0 0 0 0 0
1.83733 4.15385e-07 1.69885e-07 2.455e-07 0.591018 0.759536 0 0 0 0 0 0 0 0 0 0 0 0 0 0 0 0 0 0 0 0 0 0 0 0 0 0 0 0 0 0 0 0 0 0 0 0 0 0 0 0 0 0
1.93164 4.17393e-07 1.71106e-07 2.46286e-07 0.590059 0.75589 0 0 0 0 0 0 0 0 0 0 0 0 0 0 0 0 0 0 0 0 0 0 0 0 0 0 0 0 0 0 0 0 0 0 0 0 0 0 0 0 0 0
2.03079 4.19395e-07 1.72433e-07 2.46962e-07 0.588853 0.752209 0 0 0 0 0 0 0 0 0 0 0 0 0 0 0 0 0 0 0 0 0 0 0 0 0 0 0 0 0 0 0 0 0 0 0 0 0 0 0 0 0 0
2.13503 4.21464e-07 1.73825e-07 2.47639e-07 0.587569 0.748488 0 0 0 0 0 0 0 0 0 0 0 0 0 0 0 0 0 0 0 0 0 0 0 0 0 0 0 0 0 0 0 0 0 0 0 0 0 0 0 0 0 0
2.24463 4.23664e-07 1.7534e-07 2.48324e-07 0.586134 0.744667 0 0 0 0 0 0 0 0 0 0 0 0 0 0 0 0 0 0 0 0 0 0 0 0 0 0 0 0 0 0 0 0 0 0 0 0 0 0 0 0 0 0
2.35984 4.25853e-07 1.76851e-07 2.49002e-07 0.584714 0.740464 0 0 0 0 0 0 0 0 0 0 0 0 0 0 0 0 0 0 0 0 0 0 0 0 0 0 0 0 0 0 0 0 0 0 0 0 0 0 0 0 0 0
2.48097 4.281e-07 1.78301e-07 2.49798e-07 0.583505 0.735918 0 0 0 0 0 0 0 0 0 0 0 0 0 0 0 0 0 0 0 0 0 0 0 0 0 0 0 0 0 0 0 0 0 0 0 0 0 0 0 0 0 0
2.60832 4.3054e-07 1.80159e-07 2.50381e-07 0.581551 0.731842 0 0 0 0 0 0 0 0 0 0 0 0 0 0 0 0 0 0 0 0 0 0 0 0 0 0 0 0 0 0 0 0 0 0 0 0 0 0 0 0 0 0
2.74221 4.32987e-07 1.81802e-07 2.51185e-07 0.580122 0.726704 0 0 0 0 0 0 0 0 0 0 0 0 0 0 0 0 0 0 0 0 0 0 0 0 0 0 0 0 0 0 0 0 0 0 0 0 0 0 0 0 0 0
2.88297 4.35341e-07 1.83265e-07 2.52076e-07 0.579031 0.720991 0 0 0 0 0 0 0 0 0 0 0 0 0 0 0 0 0 0 0 0 0 0 0 0 0 0 0 0 0 0 0 0 0 0 0 0 0 0 0 0 0 0
3.03095 4.38069e-07 1.8514e-07 2.52929e-07 0.577372 0.715765 0 0 0 0 0 0 0 0 0 0 0 0 0 0 0 0 0 0 0 0 0 0 0 0 0 0 0 0 0 0 0 0 0 0 0 0 0 0 0 0 0 0
3.18653 4.40793e-07 1.8689e-07 2.53904e-07 0.576015 0.709566 0 0 0 0 0 0 0 0 0 0 0 0 0 0 0 0 0 0 0 0 0 0 0 0 0 0 0 0 0 0 0 0 0 0 0 0 0 0 0 0 0 0
3.35009 4.43071e-07 1.88345e-07 2.54726e-07 0.57491 0.702298 0 0 0 0 0 0 0 0 0 0 0 0 0 0 0 0 0 0 0 0 0 0 0 0 0 0 0 0 0 0 0 0 0 0 0 0 0 0 0 0 0 0
3.52205 4.45734e-07 1.90143e-07 2.5559e-07 0.573415 0.695384 0 0 0 0 0 0 0 0 0 0 0 0 0 0 0 0 0 0 0 0 0 0 0 0 0 0 0 0 0 0 0 0 0 0 0 0 0 0 0 0 0 0
3.70284 4.48766e-07 1.92026e-07 2.5674e-07 0.572102 0.688289 0 0 0 0 0 0 0 0 0 0 0 0 0 0 0 0 0 0 0 0 0 0 0 0 0 0 0 0 0 0 0 0 0 0 0 0 0 0 0 0 0 0
3.89291 4.51785e-07 1.94035e-07 2.5775e-07 0.570515 0.680768 0 0 0 0 0 0 0 0 0 0 0 0 0 0 0 0 0 0 0 0 0 0 0 0 0 0 0 0 0 0 0 0 0 0 0 0 0 0 0 0 0 0
4.09273 4.54411e-07 1.9597e-07 2.58441e-07 0.568739 0.672109 0 0 0 0 0 0 0 0 0 0 0 0 0 0 0 0 0 0 0 0 0 0 0 0 0 0 0 0 0 0 0 0 0 0 0 0 0 0 0 0 0 0
4.30281 4.56754e-07 1.97787e-07 2.58967e-07 0.566972 0.662334 0 0 0 0 0 0 0 0 0 0 0 0 0 0 0 0 0 0 0 0 0 0 0 0 0 0 0 0 0 0 0 0 0 0 0 0 0 0 0 0 0 0
4.52368 4.59439e-07 1.99608e-07 2.59831e-07 0.56554 0.652043 0 0 0 0 0 0 0 0 0 0 0 0 0 0 0 0 0 0 0 0 0 0 0 0 0 0 0 0 0 0 0 0 0 0 0 0 0 0 0 0 0 0
4.75588 4.62947e-07 2.01898e-07 2.6105e-07 0.563886 0.642343 0 0 0 0 0 0 0 0 0 0 0 0 0 0 0 0 0 0 0 0 0 0 0 0 0 0 0 0 0 0 0 0 0 0 0 0 0 0 0 0 0 0
5 4.66691e-07 2.04726e-07 2.61965e-07 0.561325 0.633221 0 0 0 0 0 0 0 0 0 0 0 0 0 0 0 0 0 0 0 0 0 0 0 0 0 0 0 0 0 0 0 0 0 0 0 0 0 0 0 0 0 0
5.25665 4.7007e-07 2.07994e-07 2.62076e-07 0.557525 0.623784 0 0 0 0 0 0 0 0 0 0 0 0 0 0 0 0 0 0 0 0 0 0 0 0 0 0 0 0 0 0 0 0 0 0 0 0 0 0 0 0 0 0
5.52648 4.72572e-07 2.10769e-07 2.61804e-07 0.553997 0.611673 0 0 0 0 0 0 0 0 0 0 0 0 0 0 0 0 0 0 0 0 0 0 0 0 0 0 0 0 0 0 0 0 0 0 0 0 0 0 0 0 0 0
5.81015 4.75246e-07 2.13579e-07 2.61667e-07 0.550593 0.597581 0 0 0 0 0 0 0 0 0 0 0 0 0 0 0 0 0 0 0 0 0 0 0 0 0 0 0 0 0 0 0 0 0 0 0 0 0 0 0 0 0 0
6.10839 4.7868e-07 2.1555e-07 2.63129e-07 0.549698 0.580616 0 0 0 0 0 0 0 0 0 0 0 0 0 0 0 0 0 0 0 0 0 0 0 0 0 0 0 0 0 0 0 0 0 0 0 0 0 0 0 0 0 0
6.42193 4.82166e-07 2.1559e-07 2.66576e-07 0.552872 0.559853 0 0 0 0 0 0 0 0 0 0 0 0 0 0 0 0 0 0 0 0 0 0 0 0 0 0 0 0 0 0 0 0 0 0 0 0 0 0 0 0 0 0
6.75157 4.87076e-07 2.18171e-07 2.68905e-07 0.55208 0.544067 0 0 0 0 0 0 0 0 0 0 0 0 0 0 0 0 0 0 0 0 0 0 0 0 0 0 0 0 0 0 0 0 0 0 0 0 0 0 0 0 0 0
7.09813 4.92387e-07 2.21665e-07 2.70722e-07 0.549815 0.530116 0 0 0 0 0 0 0 0 0 0 0 0 0 0 0 0 0 0 0 0 0 0 0 0 0 0 0 0 0 0 0 0 0 0 0 0 0 0 0 0 0 0
7.46248 4.96174e-07 2.23661e-07 2.72512e-07 0.549227 0.513425 0 0 0 0 0 0 0 0 0 0 0 0 0 0 0 0 0 0 0 0 0 0 0 0 0 0 0 0 0 0 0 0 0 0 0 0 0 0 0 0 0 0
7.84553 4.97756e-07 2.25334e-07 2.72422e-07 0.547301 0.494629 0 0 0 0 0 0 0 0 0 0 0 0 0 0 0 0 0 0 0 0 0 0 0 0 0 0 0 0 0 0 0 0 1.4013e-45 0 4.2039e-45 0 1.26117e-44 0 3.22299e-44 0 8.54792e-44 0
8.24824 4.96877e-07 2.25297e-07 2.71579e-07 0.546573 0.469587 0 0 0 0 0 0 0 0 0 0 0 0 0 0 0 0 0 0 0 0 0 0 0 0 1.4013e-45 0 5.60519e-45 0 2.24208e-44 0 7.84727e-44 0 2.55036e-43 0 7.49695e-43 0 2.07672e-42 0 5.25767e-42 0 1.30923e-41 0
8.67162 4.94328e-07 2.24498e-07 2.6983e-07 0.545852 0.437843 0 0 0 0 0 0 0 0 0 0 0 0 0 0 0 0 0 0 1.4013e-45 0 8.40779e-45 0 4.76441e-44 0 2.34017e-43 0 9.83712e-43 0 3.55229e-42 0 1.19979e-41 0 3.66888e-41 0 1.02139e-40 0 2.69219e-40 0 6.51274e-40 0 1.55126e-39 0
9.11674 4.91622e-07 2.23411e-07 2.68211e-07 0.545564 0.399293 0 0 0 0 0 0 0 0 0 0 0 0 0 0 1.4013e-45 0 2.52234e-44 0 2.11596e-43 0 1.35786e-42 0 7.30497e-42 0 3.33131e-41 0 1.30371e-40 0 4.42419e-40 0 1.40814e-39 0 4.0774e-39 0 1.07978e-38 0 2.71456e-38 0 6.28966e-38 0 1.43597e-37 0
9.5847 4.90305e-07 2.22873e-07 2.67433e-07 0.545441 0.355934 0 0 0 0 0 0 0 0 0 0 1.4013e-45 0 2.24208e-44 0 3.60134e-43 0 3.8872e-42 0 2.98547e-41 0 1.75469e-40 0 8.69586e-40 0 3.68277e-39 0 1.34837e-38 0 4.31074e-38 0 1.29662e-37 0 3.56457e-37 0 9.00136e-37 0 2.16334e-36 0 4.811e-36 0 1.05499e-35 0
10.0767 4.91349e-07 2.24046e-07 2.67303e-07 0.544019 0.311369 0 0 0 0 0 0 0 0 2.8026e-45 0 1.37327e-43 0 3.43879e-42 0 4.94827e-41 0 4.75002e-40 0 3.30266e-39 0 1.7803e-38 0 8.15956e-38 0 3.22049e-37 0 1.10672e-36 0 3.343e-36 0 9.52902e-36 0 2.49344e-35 0 6.01808e-35 0 1.38574e-34 0 2.96377e-34 0 6.25473e-34 0
10.5939 4.9481e-07 2.27369e-07 2.6744e-07 0.540491 0.268298 0 0 0 0 0 0 1.4013e-45 0 3.86758e-43 0 1.97247e-41 0 4.21644e-40 0 5.3273e-39 0 4.57921e-38 0 2.89628e-37 0 1.43796e-36 0 6.11845e-36 0 2.25832e-35 0 7.30676e-35 0 2.09115e-34 0 5.6635e-34 0 1.41397e-33 0 3.269e-33 0 7.22694e-33 0 1.48935e-32 0 3.03057e-32 0
11.1377 5.00855e-07 2.30872e-07 2.69983e-07 0.539044 0.225421 0 0 0 0 0 0 3.47522e-43 0 5.21942e-41 0 2.19688e-39 0 4.04404e-38 0 4.51434e-37 0 3.49351e-36 0 2.01931e-35 0 9.27113e-35 0 3.67554e-34 0 1.27284e-33 0 3.88881e-33 0 1.05726e-32 0 2.72744e-32 0 6.51191e-32 0 1.44515e-31 0 3.07349e-31 0 6.11423e-31 0 1.20173e-30 0
11.7094 5.0823e-07 2.34634e-07 2.73597e-07 0.538332 0.184027 0 0 0 0 3.64338e-44 0 4.6652e-41 0 5.48515e-39 0 1.92342e-37 0 3.07129e-36 0 3.04749e-35 0 2.13414e-34 0 1.1323e-33 0 4.82584e-33 0 1.78877e-32 0 5.83003e-32 0 1.68668e-31 0 4.36705e-31 0 1.07564e-30 0 2.46132e-30 0 5.25376e-30 0 1.07693e-29 0 2.07163e-29 0 3.93957e-29 0
12.3105 5.16702e-07 2.40497e-07 2.76205e-07 0.534553 0.147766 0 0 0 0 5.41602e-42 0 4.91533e-39 0 4.57923e-37 0 1.34974e-35 0 1.88256e-34 0 1.66998e-33 0 1.06346e-32 0 5.20088e-32 0 2.06514e-31 0 7.18043e-31 0 2.20909e-30 0 6.06805e-30 0 1.4998e-29 0 3.53508e-29 0 7.76868e-29 0 1.59798e-28 0 3.16279e-28 0 5.89282e-28 0 1.086e-27 0
12.9424 5.27659e-07 2.48297e-07 2.79362e-07 0.529436 0.117678 0 0 2.8026e-45 0 6.31484e-40 0 4.11001e-37 0 3.06857e-35 0 7.66741e-34 0 9.40305e-33 0 7.49805e-32 0 4.36217e-31 0 1.97424e-30 0 7.3288e-30 0 2.39779e-29 0 6.98305e-29 0 1.82581e-28 0 4.31769e-28 0 9.75971e-28 0 2.06391e-27 0 4.09847e-27 0 7.84591e-27 0 1.41808e-26 0 2.53656e-26 0
13.6067 5.3213e-07 2.52786e-07 2.79344e-07 0.524954 0.0860979 0 0 5.04467e-43 0 5.69443e-38 0 2.70125e-35 0 1.63383e-33 0 3.48881e-32 0 3.78571e-31 0 2.72774e-30 0 1.45619e-29 0 6.12213e-29 0 2.13169e-28 0 6.58216e-28 0 1.81944e-27 0 4.53907e-27 0 1.02923e-26 0 2.23566e-26 0 4.55805e-26 0 8.75315e-26 0 1.62337e-25 0 2.85052e-25 0 4.95608e-25 0
14.3051 5.37019e-07 2.59694e-07 2.77324e-07 0.516415 0.0623789 0 0 6.43336e-41 0 4.11228e-36 0 1.44391e-33 0 7.14815e-32 0 1.31448e-30 0 1.2696e-29 0 8.30711e-29 0 4.08649e-28 0 1.60171e-27 0 5.24748e-27 0 1.53352e-26 0 4.03365e-26 0 9.62373e-26 0 2.09667e-25 0 4.38506e-25 0 8.63462e-25 0 1.60617e-24 0 2.89033e-24 0 4.93762e-24 0 8.35609e-24 0
15.0394 5.37269e-07 2.64993e-07 2.72276e-07 0.506777 0.0417356 4.48416e-44 0 6.35742e-39 0 2.36754e-34 0 6.24416e-32 0 2.55499e-30 0 4.07576e-29 0 3.52399e-28 0 2.10372e-27 0 9.57429e-27 0 3.51055e-26 0 1.08538e-25 0 3.01009e-25 0 7.55234e-25 0 1.72699e-24 0 3.62214e-24 0 7.30741e-24 0 1.39208e-23 0 2.5122e-23 0 4.39289e-23 0 7.31081e-23 0 1.20586e-22 0
