# 2.0239e-05 0 65 : grain size, compostion index, size index
# Heating and cooling timescale: 0.012876 23465.1
# Ratio of heating to cooling to determine stochastic cutoff: 100
# Equilibrium emission is recorded even for those grains in the stochastic regime.
# Emission spectrum was computed for: 
# Type: ISRF
# Scales: 0.25 0.5 1 1.5 2 2.5 3 3.5 4 4.5 5 5.5 6 6.5 7 7.5 8 8.5 9 9.5 10
# StochasticallyHeated: 0 0 0 0 0 0 0 0 0 0 0 0 0 0 0 0 0 0 0 0 0
# Temperature: -1
# Wavelength  CExt  CAbs  CSca  Albedo G EqEm1 StEm1 EqEm2 StEm2 EqEm3 StEm3 EqEm4 StEm4 EqEm5 StEm5 EqEm6 StEm6 EqEm7 StEm7 EqEm8 StEm8 EqEm9 StEm9 EqEm10 StEm10 EqEm11 StEm11 EqEm12 StEm12 EqEm13 StEm13 EqEm14 StEm14 EqEm15 StEm15 EqEm16 StEm16 EqEm17 StEm17 EqEm18 StEm18 EqEm19 StEm19 EqEm20 StEm20 EqEm21 StEm21
0.05 2.5836e-09 1.14821e-09 1.43539e-09 0.555577 0.961097 0 0 0 0 0 0 0 0 0 0 0 0 0 0 0 0 0 0 0 0 0 0 0 0 0 0 0 0 0 0 0 0 0 0 0 0 0 0 0 0 0 0
0.0525665 2.59671e-09 1.15252e-09 1.44419e-09 0.55616 0.957562 0 0 0 0 0 0 0 0 0 0 0 0 0 0 0 0 0 0 0 0 0 0 0 0 0 0 0 0 0 0 0 0 0 0 0 0 0 0 0 0 0 0
0.0552647 2.61102e-09 1.15714e-09 1.45388e-09 0.556825 0.953549 0 0 0 0 0 0 0 0 0 0 0 0 0 0 0 0 0 0 0 0 0 0 0 0 0 0 0 0 0 0 0 0 0 0 0 0 0 0 0 0 0 0
0.0581015 2.62669e-09 1.16231e-09 1.46439e-09 0.557503 0.949005 0 0 0 0 0 0 0 0 0 0 0 0 0 0 0 0 0 0 0 0 0 0 0 0 0 0 0 0 0 0 0 0 0 0 0 0 0 0 0 0 0 0
0.0610839 2.64364e-09 1.16793e-09 1.4757e-09 0.55821 0.943905 0 0 0 0 0 0 0 0 0 0 0 0 0 0 0 0 0 0 0 0 0 0 0 0 0 0 0 0 0 0 0 0 0 0 0 0 0 0 0 0 0 0
0.0642193 2.66213e-09 1.1743e-09 1.48783e-09 0.558889 0.938259 0 0 0 0 0 0 0 0 0 0 0 0 0 0 0 0 0 0 0 0 0 0 0 0 0 0 0 0 0 0 0 0 0 0 0 0 0 0 0 0 0 0
0.0675157 2.68261e-09 1.18181e-09 1.50079e-09 0.559454 0.932126 0 0 0 0 0 0 0 0 0 0 0 0 0 0 0 0 0 0 0 0 0 0 0 0 0 0 0 0 0 0 0 0 0 0 0 0 0 0 0 0 0 0
0.0709813 2.7053e-09 1.19082e-09 1.51448e-09 0.559819 0.925611 0 0 0 0 0 0 0 0 0 0 0 0 0 0 0 0 0 0 0 0 0 0 0 0 0 0 0 0 0 0 0 0 0 0 0 0 0 0 0 0 0 0
0.0746248 2.73067e-09 1.20273e-09 1.52794e-09 0.559547 0.919025 0 0 0 0 0 0 0 0 0 0 0 0 0 0 0 0 0 0 0 0 0 0 0 0 0 0 0 0 0 0 0 0 0 0 0 0 0 0 0 0 0 0
0.0784553 2.75862e-09 1.22085e-09 1.53777e-09 0.557441 0.913593 0 0 0 0 0 0 0 0 0 0 0 0 0 0 0 0 0 0 0 0 0 0 0 0 0 0 0 0 0 0 0 0 0 0 0 0 0 0 0 0 0 0
0.0824824 2.78583e-09 1.24463e-09 1.54121e-09 0.55323 0.910335 0 0 0 0 0 0 0 0 0 0 0 0 0 0 0 0 0 0 0 0 0 0 0 0 0 0 0 0 0 0 0 0 0 0 0 0 0 0 0 0 0 0
0.0867162 2.8114e-09 1.27142e-09 1.53998e-09 0.547763 0.908808 0 0 0 0 0 0 0 0 0 0 0 0 0 0 0 0 0 0 0 0 0 0 0 0 0 0 0 0 0 0 0 0 0 0 0 0 0 0 0 0 0 0
0.0911674 2.83499e-09 1.29945e-09 1.53554e-09 0.541639 0.908519 0 0 0 0 0 0 0 0 0 0 0 0 0 0 0 0 0 0 0 0 0 0 0 0 0 0 0 0 0 0 0 0 0 0 0 0 0 0 0 0 0 0
0.095847 2.85605e-09 1.32757e-09 1.52848e-09 0.535172 0.909162 0 0 0 0 0 0 0 0 0 0 0 0 0 0 0 0 0 0 0 0 0 0 0 0 0 0 0 0 0 0 0 0 0 0 0 0 0 0 0 0 0 0
0.100767 2.87475e-09 1.35479e-09 1.51996e-09 0.528727 0.910308 0 0 0 0 0 0 0 0 0 0 0 0 0 0 0 0 0 0 0 0 0 0 0 0 0 0 0 0 0 0 0 0 0 0 0 0 0 0 0 0 0 0
0.105939 2.89037e-09 1.37995e-09 1.51042e-09 0.522569 0.911591 0 0 0 0 0 0 0 0 0 0 0 0 0 0 0 0 0 0 0 0 0 0 0 0 0 0 0 0 0 0 0 0 0 0 0 0 0 0 0 0 0 0
0.111377 2.90371e-09 1.40255e-09 1.50116e-09 0.516979 0.912462 0 0 0 0 0 0 0 0 0 0 0 0 0 0 0 0 0 0 0 0 0 0 0 0 0 0 0 0 0 0 0 0 0 0 0 0 0 0 0 0 0 0
0.117094 2.91497e-09 1.4218e-09 1.49317e-09 0.512242 0.912469 0 0 0 0 0 0 0 0 0 0 0 0 0 0 0 0 0 0 0 0 0 0 0 0 0 0 0 0 0 0 0 0 0 0 0 0 0 0 0 0 0 0
0.123105 2.92436e-09 1.43714e-09 1.48722e-09 0.508562 0.911092 0 0 0 0 0 0 0 0 0 0 0 0 0 0 0 0 0 0 0 0 0 0 0 0 0 0 0 0 0 0 0 0 0 0 0 0 0 0 0 0 0 0
0.129424 2.93278e-09 1.44855e-09 1.48423e-09 0.506081 0.908073 0 0 0 0 0 0 0 0 0 0 0 0 0 0 0 0 0 0 0 0 0 0 0 0 0 0 0 0 0 0 0 0 0 0 0 0 0 0 0 0 0 0
0.136067 2.94071e-09 1.45635e-09 1.48436e-09 0.504764 0.903353 0 0 0 0 0 0 0 0 0 0 0 0 0 0 0 0 0 0 0 0 0 0 0 0 0 0 0 0 0 0 0 0 0 0 0 0 0 0 0 0 0 0
0.143051 2.94948e-09 1.46155e-09 1.48793e-09 0.504472 0.897114 0 0 0 0 0 0 0 0 0 0 0 0 0 0 0 0 0 0 0 0 0 0 0 0 0 0 0 0 0 0 0 0 0 0 0 0 0 0 0 0 0 0
0.150394 2.96025e-09 1.46567e-09 1.49459e-09 0.504884 0.889784 0 0 0 0 0 0 0 0 0 0 0 0 0 0 0 0 0 0 0 0 0 0 0 0 0 0 0 0 0 0 0 0 0 0 0 0 0 0 0 0 0 0
0.158114 2.97456e-09 1.46988e-09 1.50468e-09 0.50585 0.881713 0 0 0 0 0 0 0 0 0 0 0 0 0 0 0 0 0 0 0 0 0 0 0 0 0 0 0 0 0 0 0 0 0 0 0 0 0 0 0 0 0 0
0.16623 2.99388e-09 1.47555e-09 1.51833e-09 0.507146 0.873289 0 0 0 0 0 0 0 0 0 0 0 0 0 0 0 0 0 0 0 0 0 0 0 0 0 0 0 0 0 0 0 0 0 0 0 0 0 0 0 0 0 0
0.174762 3.0191e-09 1.48368e-09 1.53542e-09 0.508569 0.864718 0 0 0 0 0 0 0 0 0 0 0 0 0 0 0 0 0 0 0 0 0 0 0 0 0 0 0 0 0 0 0 0 0 0 0 0 0 0 0 0 0 0
0.183733 3.05035e-09 1.49486e-09 1.55549e-09 0.509937 0.856081 0 0 0 0 0 0 0 0 0 0 0 0 0 0 0 0 0 0 0 0 0 0 0 0 0 0 0 0 0 0 0 0 0 0 0 0 0 0 0 0 0 0
0.193164 3.0867e-09 1.50929e-09 1.57741e-09 0.511035 0.84745 0 0 0 0 0 0 0 0 0 0 0 0 0 0 0 0 0 0 0 0 0 0 0 0 0 0 0 0 0 0 0 0 0 0 0 0 0 0 0 0 0 0
0.203079 3.12723e-09 1.52759e-09 1.59964e-09 0.51152 0.838817 0 0 0 0 0 0 0 0 0 0 0 0 0 0 0 0 0 0 0 0 0 0 0 0 0 0 0 0 0 0 0 0 0 0 0 0 0 0 0 0 0 0
0.213503 3.16906e-09 1.5488e-09 1.62025e-09 0.511273 0.830056 0 0 0 0 0 0 0 0 0 0 0 0 0 0 0 0 0 0 0 0 0 0 0 0 0 0 0 0 0 0 0 0 0 0 0 0 0 0 0 0 0 0
0.224463 3.20935e-09 1.57295e-09 1.6364e-09 0.509884 0.821188 0 0 0 0 0 0 0 0 0 0 0 0 0 0 0 0 0 0 0 0 0 0 0 0 0 0 0 0 0 0 0 0 0 0 0 0 0 0 0 0 0 0
0.235984 3.24503e-09 1.60053e-09 1.64451e-09 0.506777 0.811835 0 0 0 0 0 0 0 0 0 0 0 0 0 0 0 0 0 0 0 0 0 0 0 0 0 0 0 0 0 0 0 0 0 0 0 0 0 0 0 0 0 0
0.248097 3.2702e-09 1.62848e-09 1.64172e-09 0.502025 0.800975 0 0 0 0 0 0 0 0 0 0 0 0 0 0 0 0 0 0 0 0 0 0 0 0 0 0 0 0 0 0 0 0 0 0 0 0 0 0 0 0 0 0
0.260832 3.28255e-09 1.65369e-09 1.62886e-09 0.496217 0.788383 0 0 0 0 0 0 0 0 0 0 0 0 0 0 0 0 0 0 0 0 0 0 0 0 0 0 0 0 0 0 0 0 0 0 0 0 0 0 0 0 0 0
0.274221 3.29586e-09 1.68336e-09 1.6125e-09 0.489251 0.775028 0 0 0 0 0 0 0 0 0 0 0 0 0 0 0 0 0 0 0 0 0 0 0 0 0 0 0 0 0 0 0 0 0 0 0 0 0 0 0 0 0 0
0.288297 3.31287e-09 1.71252e-09 1.60035e-09 0.483071 0.759447 0 0 0 0 0 0 0 0 0 0 0 0 0 0 0 0 0 0 0 0 0 0 0 0 0 0 0 0 0 0 0 0 0 0 0 0 0 0 0 0 0 0
0.303095 3.33458e-09 1.719e-09 1.61558e-09 0.484493 0.740928 0 0 0 0 0 0 0 0 0 0 0 0 0 0 0 0 0 0 0 0 0 0 0 0 0 0 0 0 0 0 0 0 0 0 0 0 0 0 0 0 0 0
0.318653 3.42434e-09 1.72537e-09 1.69897e-09 0.496146 0.728965 0 0 0 0 0 0 0 0 0 0 0 0 0 0 0 0 0 0 0 0 0 0 0 0 0 0 0 0 0 0 0 0 0 0 0 0 0 0 0 0 0 0
0.335009 3.59897e-09 1.74794e-09 1.85103e-09 0.514322 0.725485 0 0 0 0 0 0 0 0 0 0 0 0 0 0 0 0 0 0 0 0 0 0 0 0 0 0 0 0 0 0 0 0 0 0 0 0 0 0 0 0 0 0
0.352205 3.77432e-09 1.73301e-09 2.04131e-09 0.540841 0.719996 0 0 0 0 0 0 0 0 0 0 0 0 0 0 0 0 0 0 0 0 0 0 0 0 0 0 0 0 0 0 0 0 0 0 0 0 0 0 0 0 0 0
0.370284 3.96853e-09 1.67993e-09 2.2886e-09 0.576687 0.715518 0 0 0 0 0 0 0 0 0 0 0 0 0 0 0 0 0 0 0 0 0 0 0 0 0 0 0 0 0 0 0 0 0 0 0 0 0 0 0 0 0 0
0.389291 4.25881e-09 1.65242e-09 2.60639e-09 0.612 0.719422 0 0 0 0 0 0 0 0 0 0 0 0 0 0 0 0 0 0 0 0 0 0 0 0 0 0 0 0 0 0 0 0 0 0 0 0 0 0 0 0 0 0
0.409273 4.56095e-09 1.64591e-09 2.91504e-09 0.639129 0.724897 0 0 0 0 0 0 0 0 0 0 0 0 0 0 0 0 0 0 0 0 0 0 0 0 0 0 0 0 0 0 0 0 0 0 0 0 0 0 0 0 0 0
0.430281 4.74189e-09 1.60769e-09 3.1342e-09 0.660959 0.7231 0 0 0 0 0 0 0 0 0 0 0 0 0 0 0 0 0 0 0 0 0 0 0 0 0 0 0 0 0 0 0 0 0 0 0 0 0 0 0 0 0 0
0.452368 4.82297e-09 1.53113e-09 3.29184e-09 0.682533 0.713643 0 0 0 0 0 0 0 0 0 0 0 0 0 0 0 0 0 0 0 0 0 0 0 0 0 0 0 0 0 0 0 0 0 0 0 0 0 0 0 0 0 0
0.475588 4.90255e-09 1.45949e-09 3.44306e-09 0.702301 0.703725 0 0 0 0 0 0 0 0 0 0 0 0 0 0 0 0 0 0 0 0 0 0 0 0 0 0 0 0 0 0 0 0 0 0 0 0 0 0 0 0 0 0
0.5 4.9896e-09 1.42092e-09 3.56868e-09 0.715223 0.698693 0 0 0 0 0 0 0 0 0 0 0 0 0 0 0 0 0 0 0 0 0 0 0 0 0 0 0 0 0 0 0 0 0 0 0 0 0 0 0 0 0 0
0.525665 5.01988e-09 1.40785e-09 3.61204e-09 0.719546 0.697073 0 0 0 0 0 0 0 0 0 0 0 0 0 0 0 0 0 0 0 0 0 0 0 0 0 0 0 0 0 0 0 0 0 0 0 0 0 0 0 0 0 0
0.552648 4.94328e-09 1.39504e-09 3.54825e-09 0.717792 0.692873 0 0 0 0 0 0 0 0 0 0 0 0 0 0 0 0 0 0 0 0 0 0 0 0 0 0 0 0 0 0 0 0 0 0 0 0 0 0 0 0 0 0
0.581015 4.77345e-09 1.3568e-09 3.41665e-09 0.715761 0.680227 0 0 0 0 0 0 0 0 0 0 0 0 0 0 0 0 0 0 0 0 0 0 0 0 0 0 0 0 0 0 0 0 0 0 0 0 0 0 0 0 0 0
0.610839 4.55374e-09 1.29313e-09 3.26061e-09 0.71603 0.657598 0 0 0 0 0 0 0 0 0 0 0 0 0 0 0 0 0 0 0 0 0 0 0 0 0 0 0 0 0 0 0 0 0 0 0 0 0 0 0 0 0 0
0.642193 4.33022e-09 1.223e-09 3.10722e-09 0.717566 0.628621 0 0 0 0 0 0 0 0 0 0 0 0 0 0 0 0 0 0 0 0 0 0 0 0 0 0 0 0 0 0 0 0 0 0 0 0 0 0 0 0 0 0
0.675157 4.12811e-09 1.16754e-09 2.96057e-09 0.717174 0.599345 0 0 0 0 0 0 0 0 0 0 0 0 0 0 0 0 0 0 0 0 0 0 0 0 0 0 0 0 0 0 0 0 0 0 0 0 0 0 0 0 0 0
0.709813 3.94851e-09 1.13747e-09 2.81104e-09 0.711925 0.574524 0 0 0 0 0 0 0 0 0 0 0 0 0 0 0 0 0 0 0 0 0 0 0 0 0 0 0 0 0 0 0 0 0 0 0 0 0 0 0 0 0 0
0.746248 3.77671e-09 1.1301e-09 2.64661e-09 0.70077 0.555872 0 0 0 0 0 0 0 0 0 0 0 0 0 0 0 0 0 0 0 0 0 0 0 0 0 0 0 0 0 0 0 0 0 0 0 0 0 0 0 0 0 0
0.784553 3.59293e-09 1.13319e-09 2.45974e-09 0.684606 0.542186 0 0 0 0 0 0 0 0 0 0 0 0 0 0 0 0 0 0 0 0 0 0 0 0 0 0 0 0 0 0 0 0 0 0 0 0 0 0 0 0 0 0
0.824824 3.38201e-09 1.13125e-09 2.25076e-09 0.665509 0.530315 0 0 0 0 0 0 0 0 0 0 0 0 0 0 0 0 0 0 0 0 0 0 0 0 0 0 0 0 0 0 0 0 0 0 0 0 0 0 0 0 0 0
0.867162 3.14001e-09 1.11229e-09 2.02772e-09 0.645769 0.516494 0 0 0 0 0 0 0 0 0 0 0 0 0 0 0 0 0 0 0 0 0 0 0 0 0 0 0 0 0 0 0 0 0 0 0 0 0 0 0 0 0 0
0.911674 2.87428e-09 1.07194e-09 1.80234e-09 0.627057 0.497773 0 0 0 0 0 0 0 0 0 0 0 0 0 0 0 0 0 0 0 0 0 0 0 0 0 0 0 0 0 0 0 0 0 0 0 0 0 0 0 0 0 0
0.95847 2.59861e-09 1.01338e-09 1.58523e-09 0.61003 0.473014 0 0 0 0 0 0 0 0 0 0 0 0 0 0 0 0 0 0 0 0 0 0 0 0 0 0 0 0 0 0 0 0 0 0 0 0 0 0 0 0 0 0
1.00767 2.3272e-09 9.43768e-10 1.38343e-09 0.594462 0.442901 0 0 0 0 0 0 0 0 0 0 0 0 0 0 0 0 0 0 0 0 0 0 0 0 0 0 0 0 0 0 0 0 0 0 0 0 0 0 0 0 0 0
1.05939 2.07052e-09 8.70532e-10 1.19998e-09 0.579558 0.409403 0 0 0 0 0 0 0 0 0 0 0 0 0 0 0 0 0 0 0 0 0 0 0 0 0 0 0 0 0 0 0 0 0 0 0 0 0 0 0 0 0 0
1.11377 1.83418e-09 7.98986e-10 1.03519e-09 0.564391 0.374711 0 0 0 0 0 0 0 0 0 0 0 0 0 0 0 0 0 0 0 0 0 0 0 0 0 0 0 0 0 0 0 0 0 0 0 0 0 0 0 0 0 0
1.17094 1.62037e-09 7.32053e-10 8.88316e-10 0.548218 0.340623 0 0 0 0 0 0 0 0 0 0 0 0 0 0 0 0 0 0 0 0 0 0 0 0 0 0 0 0 0 0 0 0 0 0 0 0 0 0 0 0 0 0
1.23105 1.42917e-09 6.70893e-10 7.58273e-10 0.53057 0.308367 0 0 0 0 0 0 0 0 0 0 0 0 0 0 0 0 0 0 0 0 0 0 0 0 0 0 0 0 0 0 0 0 0 0 0 0 0 0 0 0 0 0
1.29424 1.25951e-09 6.15567e-10 6.43942e-10 0.511265 0.278561 0 0 0 0 0 0 0 0 0 0 0 0 0 0 0 0 0 0 0 0 0 0 0 0 0 0 0 0 0 0 0 0 0 0 0 0 0 0 0 0 0 0
1.36067 1.10987e-09 5.65674e-10 5.44198e-10 0.490325 0.251448 0 0 0 0 0 0 0 0 0 0 0 0 0 0 0 0 0 0 0 0 0 0 0 0 0 0 0 0 0 0 0 0 0 0 0 0 0 0 0 0 0 0
1.43051 9.78487e-10 5.2063e-10 4.57857e-10 0.467924 0.227003 0 0 0 0 0 0 0 0 0 0 0 0 0 0 0 0 0 0 0 0 0 0 0 0 0 0 0 0 0 0 0 0 0 0 0 0 0 0 0 0 0 0
1.50394 8.63551e-10 4.79854e-10 3.83696e-10 0.444324 0.205065 0 0 0 0 0 0 0 0 0 0 0 0 0 0 0 0 0 0 0 0 0 0 0 0 0 0 0 0 0 0 0 0 0 0 0 0 0 0 0 0 0 0
1.58114 7.63288e-10 4.4284e-10 3.20448e-10 0.419826 0.18541 0 0 0 0 0 0 0 0 0 0 0 0 0 0 0 0 0 0 0 0 0 0 0 0 0 0 0 0 0 0 0 0 0 0 0 0 0 0 0 0 0 0
1.6623 6.76015e-10 4.0916e-10 2.66855e-10 0.394748 0.167809 0 0 0 0 0 0 0 0 0 0 0 0 0 0 0 0 0 0 0 0 0 0 0 0 0 0 0 0 0 0 0 0 0 0 0 0 0 0 0 0 0 0
1.74763 6.00146e-10 3.78453e-10 2.21693e-10 0.369398 0.152029 0 0 0 0 0 0 0 0 0 0 0 0 0 0 0 0 0 0 0 0 0 0 0 0 0 0 0 0 0 0 0 0 0 0 0 0 0 0 0 0 0 0
1.83733 5.34201e-10 3.50395e-10 1.83807e-10 0.344077 0.137853 0 0 0 0 0 0 0 0 0 0 0 0 0 0 0 0 0 0 0 0 0 0 0 0 0 0 0 0 0 0 0 0 0 0 0 0 0 0 0 0 0 0
1.93164 4.76895e-10 3.2474e-10 1.52155e-10 0.319054 0.125104 0 0 0 0 0 0 0 0 0 0 0 0 0 0 0 0 0 0 0 0 0 0 0 0 0 0 0 0 0 0 0 0 0 0 0 0 0 0 0 0 0 0
2.03079 4.27096e-10 3.01271e-10 1.25824e-10 0.294604 0.113632 0 0 0 0 0 0 0 0 0 0 0 0 0 0 0 0 0 0 0 0 0 0 0 0 0 0 0 0 0 0 0 0 0 0 0 0 0 0 0 0 0 0
2.13503 3.83729e-10 2.79777e-10 1.03951e-10 0.270898 0.103267 0 0 0 0 0 0 0 0 0 0 0 0 0 0 0 0 0 0 0 0 0 0 0 0 0 0 0 0 0 0 0 0 0 0 0 0 0 0 0 0 0 0
2.24463 3.45887e-10 2.60075e-10 8.58127e-11 0.248094 0.0939014 0 0 0 0 0 0 0 0 0 0 0 0 0 0 0 0 0 0 0 0 0 0 0 0 0 0 0 0 0 0 0 0 0 0 0 0 0 0 0 0 0 0
2.35984 3.1278e-10 2.41986e-10 7.07939e-11 0.226338 0.0854208 0 0 0 0 0 0 0 0 0 0 0 0 0 0 0 0 0 0 0 0 0 0 0 0 0 0 0 0 0 0 0 0 0 0 0 0 0 0 0 0 0 0
2.48097 2.83748e-10 2.25374e-10 5.83736e-11 0.205724 0.0777336 0 0 0 0 0 0 0 0 0 0 0 0 0 0 0 0 0 0 0 0 0 0 0 0 0 0 0 0 0 0 0 0 0 0 0 0 0 0 0 0 0 0
2.60832 2.5823e-10 2.1012e-10 4.81107e-11 0.186309 0.0707575 0 0 0 0 0 0 0 0 0 0 0 0 0 0 0 0 0 0 0 0 0 0 0 0 0 0 0 0 0 0 0 0 0 0 0 0 0 0 0 0 0 0
2.74221 2.35733e-10 1.96098e-10 3.96346e-11 0.168134 0.0644216 0 0 0 0 0 0 0 0 0 0 0 0 0 0 0 0 0 0 0 0 0 0 0 0 0 0 0 0 0 0 0 0 0 0 0 0 0 0 0 0 0 0
2.88297 2.1586e-10 1.83222e-10 3.26373e-11 0.151197 0.0586633 0 0 0 0 0 0 0 0 0 0 0 0 0 0 0 0 0 0 0 0 0 0 0 0 0 0 0 0 0 0 0 0 0 0 0 0 0 0 0 0 0 0
3.03095 1.98286e-10 1.71448e-10 2.6838e-11 0.13535 0.0534168 0 0 0 0 0 0 0 0 0 0 0 0 0 0 0 0 0 0 0 0 0 0 0 0 0 0 0 0 0 0 0 0 0 0 0 0 0 0 0 0 0 0
3.18653 1.83224e-10 1.61196e-10 2.20285e-11 0.120227 0.0486524 0 0 0 0 0 0 0 0 0 0 0 0 0 0 0 0 0 0 0 0 0 0 0 0 0 0 0 0 0 0 0 0 0 0 0 0 0 0 0 0 0 0
3.35009 1.77418e-10 1.59341e-10 1.80777e-11 0.101893 0.0443292 0 0 0 0 0 0 0 0 0 0 0 0 0 0 0 0 0 0 0 0 0 0 0 0 0 0 0 0 0 0 0 0 0 0 0 0 0 0 0 0 0 0
3.52205 1.61377e-10 1.4589e-10 1.54861e-11 0.0959627 0.0403943 0 0 0 0 0 0 0 0 0 0 0 0 0 0 0 0 0 0 0 0 0 0 0 0 0 0 0 0 0 0 0 0 0 0 0 0 0 0 0 0 0 0
3.70284 1.43304e-10 1.30782e-10 1.25229e-11 0.087387 0.0367814 0 0 0 0 0 0 0 0 0 0 0 0 0 0 0 0 0 0 0 0 0 0 0 0 0 0 0 0 0 0 0 0 0 0 0 0 0 0 0 0 0 0
3.89291 1.33036e-10 1.22753e-10 1.02824e-11 0.0772908 0.0335037 0 0 0 0 0 0 0 0 0 0 0 0 0 0 0 0 0 0 0 0 0 0 0 0 0 0 0 0 0 0 0 0 0 0 0 0 0 0 0 0 0 0
4.09273 1.23735e-10 1.15276e-10 8.4595e-12 0.0683677 0.030519 0 0 0 0 0 0 0 0 0 0 0 0 0 0 0 0 0 0 0 0 0 0 0 0 0 0 0 0 0 0 0 0 0 0 0 0 0 0 0 0 0 0
4.30281 1.15263e-10 1.083e-10 6.96326e-12 0.0604118 0.0277981 0 0 0 0 0 0 0 0 0 0 0 0 0 0 0 0 0 0 0 0 0 0 0 0 0 0 0 0 0 0 0 0 0 0 0 0 0 0 0 0 0 0
4.52368 1.07529e-10 1.01796e-10 5.73364e-12 0.0533216 0.0253199 0 0 0 0 0 0 0 0 0 0 0 0 0 0 0 0 0 0 0 0 0 0 0 0 0 0 0 0 0 0 0 0 0 0 0 0 0 0 0 0 0 0
4.75588 1.00451e-10 9.573e-11 4.72108e-12 0.0469988 0.0230605 0 0 0 0 0 0 0 0 0 0 0 0 0 0 0 0 0 0 0 0 0 0 0 0 0 0 0 0 0 0 0 0 0 0 0 0 0 0 0 0 0 0
5 9.39634e-11 9.00756e-11 3.88779e-12 0.0413756 0.0210004 0 0 0 0 0 0 0 0 0 0 0 0 0 0 0 0 0 0 0 0 0 0 0 0 0 0 0 0 0 0 0 0 0 0 0 0 0 0 0 0 0 0
5.25665 8.80079e-11 8.48068e-11 3.20109e-12 0.0363728 0.0191212 0 0 0 0 0 0 0 0 0 0 0 0 0 0 0 0 0 0 0 0 0 0 0 0 0 0 0 0 0 0 0 0 0 0 0 0 1.4013e-45 0 4.2039e-45 0 1.12104e-44 0
5.52648 8.25507e-11 7.99157e-11 2.63506e-12 0.0319205 0.0174049 0 0 0 0 0 0 0 0 0 0 0 0 0 0 0 0 0 0 0 0 0 0 0 0 0 0 0 0 1.4013e-45 0 4.2039e-45 0 1.68156e-44 0 5.60519e-44 0 1.70958e-43 0 4.98862e-43 0 1.36486e-42 0
5.81015 7.76321e-11 7.54644e-11 2.16775e-12 0.0279234 0.0158323 0 0 0 0 0 0 0 0 0 0 0 0 0 0 0 0 0 0 0 0 0 0 1.4013e-45 0 7.00649e-45 0 3.22299e-44 0 1.41531e-43 0 5.5071e-43 0 1.88194e-42 0 6.11246e-42 0 1.77194e-41 0 4.91561e-41 0 1.281e-40 0
6.10839 7.42243e-11 7.2443e-11 1.78132e-12 0.0239991 0.0143708 0 0 0 0 0 0 0 0 0 0 0 0 0 0 0 0 0 0 2.8026e-45 0 2.10195e-44 0 1.45735e-43 0 7.9874e-43 0 3.60554e-42 0 1.4879e-41 0 5.40229e-41 0 1.74034e-40 0 5.33669e-40 0 1.46878e-39 0 3.8767e-39 0 9.64092e-39 0
6.42193 6.9444e-11 6.79625e-11 1.48147e-12 0.0213333 0.0132049 0 0 0 0 0 0 0 0 0 0 0 0 0 0 2.8026e-45 0 3.08286e-44 0 3.13891e-43 0 2.3696e-42 0 1.46744e-41 0 7.41623e-41 0 3.11202e-40 0 1.19853e-39 0 4.08603e-39 0 1.24325e-38 0 3.6094e-38 0 9.45484e-38 0 2.38001e-37 0 5.66131e-37 0
6.75157 6.53096e-11 6.40954e-11 1.21423e-12 0.0185919 0.0119894 0 0 0 0 0 0 0 0 0 0 0 0 1.26117e-44 0 2.60642e-43 0 3.33089e-42 0 3.02386e-41 0 2.06727e-40 0 1.17096e-39 0 5.46785e-39 0 2.13925e-38 0 7.71395e-38 0 2.47699e-37 0 7.13816e-37 0 1.96727e-36 0 4.91658e-36 0 1.18308e-35 0 2.6976e-35 0
7.09813 6.21757e-11 6.1174e-11 1.00163e-12 0.0161098 0.010886 0 0 0 0 0 0 0 0 0 0 3.92364e-44 0 1.37748e-42 0 2.51813e-41 0 2.8488e-40 0 2.32196e-39 0 1.44518e-38 0 7.52137e-38 0 3.25758e-37 0 1.19238e-36 0 4.03864e-36 0 1.22503e-35 0 3.35247e-35 0 8.79319e-35 0 2.10147e-34 0 4.84456e-34 0 1.06106e-33 0
7.46248 5.92666e-11 5.84428e-11 8.23772e-13 0.0138994 0.00987586 0 0 0 0 0 0 0 0 5.88545e-44 0 4.13803e-42 0 1.21296e-40 0 1.92479e-39 0 1.93426e-38 0 1.42305e-37 0 8.10066e-37 0 3.88972e-36 0 1.56832e-35 0 5.38818e-35 0 1.71946e-34 0 4.94054e-34 0 1.28721e-33 0 3.22094e-33 0 7.37711e-33 0 1.6327e-32 0 3.44168e-32 0
7.84553 5.74514e-11 5.67617e-11 6.89719e-13 0.0120053 0.00911203 0 0 0 0 0 0 2.38221e-44 0 6.01858e-42 0 3.4614e-40 0 8.60392e-39 0 1.19293e-37 0 1.07108e-36 0 7.14842e-36 0 3.73794e-35 0 1.6625e-34 0 6.26202e-34 0 2.02559e-33 0 6.10798e-33 0 1.66686e-32 0 4.14446e-32 0 9.9164e-32 0 2.18115e-31 0 4.64367e-31 0 9.43869e-31 0
8.24824 5.129e-11 5.07235e-11 5.66542e-13 0.0110459 0.00830816 0 0 0 0 1.4013e-45 0 2.32195e-42 0 4.48704e-40 0 2.11723e-38 0 4.49864e-37 0 5.48588e-36 0 4.42499e-35 0 2.69186e-34 0 1.29837e-33 0 5.36886e-33 0 1.89546e-32 0 5.78975e-32 0 1.65426e-31 0 4.2985e-31 0 1.02228e-30 0 2.34401e-30 0 4.96109e-30 0 1.01796e-29 0 1.99867e-29 0
8.67162 4.89075e-11 4.84394e-11 4.68105e-13 0.00957123 0.00757976 0 0 0 0 1.00893e-43 0 1.90414e-40 0 2.84523e-38 0 1.11225e-36 0 2.03569e-35 0 2.19708e-34 0 1.60046e-33 0 8.91454e-33 0 3.98182e-32 0 1.53627e-31 0 5.09979e-31 0 1.47509e-30 0 4.00407e-30 0 9.93042e-30 0 2.26388e-29 0 4.98477e-29 0 1.0171e-28 0 2.01501e-28 0 3.82808e-28 0
9.11674 4.48452e-11 4.44608e-11 3.84394e-13 0.00857157 0.00689417 0 0 0 0 9.07621e-42 0 1.19271e-38 0 1.39569e-36 0 4.56187e-35 0 7.24453e-34 0 6.9615e-33 0 4.60252e-32 0 2.35741e-31 0 9.78773e-31 0 3.53539e-30 0 1.10683e-29 0 3.03968e-29 0 7.85844e-29 0 1.86442e-28 0 4.08277e-28 0 8.64988e-28 0 1.70454e-27 0 3.26606e-27 0 6.0134e-27 0
9.5847 4.21578e-11 4.18418e-11 3.16007e-13 0.00749582 0.0062669 0 0 1.4013e-45 0 6.65296e-40 0 6.15705e-37 0 5.71015e-35 0 1.57422e-33 0 2.18424e-32 0 1.87938e-31 0 1.13307e-30 0 5.35869e-30 0 2.07549e-29 0 7.04117e-29 0 2.08492e-28 0 5.45022e-28 0 1.34518e-27 0 3.05963e-27 0 6.44853e-27 0 1.31703e-26 0 2.5108e-26 0 4.66056e-26 0 8.32898e-26 0
10.0767 3.97312e-11 3.94712e-11 2.6005e-13 0.00654523 0.00570057 0 0 1.66755e-43 0 3.90389e-38 0 2.58837e-35 0 1.9242e-33 0 4.51171e-32 0 5.50564e-31 0 4.26467e-30 0 2.35523e-29 0 1.0325e-28 0 3.74316e-28 0 1.19636e-27 0 3.3596e-27 0 8.37986e-27 0 1.97901e-26 0 4.32424e-26 0 8.78805e-26 0 1.73335e-25 0 3.20199e-25 0 5.76675e-25 0 1.00178e-24 0
10.5939 3.74801e-11 3.72661e-11 2.14047e-13 0.00571095 0.00518645 0 0 1.45132e-41 0 1.8512e-36 0 8.93766e-34 0 5.38378e-32 0 1.08214e-30 0 1.16871e-29 0 8.19172e-29 0 4.16188e-28 0 1.69748e-27 0 5.77892e-27 0 1.74514e-26 0 4.65976e-26 0 1.11156e-25 0 2.51722e-25 0 5.29432e-25 0 1.03934e-24 0 1.98311e-24 0 3.55522e-24 0 6.22162e-24 0 1.05205e-23 0
11.1377 3.54607e-11 3.52844e-11 1.76227e-13 0.00496966 0.00471852 2.8026e-45 0 9.99696e-40 0 7.1828e-35 0 2.56467e-32 0 1.26472e-30 0 2.19566e-29 0 2.11121e-28 0 1.34558e-27 0 6.31479e-27 0 2.40474e-26 0 7.71138e-26 0 2.20638e-25 0 5.61551e-25 0 1.28388e-24 0 2.7937e-24 0 5.66637e-24 0 1.07633e-23 0 1.98994e-23 0 3.46722e-23 0 5.90407e-23 0 9.73074e-23 0
11.7094 3.34022e-11 3.32569e-11 1.45223e-13 0.00434772 0.00429738 2.85865e-43 0 5.49299e-38 0 2.28625e-33 0 6.1267e-31 0 2.49766e-29 0 3.77209e-28 0 3.24755e-27 0 1.89087e-26 0 8.22864e-26 0 2.93552e-25 0 8.89284e-25 0 2.41713e-24 0 5.87758e-24 0 1.29062e-23 0 2.70377e-23 0 5.29784e-23 0 9.75299e-23 0 1.74984e-22 0 2.96734e-22 0 4.92324e-22 0 7.91864e-22 0
12.3105 3.15358e-11 3.14162e-11 1.19567e-13 0.00379146 0.00391019 2.30444e-41 0 2.45025e-36 0 6.06725e-32 0 1.2375e-29 0 4.20949e-28 0 5.56818e-27 0 4.31556e-26 0 2.30562e-25 0 9.33838e-25 0 3.13083e-24 0 8.98492e-24 0 2.32579e-23 0 5.41538e-23 0 1.14433e-22 0 2.31228e-22 0 4.38437e-22 0 7.83439e-22 0 1.36607e-21 0 2.25757e-21 0 3.65418e-21 0 5.74265e-21 0
