# 0.000257326 3 85 : grain size, compostion index, size index
# This grain was stochastically heated: No
# Heating and cooling timescale: 4.10761e-05 6.72785e+13
# Ratio of heating to cooling to determine stochastic cutoff: 100
# Equilibrium emission is recorded even for those grains in the stochastic regime.
# Emission spectrum was computed for: 
# Type: IRSF
# Scales:  0.5 1 2 5 10
# Temperature: -1
# Wavelength  CExt  CAbs  CSca  Albedo G EqEm1 StEm1 EqEm2 StEm2 EqEm3 StEm3 EqEm4 StEm4 EqEm5 StEm5
0.05 4.23137e-07 1.78348e-07 2.44789e-07 0.578511 0.932444 0 0 0 0 0 0 0 0 0 0
0.0525665 4.23482e-07 1.76922e-07 2.46561e-07 0.582222 0.926739 0 0 0 0 0 0 0 0 0 0
0.0552647 4.2386e-07 1.74457e-07 2.49403e-07 0.588409 0.918023 0 0 0 0 0 0 0 0 0 0
0.0581015 4.24327e-07 1.7069e-07 2.53637e-07 0.59774 0.90448 0 0 0 0 0 0 0 0 0 0
0.0610839 4.24893e-07 1.66972e-07 2.57921e-07 0.607025 0.8893 0 0 0 0 0 0 0 0 0 0
0.0642193 4.255e-07 1.6451e-07 2.6099e-07 0.613372 0.876962 0 0 0 0 0 0 0 0 0 0
0.0675157 4.26123e-07 1.6329e-07 2.62833e-07 0.6168 0.868262 0 0 0 0 0 0 0 0 0 0
0.0709813 4.2675e-07 1.63081e-07 2.63669e-07 0.617853 0.86278 0 0 0 0 0 0 0 0 0 0
0.0746248 4.27375e-07 1.63713e-07 2.63662e-07 0.616933 0.860111 0 0 0 0 0 0 0 0 0 0
0.0784553 4.27967e-07 1.65279e-07 2.62688e-07 0.613804 0.860734 0 0 0 0 0 0 0 0 0 0
0.0824824 4.28479e-07 1.68139e-07 2.6034e-07 0.607592 0.866147 0 0 0 0 0 0 0 0 0 0
0.0867162 4.28889e-07 1.69405e-07 2.59483e-07 0.605013 0.86907 0 0 0 0 0 0 0 0 0 0
0.0911674 4.29506e-07 1.68248e-07 2.61258e-07 0.608276 0.862697 0 0 0 0 0 0 0 0 0 0
0.095847 4.30152e-07 1.68485e-07 2.61667e-07 0.608313 0.85945 0 0 0 0 0 0 0 0 0 0
0.100767 4.30721e-07 1.6939e-07 2.61331e-07 0.60673 0.858958 0 0 0 0 0 0 0 0 0 0
0.105939 4.31178e-07 1.7143e-07 2.59747e-07 0.602414 0.862742 0 0 0 0 0 0 0 0 0 0
0.111377 4.31587e-07 1.73458e-07 2.58129e-07 0.598093 0.867664 0 0 0 0 0 0 0 0 0 0
0.117094 4.32031e-07 1.74888e-07 2.57143e-07 0.595195 0.870736 0 0 0 0 0 0 0 0 0 0
0.123105 4.32501e-07 1.75967e-07 2.56534e-07 0.593141 0.872656 0 0 0 0 0 0 0 0 0 0
0.129424 4.32993e-07 1.76759e-07 2.56234e-07 0.591775 0.873565 0 0 0 0 0 0 0 0 0 0
0.136067 4.33507e-07 1.77232e-07 2.56275e-07 0.591166 0.873275 0 0 0 0 0 0 0 0 0 0
0.143051 4.34032e-07 1.77198e-07 2.56834e-07 0.59174 0.870928 0 0 0 0 0 0 0 0 0 0
0.150394 4.34434e-07 1.78078e-07 2.56356e-07 0.590092 0.872037 0 0 0 0 0 0 0 0 0 0
0.158114 4.34821e-07 1.80169e-07 2.54652e-07 0.585648 0.878265 0 0 0 0 0 0 0 0 0 0
0.16623 4.35302e-07 1.82556e-07 2.52746e-07 0.580623 0.885873 0 0 0 0 0 0 0 0 0 0
0.174762 4.35874e-07 1.84767e-07 2.51108e-07 0.576101 0.892778 0 0 0 0 0 0 0 0 0 0
0.183733 4.36505e-07 1.86814e-07 2.49691e-07 0.572023 0.898943 0 0 0 0 0 0 0 0 0 0
0.193164 4.37183e-07 1.88652e-07 2.48531e-07 0.568483 0.904162 0 0 0 0 0 0 0 0 0 0
0.203079 4.37901e-07 1.90319e-07 2.47582e-07 0.565384 0.908581 0 0 0 0 0 0 0 0 0 0
0.213503 4.38629e-07 1.91859e-07 2.4677e-07 0.562594 0.912405 0 0 0 0 0 0 0 0 0 0
0.224463 4.39522e-07 1.9319e-07 2.46332e-07 0.560453 0.915491 0 0 0 0 0 0 0 0 0 0
0.235984 4.40052e-07 1.94374e-07 2.45679e-07 0.558294 0.917737 0 0 0 0 0 0 0 0 0 0
0.248097 4.41049e-07 1.95463e-07 2.45586e-07 0.556823 0.919558 0 0 0 0 0 0 0 0 0 0
0.260832 4.41969e-07 1.96445e-07 2.45524e-07 0.555522 0.920907 0 0 0 0 0 0 0 0 0 0
0.274221 4.42747e-07 1.97365e-07 2.45382e-07 0.554226 0.921896 0 0 0 0 0 0 0 0 0 0
0.288297 4.43242e-07 1.98226e-07 2.45016e-07 0.552782 0.922536 0 0 0 0 0 0 0 0 0 0
0.303095 4.44162e-07 1.99027e-07 2.45134e-07 0.551903 0.923034 0 0 0 0 0 0 0 0 0 0
0.318653 4.46325e-07 1.99798e-07 2.46528e-07 0.552349 0.923779 0 0 0 0 0 0 0 0 0 0
0.335009 4.46459e-07 2.00516e-07 2.45943e-07 0.550874 0.923642 0 0 0 0 0 0 0 0 0 0
0.352205 4.46864e-07 2.01185e-07 2.45679e-07 0.549784 0.923438 0 0 0 0 0 0 0 0 0 0
0.370284 4.49917e-07 2.01865e-07 2.48052e-07 0.551328 0.923891 0 0 0 0 0 0 0 0 0 0
0.389291 4.47934e-07 2.02367e-07 2.45567e-07 0.548222 0.922462 0 0 0 0 0 0 0 0 0 0
0.409273 4.52863e-07 2.02906e-07 2.49957e-07 0.551948 0.923181 0 0 0 0 0 0 0 0 0 0
0.430281 4.50072e-07 2.03387e-07 2.46685e-07 0.548101 0.921228 0 0 0 0 0 0 0 0 0 0
0.452368 4.54668e-07 2.03731e-07 2.50937e-07 0.551913 0.921305 0 0 0 0 0 0 0 0 0 0
0.475588 4.5482e-07 2.03885e-07 2.50934e-07 0.551722 0.919731 0 0 0 0 0 0 0 0 0 0
0.5 4.52804e-07 2.04256e-07 2.48547e-07 0.548908 0.917464 0 0 0 0 0 0 0 0 0 0
0.525665 4.61876e-07 2.0435e-07 2.57526e-07 0.557565 0.918474 0 0 0 0 0 0 0 0 0 0
0.552647 4.56081e-07 2.04492e-07 2.51589e-07 0.551632 0.914258 0 0 0 0 0 0 0 0 0 0
0.581015 4.55867e-07 2.04122e-07 2.51745e-07 0.552234 0.911349 0 0 0 0 0 0 0 0 0 0
0.610839 4.68197e-07 2.03929e-07 2.64268e-07 0.564438 0.912712 0 0 0 0 0 0 0 0 0 0
0.642193 4.63824e-07 2.03847e-07 2.59977e-07 0.560508 0.908655 0 0 0 0 0 0 0 0 0 0
0.675157 4.55566e-07 2.03569e-07 2.51997e-07 0.553152 0.903125 0 0 0 0 0 0 0 0 0 0
0.709813 4.67249e-07 2.02661e-07 2.64587e-07 0.566266 0.903367 0 0 0 0 0 0 0 0 0 0
0.746248 4.79763e-07 2.027e-07 2.77063e-07 0.5775 0.903401 0 0 0 0 0 0 0 0 0 0
0.784553 4.69355e-07 2.01092e-07 2.68263e-07 0.571557 0.894469 0 0 0 0 0 0 0 0 0 0
0.824824 4.58084e-07 2.01435e-07 2.56649e-07 0.560266 0.885095 0 0 0 0 0 0 0 0 0 0
0.867162 4.65919e-07 1.99501e-07 2.66418e-07 0.571812 0.88408 0 0 0 0 0 0 0 0 0 0
0.911674 4.8798e-07 1.9806e-07 2.8992e-07 0.594122 0.888865 0 0 0 0 0 0 0 0 0 0
0.95847 4.96873e-07 1.97663e-07 2.9921e-07 0.602186 0.887888 0 0 0 0 0 0 0 0 0 0
1.00767 4.81392e-07 1.97621e-07 2.83771e-07 0.58948 0.877135 0 0 0 0 0 0 0 0 0 0
1.05939 4.61282e-07 1.96772e-07 2.6451e-07 0.573424 0.861912 0 0 0 0 0 0 0 0 0 0
1.11377 4.60898e-07 1.96103e-07 2.64795e-07 0.57452 0.854702 0 0 0 0 0 0 0 0 0 0
1.17094 4.84191e-07 1.95633e-07 2.88558e-07 0.595959 0.85739 0 0 0 0 0 0 0 0 0 0
1.23105 5.14353e-07 1.93556e-07 3.20797e-07 0.62369 0.858371 0 0 0 0 0 0 0 0 0 0
1.29424 5.2916e-07 1.9076e-07 3.38401e-07 0.639505 0.855941 0 0 0 0 0 0 0 0 0 0
1.36067 5.17965e-07 1.86756e-07 3.31209e-07 0.639443 0.84664 0 0 0 0 0 0 0 0 0 0
1.43051 4.86792e-07 1.81846e-07 3.04945e-07 0.626439 0.820374 0 0 0 0 0 0 0 0 0 0
1.50394 4.59186e-07 1.81988e-07 2.77198e-07 0.603672 0.79987 0 0 0 0 0 0 0 0 0 0
1.58114 4.54677e-07 1.82479e-07 2.72198e-07 0.598663 0.792174 0 0 0 0 0 0 0 0 0 0
1.6623 4.74173e-07 1.81547e-07 2.92626e-07 0.61713 0.798355 0 0 0 0 0 0 0 0 0 0
1.74762 4.9995e-07 1.78668e-07 3.21281e-07 0.642627 0.816821 0 0 0 0 0 0 0 0 0 0
1.83733 5.3822e-07 1.78128e-07 3.60092e-07 0.669043 0.83632 0 0 0 0 0 0 0 0 0 0
1.93164 5.81808e-07 1.81246e-07 4.00562e-07 0.688478 0.839723 0 0 0 0 0 0 0 0 0 0
2.03079 5.87448e-07 1.81617e-07 4.05831e-07 0.690838 0.846263 0 0 0 0 0 0 0 0 0 0
2.13503 5.83773e-07 1.76899e-07 4.06874e-07 0.696974 0.825675 0 0 0 0 0 0 0 0 0 0
2.24463 5.56905e-07 1.79556e-07 3.77349e-07 0.677583 0.812105 0 0 0 0 0 0 0 0 0 0
2.35984 5.22353e-07 1.76655e-07 3.45698e-07 0.661809 0.758959 0 0 0 0 0 0 0 0 0 0
2.48097 4.77854e-07 1.76328e-07 3.01526e-07 0.631001 0.711487 0 0 0 0 0 0 0 0 0 0
2.60832 4.61054e-07 1.7719e-07 2.83863e-07 0.615684 0.646846 0 0 0 0 0 0 0 0 0 0
2.74221 4.30274e-07 1.79748e-07 2.50526e-07 0.582247 0.557637 0 0 0 0 0 0 0 0 0 0
2.88297 4.46313e-07 1.69167e-07 2.77146e-07 0.620968 0.556798 0 0 0 0 0 0 0 0 0 0
3.03095 4.66178e-07 1.84217e-07 2.81961e-07 0.604835 0.535797 0 0 0 0 0 0 0 0 0 0
3.18653 4.72032e-07 1.60918e-07 3.11114e-07 0.659095 0.545728 0 0 0 0 0 0 0 0 0 0
3.35009 5.53511e-07 1.6379e-07 3.89721e-07 0.704089 0.600696 0 0 0 0 0 0 0 0 0 0
3.52205 6.0832e-07 1.77531e-07 4.30789e-07 0.708163 0.61596 0 0 0 0 0 0 0 0 0 0
3.70284 6.25973e-07 1.51088e-07 4.74885e-07 0.758635 0.653588 0 0 0 0 0 0 0 0 0 0
3.89291 7.20162e-07 1.49753e-07 5.70409e-07 0.792057 0.688742 0 0 0 0 0 0 0 0 0 0
4.09273 7.87397e-07 1.61634e-07 6.25763e-07 0.794723 0.694707 0 0 0 0 0 0 0 0 0 0
4.30281 7.71041e-07 1.44783e-07 6.26258e-07 0.812224 0.702864 0 0 0 0 0 0 0 0 0 0
4.52368 8.03422e-07 1.32175e-07 6.71247e-07 0.835485 0.731272 0 0 0 0 0 0 0 0 0 0
4.75588 8.55466e-07 1.36074e-07 7.19392e-07 0.840936 0.742615 0 0 0 0 0 0 0 0 0 0
5 8.42546e-07 1.36936e-07 7.05609e-07 0.837473 0.734416 0 0 0 0 0 0 0 0 0 0
5.25665 7.76757e-07 1.23205e-07 6.53552e-07 0.841386 0.724195 0 0 0 0 0 0 0 0 0 0
5.52648 7.40263e-07 1.15253e-07 6.2501e-07 0.844308 0.731505 0 0 0 0 0 0 0 0 0 0
5.81015 7.11399e-07 1.1673e-07 5.94669e-07 0.835915 0.744598 0 0 0 0 0 0 0 0 0 0
6.10839 6.48488e-07 1.1782e-07 5.30668e-07 0.818316 0.746501 0 0 0 0 0 0 0 0 0 0
6.42193 5.53149e-07 1.10582e-07 4.42567e-07 0.800087 0.727908 0 0 0 0 0 0 0 0 0 0
6.75157 4.57007e-07 9.97798e-08 3.57227e-07 0.781667 0.700126 0 0 0 0 0 0 0 0 0 0
7.09813 3.61425e-07 9.26423e-08 2.68783e-07 0.743675 0.686765 0 0 0 0 0 0 0 0 0 0
7.46248 2.52604e-07 9.85151e-08 1.54089e-07 0.610003 0.698203 0 0 0 0 0 0 0 0 1.4013e-45 0
7.84553 2.02962e-07 1.39318e-07 6.36439e-08 0.313575 0.694315 0 0 0 0 0 0 0 0 3.78351e-43 0
8.24824 2.60353e-07 2.03233e-07 5.71209e-08 0.219398 0.656499 0 0 0 0 0 0 0 0 7.7269e-41 0
8.67162 3.30954e-07 2.4719e-07 8.37641e-08 0.253099 0.617519 0 0 0 0 0 0 1.079e-43 0 1.01958e-38 0
9.11674 4.18973e-07 2.90162e-07 1.28811e-07 0.307445 0.578372 0 0 0 0 0 0 1.88839e-41 0 1.02025e-36 0
9.5847 5.03398e-07 3.25822e-07 1.77576e-07 0.352755 0.550647 0 0 0 0 0 0 2.44696e-39 0 7.76555e-35 0
10.0767 5.4058e-07 3.38168e-07 2.02412e-07 0.374435 0.519277 0 0 0 0 7.84727e-44 0 2.29591e-37 0 4.39257e-33 0
10.5939 5.69756e-07 3.42656e-07 2.271e-07 0.398592 0.480396 0 0 0 0 1.18858e-41 0 1.6675e-35 0 1.9714e-31 0
11.1377 5.81432e-07 3.41089e-07 2.40343e-07 0.413363 0.44448 0 0 1.26117e-44 0 1.35729e-39 0 9.54027e-34 0 7.13549e-30 0
11.7094 5.93092e-07 3.40837e-07 2.52255e-07 0.425322 0.412885 0 0 1.90997e-42 0 1.21921e-37 0 4.44119e-32 0 2.14894e-28 0
12.3105 6.06035e-07 3.41542e-07 2.64492e-07 0.436431 0.392837 1.4013e-45 0 2.34256e-40 0 8.71015e-36 0 1.69791e-30 0 5.42921e-27 0
12.9424 6.05737e-07 3.37568e-07 2.68168e-07 0.442714 0.387679 2.92871e-43 0 2.2131e-38 0 4.92261e-34 0 5.29434e-29 0 1.1416e-25 0
13.6067 5.56423e-07 3.11555e-07 2.44868e-07 0.440076 0.386067 3.52945e-41 0 1.54378e-36 0 2.10636e-32 0 1.28672e-27 0 1.90731e-24 0
14.3051 4.49527e-07 2.6478e-07 1.84747e-07 0.410981 0.347965 3.05501e-39 0 7.93073e-35 0 6.79791e-31 0 2.4247e-26 0 2.5164e-23 0
15.0394 3.87347e-07 2.50671e-07 1.36676e-07 0.352851 0.29119 2.32203e-37 0 3.66981e-33 0 2.02151e-29 0 4.32214e-25 0 3.19565e-22 0
15.8114 3.69896e-07 2.57876e-07 1.1202e-07 0.302842 0.245947 1.52931e-35 0 1.50755e-31 0 5.45322e-28 0 7.16583e-24 0 3.83759e-21 0
16.623 3.77344e-07 2.75043e-07 1.02301e-07 0.271109 0.2099 8.42021e-34 0 5.29791e-30 0 1.28455e-26 0 1.06237e-22 0 4.18638e-20 0
17.4762 3.97412e-07 2.94929e-07 1.02484e-07 0.257877 0.180709 3.79776e-32 0 1.55897e-28 0 2.58365e-25 0 1.3756e-21 0 4.04881e-19 0
18.3733 4.1815e-07 3.10901e-07 1.07249e-07 0.256485 0.157034 1.38594e-30 0 3.79e-27 0 4.37372e-24 0 1.53171e-20 0 3.41564e-18 0
19.3164 4.2678e-07 3.16036e-07 1.10744e-07 0.259487 0.138981 4.05224e-29 0 7.52985e-26 0 6.1587e-23 0 1.44799e-19 0 2.47977e-17 0
20.3079 4.13397e-07 3.06108e-07 1.07289e-07 0.25953 0.126826 9.46557e-28 0 1.21794e-24 0 7.17991e-22 0 1.15557e-18 0 1.53952e-16 0
21.3503 3.86893e-07 2.89133e-07 9.776e-08 0.25268 0.116883 1.82338e-26 0 1.65402e-23 0 7.14112e-21 0 8.0146e-18 0 8.40891e-16 0
22.4463 3.56373e-07 2.69428e-07 8.69452e-08 0.243972 0.108354 2.95459e-25 0 1.92201e-22 0 6.17047e-20 0 4.9149e-17 0 4.10871e-15 0
23.5984 3.22559e-07 2.47452e-07 7.51067e-08 0.232847 0.101179 4.05458e-24 0 1.92243e-21 0 4.65622e-19 0 2.67659e-16 0 1.8027e-14 0
24.8097 2.90081e-07 2.25868e-07 6.42128e-08 0.221362 0.0946216 4.78714e-23 0 1.68009e-20 0 3.1125e-18 0 1.31197e-15 0 7.19448e-14 0
26.0832 2.57709e-07 2.03789e-07 5.39197e-08 0.209227 0.0891215 4.87047e-22 0 1.28398e-19 0 1.84337e-17 0 5.78462e-15 0 2.6088e-13 0
27.4221 2.27568e-07 1.82605e-07 4.4963e-08 0.19758 0.0842982 4.31922e-21 0 8.67338e-19 0 9.77073e-17 0 2.31575e-14 0 8.6715e-13 0
28.8297 2.00491e-07 1.63227e-07 3.72643e-08 0.185865 0.0796789 3.3749e-20 0 5.23135e-18 0 4.67928e-16 0 8.49178e-14 0 2.66429e-12 0
30.3095 1.76098e-07 1.4535e-07 3.07479e-08 0.174607 0.0754251 2.3345e-19 0 2.82881e-17 0 2.03182e-15 0 2.86036e-13 0 7.58462e-12 0
31.8653 1.54222e-07 1.29045e-07 2.51762e-08 0.163247 0.0713201 1.43898e-18 0 1.37958e-16 0 8.04259e-15 0 8.89262e-13 0 2.00928e-11 0
33.5009 1.34919e-07 1.14304e-07 2.06157e-08 0.1528 0.0675115 7.95253e-18 0 6.10156e-16 0 2.91666e-14 0 2.56296e-12 0 4.97331e-11 0
35.2206 1.18486e-07 1.01676e-07 1.68099e-08 0.141872 0.0634312 3.98728e-17 0 2.47504e-15 0 9.79554e-14 0 6.91794e-12 0 1.16145e-10 0
37.0284 1.04029e-07 9.03232e-08 1.37054e-08 0.131746 0.0596045 1.81253e-16 0 9.19718e-15 0 3.04164e-13 0 1.74495e-11 0 2.55268e-10 0
38.9291 9.13205e-08 8.01351e-08 1.11854e-08 0.122485 0.0560393 7.5062e-16 0 3.14431e-14 0 8.76582e-13 0 4.1267e-11 0 5.29572e-10 0
40.9273 8.0142e-08 7.10008e-08 9.14122e-09 0.114063 0.0527231 2.8444e-15 0 9.92883e-14 0 2.35289e-12 0 9.17781e-11 0 1.0398e-09 0
43.0282 7.02688e-08 6.28177e-08 7.4511e-09 0.106037 0.0494944 9.90429e-15 0 2.9067e-13 0 5.90181e-12 0 1.92502e-10 0 1.9372e-09 0
45.2368 6.15558e-08 5.54829e-08 6.07286e-09 0.0986562 0.0464346 3.18091e-14 0 7.91545e-13 0 1.38746e-11 0 3.81749e-10 0 3.43209e-09 0
47.5588 5.40118e-08 4.9067e-08 4.94479e-09 0.0915502 0.0433959 9.48763e-14 0 2.01803e-12 0 3.07571e-11 0 7.19811e-10 0 5.81342e-09 0
50 4.73364e-08 4.33055e-08 4.03091e-09 0.0851547 0.0405581 2.62904e-13 0 4.81659e-12 0 6.42685e-11 0 1.28949e-09 0 9.40456e-09 0
52.5665 4.15474e-08 3.82648e-08 3.28262e-09 0.079009 0.037767 6.81362e-13 0 1.08307e-11 0 1.27344e-10 0 2.20703e-09 0 1.46082e-08 0
55.2648 3.64796e-08 3.3807e-08 2.6726e-09 0.0732628 0.0350872 1.65494e-12 0 2.29832e-11 0 2.39592e-10 0 3.61259e-09 0 2.18038e-08 0
58.1015 3.20574e-08 2.98794e-08 2.17792e-09 0.0679382 0.0325321 3.78091e-12 0 4.61782e-11 0 4.29332e-10 0 5.67032e-09 0 3.13476e-08 0
61.0839 2.82002e-08 2.6426e-08 1.77415e-09 0.0629126 0.0300822 8.15187e-12 0 8.81119e-11 0 7.34703e-10 0 8.55468e-09 0 4.35055e-08 0
64.2193 2.48206e-08 2.33754e-08 1.44519e-09 0.0582255 0.0277605 1.6626e-11 0 1.5999e-10 0 1.20281e-09 0 1.24234e-08 0 5.83571e-08 0
67.5157 2.1881e-08 2.07035e-08 1.1775e-09 0.0538139 0.0255585 3.21996e-11 0 2.77426e-10 0 1.89007e-09 0 1.74185e-08 0 7.58686e-08 0
70.9813 1.93142e-08 1.83542e-08 9.59943e-10 0.0497015 0.0234878 5.93512e-11 0 4.6032e-10 0 2.85565e-09 0 2.36126e-08 0 9.57187e-08 0
74.6248 1.70773e-08 1.62949e-08 7.82407e-10 0.0458156 0.0215374 1.04424e-10 0 7.32818e-10 0 4.15854e-09 0 3.10162e-08 0 1.17426e-07 0
78.4553 1.5113e-08 1.44752e-08 6.37794e-10 0.0422016 0.0197224 1.7564e-10 0 1.12074e-09 0 5.84302e-09 0 3.95075e-08 0 1.40162e-07 0
82.4824 1.33949e-08 1.28746e-08 5.20283e-10 0.0388418 0.0180363 2.83227e-10 0 1.65089e-09 0 7.94034e-09 0 4.89055e-08 0 1.63103e-07 0
86.7162 1.18929e-08 1.14684e-08 4.24479e-10 0.0356918 0.0164695 4.38918e-10 0 2.34741e-09 0 1.0457e-08 0 5.8936e-08 0 1.85334e-07 0
91.1674 1.05716e-08 1.02253e-08 3.46317e-10 0.0327592 0.0150218 6.54621e-10 0 3.22582e-09 0 1.33592e-08 0 6.91983e-08 0 2.05772e-07 0
95.847 9.4068e-09 9.12423e-09 2.82567e-10 0.0300386 0.0136884 9.41293e-10 0 4.291e-09 0 1.65794e-08 0 7.92532e-08 0 2.23469e-07 0
100.767 8.38456e-09 8.15381e-09 2.30751e-10 0.027521 0.0124633 1.30822e-09 0 5.53795e-09 0 2.0031e-08 0 8.87134e-08 0 2.37813e-07 0
105.939 7.49336e-09 7.30496e-09 1.88401e-10 0.0251424 0.0113345 1.76222e-09 0 6.95237e-09 0 2.36173e-08 0 9.72705e-08 0 2.48515e-07 0
111.377 6.69028e-09 6.53645e-09 1.53824e-10 0.0229922 0.0103041 2.2959e-09 0 8.47083e-09 0 2.71082e-08 0 1.04199e-07 0 2.54327e-07 0
117.094 5.97715e-09 5.8515e-09 1.25651e-10 0.0210219 0.00936438 2.9025e-09 0 1.00477e-08 0 3.03801e-08 0 1.09355e-07 0 2.55571e-07 0
123.105 5.35026e-09 5.24759e-09 1.02676e-10 0.0191909 0.00850465 3.57055e-09 0 1.16334e-08 0 3.33259e-08 0 1.12701e-07 0 2.52746e-07 0
129.424 4.80022e-09 4.71631e-09 8.39034e-11 0.0174791 0.00772021 4.28195e-09 0 1.31697e-08 0 3.58393e-08 0 1.1422e-07 0 2.4631e-07 0
136.067 4.29788e-09 4.22932e-09 6.85575e-11 0.0159515 0.00700692 4.99063e-09 0 1.45306e-08 0 3.76591e-08 0 1.13441e-07 0 2.35697e-07 0
143.051 3.86541e-09 3.80936e-09 5.60431e-11 0.0144986 0.00635501 5.69797e-09 0 1.57474e-08 0 3.89625e-08 0 1.11247e-07 0 2.23121e-07 0
150.394 3.46438e-09 3.41856e-09 4.58197e-11 0.013226 0.00576396 6.32946e-09 0 1.66467e-08 0 3.94111e-08 0 1.06948e-07 0 2.07435e-07 0
158.114 3.12737e-09 3.08991e-09 3.74549e-11 0.0119765 0.00522399 6.92316e-09 0 1.73702e-08 0 3.94366e-08 0 1.01974e-07 0 1.91606e-07 0
166.23 2.81232e-09 2.78171e-09 3.06147e-11 0.0108859 0.00473457 7.38194e-09 0 1.77101e-08 0 3.86396e-08 0 9.54394e-08 0 1.74014e-07 0
174.763 2.51779e-09 2.49275e-09 2.50438e-11 0.00994674 0.00429215 7.67646e-09 0 1.76494e-08 0 3.70793e-08 0 8.7692e-08 0 1.55399e-07 0
183.733 2.27362e-09 2.25313e-09 2.04835e-11 0.00900921 0.00388885 7.89692e-09 0 1.74369e-08 0 3.53425e-08 0 8.02127e-08 0 1.38365e-07 0
193.164 2.04566e-09 2.02891e-09 1.67507e-11 0.0081884 0.0035233 7.94524e-09 0 1.68829e-08 0 3.30749e-08 0 7.21948e-08 0 1.21401e-07 0
203.079 1.83816e-09 1.82445e-09 1.37017e-11 0.00745406 0.00319218 7.84405e-09 0 1.60715e-08 0 3.04857e-08 0 6.41311e-08 0 1.05276e-07 0
213.503 1.65902e-09 1.6478e-09 1.12128e-11 0.00675869 0.00289207 7.64974e-09 0 1.51407e-08 0 2.78555e-08 0 5.6587e-08 0 9.08043e-08 0
224.463 1.49041e-09 1.48124e-09 9.17425e-12 0.00615551 0.00262012 7.30871e-09 0 1.39992e-08 0 2.50204e-08 0 4.9177e-08 0 7.72394e-08 0
235.984 1.34384e-09 1.33634e-09 7.5049e-12 0.00558467 0.00237318 6.90397e-09 0 1.28193e-08 0 2.22926e-08 0 4.24703e-08 0 6.53705e-08 0
248.097 1.2069e-09 1.20076e-09 6.14481e-12 0.0050914 0.00215103 6.40377e-09 0 1.15457e-08 0 1.95643e-08 0 3.61914e-08 0 5.46551e-08 0
260.832 1.07223e-09 1.0672e-09 5.02903e-12 0.00469027 0.0019485 5.79666e-09 0 1.0164e-08 0 1.68064e-08 0 3.02385e-08 0 4.48537e-08 0
274.221 9.51206e-10 9.47092e-10 4.11358e-12 0.0043246 0.00176383 5.17298e-09 0 8.83455e-09 0 1.42743e-08 0 2.50195e-08 0 3.64913e-08 0
288.297 8.48182e-10 8.44819e-10 3.36338e-12 0.0039654 0.00159556 4.58448e-09 0 7.63692e-09 0 1.2073e-08 0 2.06459e-08 0 2.96385e-08 0
303.095 7.5501e-10 7.52258e-10 2.75174e-12 0.00364465 0.00144345 4.00976e-09 0 6.52426e-09 0 1.0104e-08 0 1.68827e-08 0 2.38775e-08 0
318.653 6.78936e-10 6.76685e-10 2.25077e-12 0.00331514 0.0013055 3.50496e-09 0 5.5777e-09 0 8.47231e-09 0 1.38507e-08 0 1.9317e-08 0
335.009 6.06666e-10 6.04826e-10 1.84053e-12 0.00303385 0.00118062 3.01337e-09 0 4.69604e-09 0 7.00412e-09 0 1.1218e-08 0 1.54409e-08 0
352.206 5.40629e-10 5.39124e-10 1.50538e-12 0.00278449 0.00106771 2.55898e-09 0 3.91001e-09 0 5.73247e-09 0 9.00605e-09 0 1.22442e-08 0
370.284 4.88188e-10 4.86956e-10 1.23169e-12 0.00252299 0.00096563 2.18219e-09 0 3.27291e-09 0 4.72156e-09 0 7.28478e-09 0 9.79001e-09 0
389.291 4.38408e-10 4.374e-10 1.00749e-12 0.00229807 0.000873222 1.83486e-09 0 2.70428e-09 0 3.84247e-09 0 5.82856e-09 0 7.74836e-09 0
409.273 3.95187e-10 3.94363e-10 8.2391e-13 0.00208486 0.000789565 1.53623e-09 0 2.2272e-09 0 3.1198e-09 0 4.65748e-09 0 6.1288e-09 0
430.282 3.57785e-10 3.57111e-10 6.74129e-13 0.00188418 0.000714001 1.28208e-09 0 1.83023e-09 0 2.52963e-09 0 3.72034e-09 0 4.84905e-09 0
452.368 3.23051e-10 3.22499e-10 5.51559e-13 0.00170734 0.000645664 1.05952e-09 0 1.4907e-09 0 2.03462e-09 0 2.95062e-09 0 3.81151e-09 0
475.588 2.94012e-10 2.93561e-10 4.51215e-13 0.00153468 0.000583904 8.76696e-10 0 1.21676e-09 0 1.64126e-09 0 2.34904e-09 0 3.00902e-09 0
500 2.66439e-10 2.6607e-10 3.69073e-13 0.00138521 0.000528021 7.17781e-10 0 9.83529e-10 0 1.31206e-09 0 1.85483e-09 0 2.35731e-09 0
525.665 2.43322e-10 2.4302e-10 3.0211e-13 0.0012416 0.000477656 5.88744e-10 0 7.97081e-10 0 1.05235e-09 0 1.47057e-09 0 1.8552e-09 0
552.648 2.21729e-10 2.21482e-10 2.47226e-13 0.00111499 0.000432055 4.79192e-10 0 6.41487e-10 0 8.38726e-10 0 1.15939e-09 0 1.45253e-09 0
