# 8.9125e-05 1 136 : grain size, compostion index, size index
# Heating and cooling timescale: 0.000341552 2.49744e+08
# Ratio of heating to cooling to determine stochastic cutoff: 100
# Equilibrium emission is recorded even for those grains in the stochastic regime.
# Emission spectrum was computed for: 
# Type: IRSF
# Scales: 0.25 0.5 1 1.5 2 2.5 3 3.5 4 4.5 5 5.5 6 6.5 7 7.5 8 8.5 9 9.5 10
# StochasticallyHeated: 0 0 0 0 0 0 0 0 0 0 0 0 0 0 0 0 0 0 0 0 0
# Temperature: -1
# Wavelength  CExt  CAbs  CSca  Albedo G EqEm1 StEm1 EqEm2 StEm2 EqEm3 StEm3 EqEm4 StEm4 EqEm5 StEm5 EqEm6 StEm6 EqEm7 StEm7 EqEm8 StEm8 EqEm9 StEm9 EqEm10 StEm10 EqEm11 StEm11 EqEm12 StEm12 EqEm13 StEm13 EqEm14 StEm14 EqEm15 StEm15 EqEm16 StEm16 EqEm17 StEm17 EqEm18 StEm18 EqEm19 StEm19 EqEm20 StEm20 EqEm21 StEm21
0.05 1.32033e-08 5.87475e-09 7.32851e-09 0.555053 0.214828 0 0 0 0 0 0 0 0 0 0 0 0 0 0 0 0 0 0 0 0 0 0 0 0 0 0 0 0 0 0 0 0 0 0 0 0 0 0 0 0 0 0
0.0525665 1.45935e-08 6.49333e-09 8.10017e-09 0.555053 0.237448 0 0 0 0 0 0 0 0 0 0 0 0 0 0 0 0 0 0 0 0 0 0 0 0 0 0 0 0 0 0 0 0 0 0 0 0 0 0 0 0 0 0
0.0552647 1.61301e-08 7.17705e-09 8.95308e-09 0.555053 0.26245 0 0 0 0 0 0 0 0 0 0 0 0 0 0 0 0 0 0 0 0 0 0 0 0 0 0 0 0 0 0 0 0 0 0 0 0 0 0 0 0 0 0
0.0581015 1.78286e-08 7.93276e-09 9.89579e-09 0.555053 0.290085 0 0 0 0 0 0 0 0 0 0 0 0 0 0 0 0 0 0 0 0 0 0 0 0 0 0 0 0 0 0 0 0 0 0 0 0 0 0 0 0 0 0
0.0610839 1.97058e-08 8.76804e-09 1.09378e-08 0.555053 0.32063 0 0 0 0 0 0 0 0 0 0 0 0 0 0 0 0 0 0 0 0 0 0 0 0 0 0 0 0 0 0 0 0 0 0 0 0 0 0 0 0 0 0
0.0642193 2.17807e-08 9.69127e-09 1.20895e-08 0.555053 0.35439 0 0 0 0 0 0 0 0 0 0 0 0 0 0 0 0 0 0 0 0 0 0 0 0 0 0 0 0 0 0 0 0 0 0 0 0 0 0 0 0 0 0
0.0675157 2.40741e-08 1.07117e-08 1.33624e-08 0.555053 0.391706 0 0 0 0 0 0 0 0 0 0 0 0 0 0 0 0 0 0 0 0 0 0 0 0 0 0 0 0 0 0 0 0 0 0 0 0 0 0 0 0 0 0
0.0709813 2.6609e-08 1.18396e-08 1.47694e-08 0.555053 0.432951 0 0 0 0 0 0 0 0 0 0 0 0 0 0 0 0 0 0 0 0 0 0 0 0 0 0 0 0 0 0 0 0 0 0 0 0 0 0 0 0 0 0
0.0746248 2.94108e-08 1.30863e-08 1.63246e-08 0.555053 0.478538 0 0 0 0 0 0 0 0 0 0 0 0 0 0 0 0 0 0 0 0 0 0 0 0 0 0 0 0 0 0 0 0 0 0 0 0 0 0 0 0 0 0
0.0784553 3.25076e-08 1.44642e-08 1.80435e-08 0.555053 0.528926 0 0 0 0 0 0 0 0 0 0 0 0 0 0 0 0 0 0 0 0 0 0 0 0 0 0 0 0 0 0 0 0 0 0 0 0 0 0 0 0 0 0
0.0824824 3.59305e-08 1.59872e-08 1.99434e-08 0.555053 0.58462 0 0 0 0 0 0 0 0 0 0 0 0 0 0 0 0 0 0 0 0 0 0 0 0 0 0 0 0 0 0 0 0 0 0 0 0 0 0 0 0 0 0
0.0867162 3.97139e-08 1.76706e-08 2.20433e-08 0.555053 0.646177 0 0 0 0 0 0 0 0 0 0 0 0 0 0 0 0 0 0 0 0 0 0 0 0 0 0 0 0 0 0 0 0 0 0 0 0 0 0 0 0 0 0
0.0911674 4.38956e-08 1.95312e-08 2.43644e-08 0.555053 0.714217 0 0 0 0 0 0 0 0 0 0 0 0 0 0 0 0 0 0 0 0 0 0 0 0 0 0 0 0 0 0 0 0 0 0 0 0 0 0 0 0 0 0
0.095847 4.85175e-08 2.15877e-08 2.69298e-08 0.555053 0.78942 0 0 0 0 0 0 0 0 0 0 0 0 0 0 0 0 0 0 0 0 0 0 0 0 0 0 0 0 0 0 0 0 0 0 0 0 0 0 0 0 0 0
0.100767 5.28336e-08 2.35117e-08 2.93219e-08 0.554986 0.859322 0 0 0 0 0 0 0 0 0 0 0 0 0 0 0 0 0 0 0 0 0 0 0 0 0 0 0 0 0 0 0 0 0 0 0 0 0 0 0 0 0 0
0.105939 5.29739e-08 2.35986e-08 2.93753e-08 0.554524 0.862845 0 0 0 0 0 0 0 0 0 0 0 0 0 0 0 0 0 0 0 0 0 0 0 0 0 0 0 0 0 0 0 0 0 0 0 0 0 0 0 0 0 0
0.111377 5.31151e-08 2.36999e-08 2.94153e-08 0.553802 0.867438 0 0 0 0 0 0 0 0 0 0 0 0 0 0 0 0 0 0 0 0 0 0 0 0 0 0 0 0 0 0 0 0 0 0 0 0 0 0 0 0 0 0
0.117094 5.3258e-08 2.37975e-08 2.94605e-08 0.553166 0.870289 0 0 0 0 0 0 0 0 0 0 0 0 0 0 0 0 0 0 0 0 0 0 0 0 0 0 0 0 0 0 0 0 0 0 0 0 0 0 0 0 0 0
0.123105 5.33998e-08 2.39223e-08 2.94775e-08 0.552015 0.871985 0 0 0 0 0 0 0 0 0 0 0 0 0 0 0 0 0 0 0 0 0 0 0 0 0 0 0 0 0 0 0 0 0 0 0 0 0 0 0 0 0 0
0.129424 5.35364e-08 2.40596e-08 2.94769e-08 0.550594 0.872673 0 0 0 0 0 0 0 0 0 0 0 0 0 0 0 0 0 0 0 0 0 0 0 0 0 0 0 0 0 0 0 0 0 0 0 0 0 0 0 0 0 0
0.136067 5.36825e-08 2.4165e-08 2.95175e-08 0.549853 0.872174 0 0 0 0 0 0 0 0 0 0 0 0 0 0 0 0 0 0 0 0 0 0 0 0 0 0 0 0 0 0 0 0 0 0 0 0 0 0 0 0 0 0
0.143051 5.38303e-08 2.43209e-08 2.95094e-08 0.548193 0.869689 0 0 0 0 0 0 0 0 0 0 0 0 0 0 0 0 0 0 0 0 0 0 0 0 0 0 0 0 0 0 0 0 0 0 0 0 0 0 0 0 0 0
0.150394 5.39906e-08 2.4552e-08 2.94386e-08 0.545255 0.870498 0 0 0 0 0 0 0 0 0 0 0 0 0 0 0 0 0 0 0 0 0 0 0 0 0 0 0 0 0 0 0 0 0 0 0 0 0 0 0 0 0 0
0.158114 5.41788e-08 2.48482e-08 2.93306e-08 0.541366 0.876297 0 0 0 0 0 0 0 0 0 0 0 0 0 0 0 0 0 0 0 0 0 0 0 0 0 0 0 0 0 0 0 0 0 0 0 0 0 0 0 0 0 0
0.16623 5.43993e-08 2.51656e-08 2.92336e-08 0.53739 0.883522 0 0 0 0 0 0 0 0 0 0 0 0 0 0 0 0 0 0 0 0 0 0 0 0 0 0 0 0 0 0 0 0 0 0 0 0 0 0 0 0 0 0
0.174762 5.46254e-08 2.54621e-08 2.91633e-08 0.533878 0.890071 0 0 0 0 0 0 0 0 0 0 0 0 0 0 0 0 0 0 0 0 0 0 0 0 0 0 0 0 0 0 0 0 0 0 0 0 0 0 0 0 0 0
0.183733 5.48532e-08 2.5596e-08 2.92571e-08 0.533372 0.895849 0 0 0 0 0 0 0 0 0 0 0 0 0 0 0 0 0 0 0 0 0 0 0 0 0 0 0 0 0 0 0 0 0 0 0 0 0 0 0 0 0 0
0.193164 5.55392e-08 2.5158e-08 3.03812e-08 0.547023 0.900279 0 0 0 0 0 0 0 0 0 0 0 0 0 0 0 0 0 0 0 0 0 0 0 0 0 0 0 0 0 0 0 0 0 0 0 0 0 0 0 0 0 0
0.203079 5.56619e-08 2.52891e-08 3.03727e-08 0.545665 0.90166 0 0 0 0 0 0 0 0 0 0 0 0 0 0 0 0 0 0 0 0 0 0 0 0 0 0 0 0 0 0 0 0 0 0 0 0 0 0 0 0 0 0
0.213503 5.55355e-08 2.55847e-08 2.99507e-08 0.539308 0.894684 0 0 0 0 0 0 0 0 0 0 0 0 0 0 0 0 0 0 0 0 0 0 0 0 0 0 0 0 0 0 0 0 0 0 0 0 0 0 0 0 0 0
0.224463 5.54493e-08 2.58015e-08 2.96477e-08 0.534682 0.891338 0 0 0 0 0 0 0 0 0 0 0 0 0 0 0 0 0 0 0 0 0 0 0 0 0 0 0 0 0 0 0 0 0 0 0 0 0 0 0 0 0 0
0.235984 5.5395e-08 2.60267e-08 2.93683e-08 0.530162 0.887396 0 0 0 0 0 0 0 0 0 0 0 0 0 0 0 0 0 0 0 0 0 0 0 0 0 0 0 0 0 0 0 0 0 0 0 0 0 0 0 0 0 0
0.248097 5.53998e-08 2.62357e-08 2.91641e-08 0.526429 0.890631 0 0 0 0 0 0 0 0 0 0 0 0 0 0 0 0 0 0 0 0 0 0 0 0 0 0 0 0 0 0 0 0 0 0 0 0 0 0 0 0 0 0
0.260832 5.54885e-08 2.64352e-08 2.90533e-08 0.523591 0.884169 0 0 0 0 0 0 0 0 0 0 0 0 0 0 0 0 0 0 0 0 0 0 0 0 0 0 0 0 0 0 0 0 0 0 0 0 0 0 0 0 0 0
0.274221 5.56313e-08 2.66188e-08 2.90125e-08 0.521514 0.887149 0 0 0 0 0 0 0 0 0 0 0 0 0 0 0 0 0 0 0 0 0 0 0 0 0 0 0 0 0 0 0 0 0 0 0 0 0 0 0 0 0 0
0.288297 5.58203e-08 2.67904e-08 2.90299e-08 0.52006 0.884926 0 0 0 0 0 0 0 0 0 0 0 0 0 0 0 0 0 0 0 0 0 0 0 0 0 0 0 0 0 0 0 0 0 0 0 0 0 0 0 0 0 0
0.303095 5.60432e-08 2.69572e-08 2.9086e-08 0.518993 0.873481 0 0 0 0 0 0 0 0 0 0 0 0 0 0 0 0 0 0 0 0 0 0 0 0 0 0 0 0 0 0 0 0 0 0 0 0 0 0 0 0 0 0
0.318653 5.62996e-08 2.71217e-08 2.91779e-08 0.518261 0.871731 0 0 0 0 0 0 0 0 0 0 0 0 0 0 0 0 0 0 0 0 0 0 0 0 0 0 0 0 0 0 0 0 0 0 0 0 0 0 0 0 0 0
0.335009 5.65777e-08 2.72847e-08 2.92931e-08 0.517749 0.877178 0 0 0 0 0 0 0 0 0 0 0 0 0 0 0 0 0 0 0 0 0 0 0 0 0 0 0 0 0 0 0 0 0 0 0 0 0 0 0 0 0 0
0.352205 5.69062e-08 2.74383e-08 2.94679e-08 0.517833 0.874125 0 0 0 0 0 0 0 0 0 0 0 0 0 0 0 0 0 0 0 0 0 0 0 0 0 0 0 0 0 0 0 0 0 0 0 0 0 0 0 0 0 0
0.370284 5.74955e-08 2.75307e-08 2.99648e-08 0.521168 0.861593 0 0 0 0 0 0 0 0 0 0 0 0 0 0 0 0 0 0 0 0 0 0 0 0 0 0 0 0 0 0 0 0 0 0 0 0 0 0 0 0 0 0
0.389291 5.88952e-08 2.76426e-08 3.12526e-08 0.530648 0.848539 0 0 0 0 0 0 0 0 0 0 0 0 0 0 0 0 0 0 0 0 0 0 0 0 0 0 0 0 0 0 0 0 0 0 0 0 0 0 0 0 0 0
0.409273 6.04763e-08 2.77157e-08 3.27606e-08 0.54171 0.845073 0 0 0 0 0 0 0 0 0 0 0 0 0 0 0 0 0 0 0 0 0 0 0 0 0 0 0 0 0 0 0 0 0 0 0 0 0 0 0 0 0 0
0.430281 6.13982e-08 2.78116e-08 3.35866e-08 0.547029 0.848171 0 0 0 0 0 0 0 0 0 0 0 0 0 0 0 0 0 0 0 0 0 0 0 0 0 0 0 0 0 0 0 0 0 0 0 0 0 0 0 0 0 0
0.452368 6.13268e-08 2.78899e-08 3.34369e-08 0.545225 0.847614 0 0 0 0 0 0 0 0 0 0 0 0 0 0 0 0 0 0 0 0 0 0 0 0 0 0 0 0 0 0 0 0 0 0 0 0 0 0 0 0 0 0
0.475588 6.06058e-08 2.79602e-08 3.26455e-08 0.538654 0.836219 0 0 0 0 0 0 0 0 0 0 0 0 0 0 0 0 0 0 0 0 0 0 0 0 0 0 0 0 0 0 0 0 0 0 0 0 0 0 0 0 0 0
0.5 5.98704e-08 2.79854e-08 3.1885e-08 0.532567 0.812417 0 0 0 0 0 0 0 0 0 0 0 0 0 0 0 0 0 0 0 0 0 0 0 0 0 0 0 0 0 0 0 0 0 0 0 0 0 0 0 0 0 0
0.525665 5.97365e-08 2.80609e-08 3.16756e-08 0.530255 0.795485 0 0 0 0 0 0 0 0 0 0 0 0 0 0 0 0 0 0 0 0 0 0 0 0 0 0 0 0 0 0 0 0 0 0 0 0 0 0 0 0 0 0
0.552648 6.02928e-08 2.80542e-08 3.22386e-08 0.534701 0.783981 0 0 0 0 0 0 0 0 0 0 0 0 0 0 0 0 0 0 0 0 0 0 0 0 0 0 0 0 0 0 0 0 0 0 0 0 0 0 0 0 0 0
0.581015 6.13149e-08 2.79992e-08 3.33157e-08 0.543355 0.791209 0 0 0 0 0 0 0 0 0 0 0 0 0 0 0 0 0 0 0 0 0 0 0 0 0 0 0 0 0 0 0 0 0 0 0 0 0 0 0 0 0 0
0.610839 6.25706e-08 2.79107e-08 3.46599e-08 0.553933 0.805544 0 0 0 0 0 0 0 0 0 0 0 0 0 0 0 0 0 0 0 0 0 0 0 0 0 0 0 0 0 0 0 0 0 0 0 0 0 0 0 0 0 0
0.642193 6.35483e-08 2.78785e-08 3.56698e-08 0.561302 0.828649 0 0 0 0 0 0 0 0 0 0 0 0 0 0 0 0 0 0 0 0 0 0 0 0 0 0 0 0 0 0 0 0 0 0 0 0 0 0 0 0 0 0
0.675157 6.37995e-08 2.76435e-08 3.6156e-08 0.566712 0.827156 0 0 0 0 0 0 0 0 0 0 0 0 0 0 0 0 0 0 0 0 0 0 0 0 0 0 0 0 0 0 0 0 0 0 0 0 0 0 0 0 0 0
0.709813 6.3442e-08 2.75313e-08 3.59108e-08 0.566041 0.837677 0 0 0 0 0 0 0 0 0 0 0 0 0 0 0 0 0 0 0 0 0 0 0 0 0 0 0 0 0 0 0 0 0 0 0 0 0 0 0 0 0 0
0.746248 6.27014e-08 2.71283e-08 3.55731e-08 0.567342 0.806333 0 0 0 0 0 0 0 0 0 0 0 0 0 0 0 0 0 0 0 0 0 0 0 0 0 0 0 0 0 0 0 0 0 0 0 0 0 0 0 0 0 0
0.784553 6.15969e-08 2.70488e-08 3.45482e-08 0.560875 0.795154 0 0 0 0 0 0 0 0 0 0 0 0 0 0 0 0 0 0 0 0 0 0 0 0 0 0 0 0 0 0 0 0 0 0 0 0 0 0 0 0 0 0
0.824824 6.11167e-08 2.65387e-08 3.4578e-08 0.56577 0.738056 0 0 0 0 0 0 0 0 0 0 0 0 0 0 0 0 0 0 0 0 0 0 0 0 0 0 0 0 0 0 0 0 0 0 0 0 0 0 0 0 0 0
0.867162 6.10528e-08 2.62723e-08 3.47805e-08 0.569679 0.683355 0 0 0 0 0 0 0 0 0 0 0 0 0 0 0 0 0 0 0 0 0 0 0 0 0 0 0 0 0 0 0 0 0 0 0 0 0 0 0 0 0 0
0.911674 6.18071e-08 2.56351e-08 3.6172e-08 0.58524 0.628804 0 0 0 0 0 0 0 0 0 0 0 0 0 0 0 0 0 0 0 0 0 0 0 0 0 0 0 0 0 0 0 0 0 0 0 0 0 0 0 0 0 0
0.95847 6.40838e-08 2.55309e-08 3.8553e-08 0.601602 0.542892 0 0 0 0 0 0 0 0 0 0 0 0 0 0 0 0 0 0 0 0 0 0 0 0 0 0 0 0 0 0 0 0 0 0 0 0 0 0 0 0 0 0
1.00767 6.6427e-08 2.48155e-08 4.16115e-08 0.626424 0.517851 0 0 0 0 0 0 0 0 0 0 0 0 0 0 0 0 0 0 0 0 0 0 0 0 0 0 0 0 0 0 0 0 0 0 0 0 0 0 0 0 0 0
1.05939 7.08023e-08 2.44857e-08 4.63166e-08 0.654168 0.508244 0 0 0 0 0 0 0 0 0 0 0 0 0 0 0 0 0 0 0 0 0 0 0 0 0 0 0 0 0 0 0 0 0 0 0 0 0 0 0 0 0 0
1.11377 7.47927e-08 2.44181e-08 5.03745e-08 0.673522 0.480729 0 0 0 0 0 0 0 0 0 0 0 0 0 0 0 0 0 0 0 0 0 0 0 0 0 0 0 0 0 0 0 0 0 0 0 0 0 0 0 0 0 0
1.17094 7.84308e-08 2.41839e-08 5.42469e-08 0.691653 0.539868 0 0 0 0 0 0 0 0 0 0 0 0 0 0 0 0 0 0 0 0 0 0 0 0 0 0 0 0 0 0 0 0 0 0 0 0 0 0 0 0 0 0
1.23105 8.28101e-08 2.40951e-08 5.8715e-08 0.709032 0.566907 0 0 0 0 0 0 0 0 0 0 0 0 0 0 0 0 0 0 0 0 0 0 0 0 0 0 0 0 0 0 0 0 0 0 0 0 0 0 0 0 0 0
1.29424 8.62735e-08 2.39137e-08 6.23598e-08 0.722815 0.583303 0 0 0 0 0 0 0 0 0 0 0 0 0 0 0 0 0 0 0 0 0 0 0 0 0 0 0 0 0 0 0 0 0 0 0 0 0 0 0 0 0 0
1.36067 8.87888e-08 2.36927e-08 6.50961e-08 0.733156 0.631592 0 0 0 0 0 0 0 0 0 0 0 0 0 0 0 0 0 0 0 0 0 0 0 0 0 0 0 0 0 0 0 0 0 0 0 0 0 0 0 0 0 0
1.43051 9.07176e-08 2.3238e-08 6.74797e-08 0.743843 0.649211 0 0 0 0 0 0 0 0 0 0 0 0 0 0 0 0 0 0 0 0 0 0 0 0 0 0 0 0 0 0 0 0 0 0 0 0 0 0 0 0 0 0
1.50394 9.17053e-08 2.2735e-08 6.89703e-08 0.752086 0.643016 0 0 0 0 0 0 0 0 0 0 0 0 0 0 0 0 0 0 0 0 0 0 0 0 0 0 0 0 0 0 0 0 0 0 0 0 0 0 0 0 0 0
1.58114 9.22158e-08 2.24992e-08 6.97166e-08 0.756016 0.670278 0 0 0 0 0 0 0 0 0 0 0 0 0 0 0 0 0 0 0 0 0 0 0 0 0 0 0 0 0 0 0 0 0 0 0 0 0 0 0 0 0 0
1.6623 9.20299e-08 2.25228e-08 6.95071e-08 0.755267 0.695067 0 0 0 0 0 0 0 0 0 0 0 0 0 0 0 0 0 0 0 0 0 0 0 0 0 0 0 0 0 0 0 0 0 0 0 0 0 0 0 0 0 0
1.74763 9.03514e-08 2.22445e-08 6.81069e-08 0.753801 0.695566 0 0 0 0 0 0 0 0 0 0 0 0 0 0 0 0 0 0 0 0 0 0 0 0 0 0 0 0 0 0 0 0 0 0 0 0 0 0 0 0 0 0
1.83733 8.74242e-08 2.15413e-08 6.5883e-08 0.753601 0.678276 0 0 0 0 0 0 0 0 0 0 0 0 0 0 0 0 0 0 0 0 0 0 0 0 0 0 0 0 0 0 0 0 0 0 0 0 0 0 0 0 0 0
1.93164 8.43792e-08 2.09337e-08 6.34455e-08 0.751909 0.666865 0 0 0 0 0 0 0 0 0 0 0 0 0 0 0 0 0 0 0 0 0 0 0 0 0 0 0 0 0 0 0 0 0 0 0 0 0 0 0 0 0 0
2.03079 8.16145e-08 2.08319e-08 6.07826e-08 0.744752 0.676609 0 0 0 0 0 0 0 0 0 0 0 0 0 0 0 0 0 0 0 0 0 0 0 0 0 0 0 0 0 0 0 0 0 0 0 0 0 0 0 0 0 0
2.13503 7.84719e-08 2.107e-08 5.74019e-08 0.731496 0.690719 0 0 0 0 0 0 0 0 0 0 0 0 0 0 0 0 0 0 0 0 0 0 0 0 0 0 0 0 0 0 0 0 0 0 0 0 0 0 0 0 0 0
2.24463 7.44089e-08 2.11727e-08 5.32362e-08 0.715454 0.694457 0 0 0 0 0 0 0 0 0 0 0 0 0 0 0 0 0 0 0 0 0 0 0 0 0 0 0 0 0 0 0 0 0 0 0 0 0 0 0 0 0 0
2.35984 6.96615e-08 2.08988e-08 4.87628e-08 0.699996 0.680735 0 0 0 0 0 0 0 0 0 0 0 0 0 0 0 0 0 0 0 0 0 0 0 0 0 0 0 0 0 0 0 0 0 0 0 0 0 0 0 0 0 0
2.48097 6.49828e-08 2.04163e-08 4.45666e-08 0.685821 0.650165 0 0 0 0 0 0 0 0 0 0 0 0 0 0 0 0 0 0 0 0 0 0 0 0 0 0 0 0 0 0 0 0 0 0 0 0 0 0 0 0 0 0
2.60832 6.08868e-08 2.00177e-08 4.08691e-08 0.67123 0.61571 0 0 0 0 0 0 0 0 0 0 0 0 0 0 0 0 0 0 0 0 0 0 0 0 0 0 0 0 0 0 0 0 0 0 0 0 0 0 0 0 0 0
2.74221 5.73682e-08 1.98699e-08 3.74983e-08 0.653642 0.591077 0 0 0 0 0 0 0 0 0 0 0 0 0 0 0 0 0 0 0 0 0 0 0 0 0 0 0 0 0 0 0 0 0 0 0 0 0 0 0 0 0 0
2.88297 5.41973e-08 1.99464e-08 3.42508e-08 0.631966 0.581184 0 0 0 0 0 0 0 0 0 0 0 0 0 0 0 0 0 0 0 0 0 0 0 0 0 0 0 0 0 0 0 0 0 0 0 0 0 0 0 0 0 0
3.03095 5.12062e-08 2.01288e-08 3.10774e-08 0.606907 0.583742 0 0 0 0 0 0 0 0 0 0 0 0 0 0 0 0 0 0 0 0 0 0 0 0 0 0 0 0 0 0 0 0 0 0 0 0 0 0 0 0 0 0
3.18653 4.82308e-08 2.0144e-08 2.80868e-08 0.582342 0.592254 0 0 0 0 0 0 0 0 0 0 0 0 0 0 0 0 0 0 0 0 0 0 0 0 0 0 0 0 0 0 0 0 0 0 0 0 0 0 0 0 0 0
3.35009 4.47725e-08 2.01473e-08 2.46252e-08 0.550008 0.597069 0 0 0 0 0 0 0 0 0 0 0 0 0 0 0 0 0 0 0 0 0 0 0 0 0 0 0 0 0 0 0 0 0 0 0 0 0 0 0 0 0 0
3.52205 4.35932e-08 2.02519e-08 2.33413e-08 0.535435 0.588068 0 0 0 0 0 0 0 0 0 0 0 0 0 0 0 0 0 0 0 0 0 0 0 0 0 0 0 0 0 0 0 0 0 0 0 0 0 0 0 0 0 0
3.70284 3.96836e-08 1.88231e-08 2.08605e-08 0.52567 0.560072 0 0 0 0 0 0 0 0 0 0 0 0 0 0 0 0 0 0 0 0 0 0 0 0 0 0 0 0 0 0 0 0 0 0 0 0 0 0 0 0 0 0
3.89291 3.6448e-08 1.80054e-08 1.84425e-08 0.505997 0.516098 0 0 0 0 0 0 0 0 0 0 0 0 0 0 0 0 0 0 0 0 0 0 0 0 0 0 0 0 0 0 0 0 0 0 0 0 0 0 0 0 0 0
4.09273 3.35397e-08 1.72639e-08 1.62758e-08 0.48527 0.463758 0 0 0 0 0 0 0 0 0 0 0 0 0 0 0 0 0 0 0 0 0 0 0 0 0 0 0 0 0 0 0 0 0 0 0 0 0 0 0 0 0 0
4.30281 3.09528e-08 1.66316e-08 1.43211e-08 0.462678 0.410504 0 0 0 0 0 0 0 0 0 0 0 0 0 0 0 0 0 0 0 0 0 0 0 0 0 0 0 0 0 0 0 0 0 0 0 0 0 0 0 0 0 0
4.52368 2.86769e-08 1.61252e-08 1.25517e-08 0.437694 0.36109 0 0 0 0 0 0 0 0 0 0 0 0 0 0 0 0 0 0 0 0 0 0 0 0 0 0 0 0 0 0 0 0 0 0 0 0 0 0 0 0 0 0
4.75588 2.66783e-08 1.57237e-08 1.09547e-08 0.410621 0.317231 0 0 0 0 0 0 0 0 0 0 0 0 0 0 0 0 0 0 0 0 0 0 0 0 0 0 0 0 0 0 0 0 0 0 0 0 0 0 0 0 0 0
5 2.4908e-08 1.53835e-08 9.52447e-09 0.382386 0.279025 0 0 0 0 0 0 0 0 0 0 0 0 0 0 0 0 0 0 0 0 0 0 0 0 0 0 0 0 0 0 0 0 0 0 0 0 0 0 0 0 0 0
5.25665 2.32969e-08 1.50566e-08 8.24029e-09 0.353707 0.246009 0 0 0 0 0 0 0 0 0 0 0 0 0 0 0 0 0 0 0 0 0 0 0 0 0 0 0 0 0 0 0 0 0 0 0 0 0 0 0 0 0 0
5.52648 2.1816e-08 1.47304e-08 7.08565e-09 0.324791 0.217572 0 0 0 0 0 0 0 0 0 0 0 0 0 0 0 0 0 0 0 0 0 0 0 0 0 0 0 0 0 0 0 0 0 0 0 0 0 0 0 0 0 0
5.81015 2.04379e-08 1.43875e-08 6.05049e-09 0.296042 0.192771 0 0 0 0 0 0 0 0 0 0 0 0 0 0 0 0 0 0 0 0 0 0 0 0 0 0 0 0 0 0 0 0 0 0 0 0 0 0 0 0 0 0
6.10839 1.91628e-08 1.40364e-08 5.12639e-09 0.267518 0.171055 0 0 0 0 0 0 0 0 0 0 0 0 0 0 0 0 0 0 0 0 0 0 0 0 0 0 0 0 0 0 0 0 0 0 0 0 0 0 0 0 0 0
6.42193 1.7974e-08 1.36691e-08 4.30485e-09 0.239505 0.15182 0 0 0 0 0 0 0 0 0 0 0 0 0 0 0 0 0 0 0 0 0 0 0 0 0 0 0 0 0 0 0 0 0 0 1.4013e-45 0 2.8026e-45 0 7.00649e-45 0 1.54143e-44 0
6.75157 1.68865e-08 1.33208e-08 3.56568e-09 0.211156 0.134531 0 0 0 0 0 0 0 0 0 0 0 0 0 0 0 0 0 0 0 0 0 0 0 0 0 0 1.4013e-45 0 4.2039e-45 0 1.54143e-44 0 4.76441e-44 0 1.41531e-43 0 3.89561e-43 0 9.89317e-43 0 2.33737e-42 0
7.09813 1.5834e-08 1.28887e-08 2.94522e-09 0.186006 0.118665 0 0 0 0 0 0 0 0 0 0 0 0 0 0 0 0 0 0 0 0 1.4013e-45 0 9.80909e-45 0 4.34403e-44 0 1.82169e-43 0 6.67018e-43 0 2.22106e-42 0 6.59591e-42 0 1.8612e-41 0 4.86321e-41 0 1.18111e-40 0 2.6754e-40 0
7.46248 1.48072e-08 1.24504e-08 2.35678e-09 0.159165 0.103833 0 0 0 0 0 0 0 0 0 0 0 0 0 0 0 0 4.2039e-45 0 4.06377e-44 0 2.5924e-43 0 1.36346e-42 0 6.02138e-42 0 2.3312e-41 0 7.98586e-41 0 2.509e-40 0 7.06708e-40 0 1.89567e-39 0 4.72628e-39 0 1.09919e-38 0 2.3924e-38 0
7.84553 1.37358e-08 1.19483e-08 1.78744e-09 0.130131 0.0905218 0 0 0 0 0 0 0 0 0 0 0 0 4.2039e-45 0 7.00649e-44 0 7.31478e-43 0 5.5085e-42 0 3.19202e-41 0 1.54604e-40 0 6.34826e-40 0 2.3008e-39 0 7.42185e-39 0 2.20505e-38 0 5.90474e-38 0 1.50939e-37 0 3.59904e-37 0 8.03237e-37 0 1.68311e-36 0
8.24824 1.40091e-08 1.27174e-08 1.29167e-09 0.0922026 0.0795325 0 0 0 0 0 0 0 0 0 0 2.94273e-44 0 7.38484e-43 0 1.00571e-41 0 9.34722e-41 0 6.37853e-40 0 3.39221e-39 0 1.52122e-38 0 5.83013e-38 0 1.98426e-37 0 6.04504e-37 0 1.703e-36 0 4.34622e-36 0 1.06124e-35 0 2.42533e-35 0 5.20483e-35 0 1.05194e-34 0
8.67162 1.59365e-08 1.48355e-08 1.101e-09 0.0690866 0.0701596 0 0 0 0 0 0 0 0 1.00893e-43 0 4.7532e-42 0 1.02512e-40 0 1.22798e-39 0 1.02365e-38 0 6.36023e-38 0 3.11745e-37 0 1.29924e-36 0 4.66324e-36 0 1.49499e-35 0 4.31337e-35 0 1.15524e-34 0 2.81645e-34 0 6.58375e-34 0 1.44513e-33 0 2.98779e-33 0 5.83463e-33 0
9.11674 2.08535e-08 1.95696e-08 1.28389e-09 0.061567 0.0606242 0 0 0 0 0 0 1.23314e-43 0 1.73229e-41 0 6.77538e-40 0 1.25784e-38 0 1.33471e-37 0 1.00319e-36 0 5.70126e-36 0 2.58579e-35 0 1.00512e-34 0 3.38937e-34 0 1.02652e-33 0 2.8124e-33 0 7.17864e-33 0 1.67562e-32 0 3.75788e-32 0 7.93791e-32 0 1.58397e-31 0 2.99378e-31 0
9.5847 2.59807e-08 2.4153e-08 1.82769e-09 0.070348 0.0534353 0 0 0 0 1.68156e-44 0 1.97485e-41 0 2.17187e-39 0 7.10259e-38 0 1.14331e-36 0 1.08105e-35 0 7.3633e-35 0 3.8443e-34 0 1.6195e-33 0 5.8914e-33 0 1.87216e-32 0 5.3715e-32 0 1.40099e-31 0 3.4161e-31 0 7.65052e-31 0 1.64942e-30 0 3.35922e-30 0 6.48083e-30 0 1.18742e-29 0
10.0767 2.6826e-08 2.46891e-08 2.13692e-09 0.0796584 0.0493123 0 0 0 0 2.40603e-42 0 2.03368e-39 0 1.77793e-37 0 4.90398e-36 0 6.89252e-35 0 5.84014e-34 0 3.62216e-33 0 1.74449e-32 0 6.85077e-32 0 2.33989e-31 0 7.02756e-31 0 1.91517e-30 0 4.76672e-30 0 1.11279e-29 0 2.39596e-29 0 4.97542e-29 0 9.78712e-29 0 1.82858e-28 0 3.25273e-28 0
10.5939 2.40229e-08 2.20287e-08 1.9942e-09 0.0830126 0.0470838 0 0 1.4013e-45 0 2.36965e-40 0 1.44166e-37 0 1.0132e-35 0 2.37681e-34 0 2.93617e-33 0 2.24138e-32 0 1.27164e-31 0 5.67198e-31 0 2.08353e-30 0 6.70208e-30 0 1.90766e-29 0 4.95045e-29 0 1.17848e-28 0 2.63962e-28 0 5.47449e-28 0 1.09698e-27 0 2.08776e-27 0 3.78342e-27 0 6.54344e-27 0
11.1377 2.06644e-08 1.89346e-08 1.72981e-09 0.0837094 0.0473813 0 0 1.90577e-43 0 1.76565e-38 0 7.85508e-36 0 4.48554e-34 0 9.02003e-33 0 9.85576e-32 0 6.81281e-31 0 3.55116e-30 0 1.47243e-29 0 5.07587e-29 0 1.54222e-28 0 4.17117e-28 0 1.03319e-27 0 2.35759e-27 0 5.07677e-27 0 1.01607e-26 0 1.96807e-26 0 3.62974e-26 0 6.3896e-26 0 1.07592e-25 0
11.7094 1.67459e-08 1.53715e-08 1.37447e-09 0.0820777 0.0474693 0 0 1.86022e-41 0 9.87175e-37 0 3.26093e-34 0 1.5284e-32 0 2.65457e-31 0 2.58091e-30 0 1.62336e-29 0 7.80638e-29 0 3.01966e-28 0 9.79923e-28 0 2.8201e-27 0 7.2657e-27 0 1.72174e-26 0 3.77365e-26 0 7.8274e-26 0 1.5144e-25 0 2.84015e-25 0 5.08388e-25 0 8.70567e-25 0 1.42909e-24 0
12.3105 1.32773e-08 1.22506e-08 1.0267e-09 0.0773276 0.0474275 1.12104e-44 0 1.39532e-39 0 4.35331e-35 0 1.08338e-32 0 4.20821e-31 0 6.35806e-30 0 5.53193e-29 0 3.18072e-28 0 1.41664e-27 0 5.12959e-27 0 1.57165e-26 0 4.29552e-26 0 1.05672e-25 0 2.40081e-25 0 5.06423e-25 0 1.01367e-24 0 1.89901e-24 0 3.45377e-24 0 6.00901e-24 0 1.00232e-23 0 1.60602e-23 0
12.9424 1.15767e-08 1.08381e-08 7.38657e-10 0.0638053 0.0456905 1.34805e-42 0 9.19332e-38 0 1.73059e-33 0 3.28985e-31 0 1.0688e-29 0 1.41432e-28 0 1.1072e-27 0 5.84502e-27 0 2.42018e-26 0 8.22974e-26 0 2.38736e-25 0 6.21237e-25 0 1.46257e-24 0 3.19236e-24 0 6.49292e-24 0 1.25635e-23 0 2.28259e-23 0 4.03192e-23 0 6.82777e-23 0 1.11079e-22 0 1.73933e-22 0
13.6067 1.08771e-08 1.0307e-08 5.70122e-10 0.0524147 0.0417419 1.31572e-40 0 5.2113e-36 0 6.06679e-32 0 8.9263e-30 0 2.44671e-28 0 2.85411e-27 0 2.02077e-26 0 9.83556e-26 0 3.79955e-25 0 1.21708e-24 0 3.35173e-24 0 8.32395e-24 0 1.87946e-23 0 3.94891e-23 0 7.75804e-23 0 1.45354e-22 0 2.56497e-22 0 4.40659e-22 0 7.27278e-22 0 1.1554e-21 0 1.77001e-21 0
