# 2.6607e-06 1 75 : grain size, compostion index, size index
# Heating and cooling timescale: 12.0893 52328.4
# Ratio of heating to cooling to determine stochastic cutoff: 100
# Equilibrium emission is recorded even for those grains in the stochastic regime.
# Emission spectrum was computed for: 
# Type: IRSF
# Scales: 0.25 0.5 1 1.5 2 2.5 3 3.5 4 4.5 5 5.5 6 6.5 7 7.5 8 8.5 9 9.5 10
# StochasticallyHeated: 0 0 0 0 0 0 0 0 0 0 0 0 0 0 0 0 0 0 0 0 0
# Temperature: -1
# Wavelength  CExt  CAbs  CSca  Albedo G EqEm1 StEm1 EqEm2 StEm2 EqEm3 StEm3 EqEm4 StEm4 EqEm5 StEm5 EqEm6 StEm6 EqEm7 StEm7 EqEm8 StEm8 EqEm9 StEm9 EqEm10 StEm10 EqEm11 StEm11 EqEm12 StEm12 EqEm13 StEm13 EqEm14 StEm14 EqEm15 StEm15 EqEm16 StEm16 EqEm17 StEm17 EqEm18 StEm18 EqEm19 StEm19 EqEm20 StEm20 EqEm21 StEm21
0.05 1.3041e-11 8.52422e-12 4.51675e-12 0.346351 0.137772 0 0 0 0 0 0 0 0 0 0 0 0 0 0 0 0 0 0 0 0 0 0 0 0 0 0 0 0 0 0 0 0 0 0 0 0 0 0 0 0 0 0
0.0525665 1.44141e-11 9.42178e-12 4.99234e-12 0.346351 0.152279 0 0 0 0 0 0 0 0 0 0 0 0 0 0 0 0 0 0 0 0 0 0 0 0 0 0 0 0 0 0 0 0 0 0 0 0 0 0 0 0 0 0
0.0552647 1.59319e-11 1.04139e-11 5.51801e-12 0.34635 0.168313 0 0 0 0 0 0 0 0 0 0 0 0 0 0 0 0 0 0 0 0 0 0 0 0 0 0 0 0 0 0 0 0 0 0 0 0 0 0 0 0 0 0
0.0581015 1.76094e-11 1.15104e-11 6.09903e-12 0.346351 0.186035 0 0 0 0 0 0 0 0 0 0 0 0 0 0 0 0 0 0 0 0 0 0 0 0 0 0 0 0 0 0 0 0 0 0 0 0 0 0 0 0 0 0
0.0610839 1.94636e-11 1.27224e-11 6.74123e-12 0.346351 0.205624 0 0 0 0 0 0 0 0 0 0 0 0 0 0 0 0 0 0 0 0 0 0 0 0 0 0 0 0 0 0 0 0 0 0 0 0 0 0 0 0 0 0
0.0642193 2.1513e-11 1.4062e-11 7.45104e-12 0.346351 0.227275 0 0 0 0 0 0 0 0 0 0 0 0 0 0 0 0 0 0 0 0 0 0 0 0 0 0 0 0 0 0 0 0 0 0 0 0 0 0 0 0 0 0
0.0675157 2.37782e-11 1.55426e-11 8.2356e-12 0.346351 0.251206 0 0 0 0 0 0 0 0 0 0 0 0 0 0 0 0 0 0 0 0 0 0 0 0 0 0 0 0 0 0 0 0 0 0 0 0 0 0 0 0 0 0
0.0709813 2.6282e-11 1.71792e-11 9.10277e-12 0.346351 0.277657 0 0 0 0 0 0 0 0 0 0 0 0 0 0 0 0 0 0 0 0 0 0 0 0 0 0 0 0 0 0 0 0 0 0 0 0 0 0 0 0 0 0
0.0746248 2.90493e-11 1.89881e-11 1.00612e-11 0.346351 0.306893 0 0 0 0 0 0 0 0 0 0 0 0 0 0 0 0 0 0 0 0 0 0 0 0 0 0 0 0 0 0 0 0 0 0 0 0 0 0 0 0 0 0
0.0784553 3.21081e-11 2.09874e-11 1.11206e-11 0.346351 0.339207 0 0 0 0 0 0 0 0 0 0 0 0 0 0 0 0 0 0 0 0 0 0 0 0 0 0 0 0 0 0 0 0 0 0 0 0 0 0 0 0 0 0
0.0824824 3.54889e-11 2.31973e-11 1.22916e-11 0.346351 0.374924 0 0 0 0 0 0 0 0 0 0 0 0 0 0 0 0 0 0 0 0 0 0 0 0 0 0 0 0 0 0 0 0 0 0 0 0 0 0 0 0 0 0
0.0867162 3.92257e-11 2.56399e-11 1.35859e-11 0.346351 0.414402 0 0 0 0 0 0 0 0 0 0 0 0 0 0 0 0 0 0 0 0 0 0 0 0 0 0 0 0 0 0 0 0 0 0 0 0 0 0 0 0 0 0
0.0911674 4.3356e-11 2.83396e-11 1.50164e-11 0.346351 0.458037 0 0 0 0 0 0 0 0 0 0 0 0 0 0 0 0 0 0 0 0 0 0 0 0 0 0 0 0 0 0 0 0 0 0 0 0 0 0 0 0 0 0
0.095847 4.79212e-11 3.13237e-11 1.65975e-11 0.346351 0.506266 0 0 0 0 0 0 0 0 0 0 0 0 0 0 0 0 0 0 0 0 0 0 0 0 0 0 0 0 0 0 0 0 0 0 0 0 0 0 0 0 0 0
0.100767 5.22183e-11 3.41138e-11 1.81044e-11 0.346707 0.546561 0 0 0 0 0 0 0 0 0 0 0 0 0 0 0 0 0 0 0 0 0 0 0 0 0 0 0 0 0 0 0 0 0 0 0 0 0 0 0 0 0 0
0.105939 5.26135e-11 3.41741e-11 1.84394e-11 0.350469 0.517423 0 0 0 0 0 0 0 0 0 0 0 0 0 0 0 0 0 0 0 0 0 0 0 0 0 0 0 0 0 0 0 0 0 0 0 0 0 0 0 0 0 0
0.111377 5.29011e-11 3.4079e-11 1.88222e-11 0.355799 0.487929 0 0 0 0 0 0 0 0 0 0 0 0 0 0 0 0 0 0 0 0 0 0 0 0 0 0 0 0 0 0 0 0 0 0 0 0 0 0 0 0 0 0
0.117094 5.31665e-11 3.38645e-11 1.93019e-11 0.363047 0.459464 0 0 0 0 0 0 0 0 0 0 0 0 0 0 0 0 0 0 0 0 0 0 0 0 0 0 0 0 0 0 0 0 0 0 0 0 0 0 0 0 0 0
0.123105 5.31218e-11 3.33507e-11 1.97712e-11 0.372185 0.433701 0 0 0 0 0 0 0 0 0 0 0 0 0 0 0 0 0 0 0 0 0 0 0 0 0 0 0 0 0 0 0 0 0 0 0 0 0 0 0 0 0 0
0.129424 5.22669e-11 3.23461e-11 1.99209e-11 0.381137 0.410852 0 0 0 0 0 0 0 0 0 0 0 0 0 0 0 0 0 0 0 0 0 0 0 0 0 0 0 0 0 0 0 0 0 0 0 0 0 0 0 0 0 0
0.136067 5.10585e-11 3.08596e-11 2.01989e-11 0.395603 0.390686 0 0 0 0 0 0 0 0 0 0 0 0 0 0 0 0 0 0 0 0 0 0 0 0 0 0 0 0 0 0 0 0 0 0 0 0 0 0 0 0 0 0
0.143051 4.77397e-11 2.76638e-11 2.0076e-11 0.420529 0.375723 0 0 0 0 0 0 0 0 0 0 0 0 0 0 0 0 0 0 0 0 0 0 0 0 0 0 0 0 0 0 0 0 0 0 0 0 0 0 0 0 0 0
0.150394 4.06653e-11 2.19404e-11 1.87249e-11 0.460465 0.374575 0 0 0 0 0 0 0 0 0 0 0 0 0 0 0 0 0 0 0 0 0 0 0 0 0 0 0 0 0 0 0 0 0 0 0 0 0 0 0 0 0 0
0.158114 3.09069e-11 1.49815e-11 1.59254e-11 0.51527 0.356032 0 0 0 0 0 0 0 0 0 0 0 0 0 0 0 0 0 0 0 0 0 0 0 0 0 0 0 0 0 0 0 0 0 0 0 0 0 0 0 0 0 0
0.16623 2.19753e-11 9.43008e-12 1.25452e-11 0.570878 0.309029 0 0 0 0 0 0 0 0 0 0 0 0 0 0 0 0 0 0 0 0 0 0 0 0 0 0 0 0 0 0 0 0 0 0 0 0 0 0 0 0 0 0
0.174762 1.59187e-11 6.34772e-12 9.57096e-12 0.601241 0.259481 0 0 0 0 0 0 0 0 0 0 0 0 0 0 0 0 0 0 0 0 0 0 0 0 0 0 0 0 0 0 0 0 0 0 0 0 0 0 0 0 0 0
0.183733 1.15013e-11 4.28535e-12 7.21594e-12 0.627403 0.219058 0 0 0 0 0 0 0 0 0 0 0 0 0 0 0 0 0 0 0 0 0 0 0 0 0 0 0 0 0 0 0 0 0 0 0 0 0 0 0 0 0 0
0.193164 8.51928e-12 3.08415e-12 5.43513e-12 0.63798 0.187937 0 0 0 0 0 0 0 0 0 0 0 0 0 0 0 0 0 0 0 0 0 0 0 0 0 0 0 0 0 0 0 0 0 0 0 0 0 0 0 0 0 0
0.203079 6.8395e-12 2.7218e-12 4.1177e-12 0.602047 0.163426 0 0 0 0 0 0 0 0 0 0 0 0 0 0 0 0 0 0 0 0 0 0 0 0 0 0 0 0 0 0 0 0 0 0 0 0 0 0 0 0 0 0
0.213503 5.68529e-12 2.51108e-12 3.17421e-12 0.55832 0.143483 0 0 0 0 0 0 0 0 0 0 0 0 0 0 0 0 0 0 0 0 0 0 0 0 0 0 0 0 0 0 0 0 0 0 0 0 0 0 0 0 0 0
0.224463 4.7956e-12 2.3019e-12 2.4937e-12 0.519998 0.127006 0 0 0 0 0 0 0 0 0 0 0 0 0 0 0 0 0 0 0 0 0 0 0 0 0 0 0 0 0 0 0 0 0 0 0 0 0 0 0 0 0 0
0.235984 4.1093e-12 2.13848e-12 1.97082e-12 0.479601 0.113184 0 0 0 0 0 0 0 0 0 0 0 0 0 0 0 0 0 0 0 0 0 0 0 0 0 0 0 0 0 0 0 0 0 0 0 0 0 0 0 0 0 0
0.248097 3.56374e-12 1.99828e-12 1.56546e-12 0.439275 0.10133 0 0 0 0 0 0 0 0 0 0 0 0 0 0 0 0 0 0 0 0 0 0 0 0 0 0 0 0 0 0 0 0 0 0 0 0 0 0 0 0 0 0
0.260832 3.13101e-12 1.87976e-12 1.25125e-12 0.399631 0.0909619 0 0 0 0 0 0 0 0 0 0 0 0 0 0 0 0 0 0 0 0 0 0 0 0 0 0 0 0 0 0 0 0 0 0 0 0 0 0 0 0 0 0
0.274221 2.77358e-12 1.76971e-12 1.00387e-12 0.361941 0.0817985 0 0 0 0 0 0 0 0 0 0 0 0 0 0 0 0 0 0 0 0 0 0 0 0 0 0 0 0 0 0 0 0 0 0 0 0 0 0 0 0 0 0
0.288297 2.47453e-12 1.66636e-12 8.08167e-13 0.326594 0.0736761 0 0 0 0 0 0 0 0 0 0 0 0 0 0 0 0 0 0 0 0 0 0 0 0 0 0 0 0 0 0 0 0 0 0 0 0 0 0 0 0 0 0
0.303095 2.22154e-12 1.56942e-12 6.52116e-13 0.293543 0.0664352 0 0 0 0 0 0 0 0 0 0 0 0 0 0 0 0 0 0 0 0 0 0 0 0 0 0 0 0 0 0 0 0 0 0 0 0 0 0 0 0 0 0
0.318653 2.00581e-12 1.47831e-12 5.27496e-13 0.262984 0.0599478 0 0 0 0 0 0 0 0 0 0 0 0 0 0 0 0 0 0 0 0 0 0 0 0 0 0 0 0 0 0 0 0 0 0 0 0 0 0 0 0 0 0
0.335009 1.8203e-12 1.39277e-12 4.27533e-13 0.234869 0.0541267 0 0 0 0 0 0 0 0 0 0 0 0 0 0 0 0 0 0 0 0 0 0 0 0 0 0 0 0 0 0 0 0 0 0 0 0 0 0 0 0 0 0
0.352205 1.65979e-12 1.31274e-12 3.47049e-13 0.209092 0.0488964 0 0 0 0 0 0 0 0 0 0 0 0 0 0 0 0 0 0 0 0 0 0 0 0 0 0 0 0 0 0 0 0 0 0 0 0 0 0 0 0 0 0
0.370284 1.52001e-12 1.23776e-12 2.82245e-13 0.185687 0.0441896 0 0 0 0 0 0 0 0 0 0 0 0 0 0 0 0 0 0 0 0 0 0 0 0 0 0 0 0 0 0 0 0 0 0 0 0 0 0 0 0 0 0
0.389291 1.39732e-12 1.16759e-12 2.2973e-13 0.164407 0.0399492 0 0 0 0 0 0 0 0 0 0 0 0 0 0 0 0 0 0 0 0 0 0 0 0 0 0 0 0 0 0 0 0 0 0 0 0 0 0 0 0 0 0
0.409273 1.28899e-12 1.10175e-12 1.87243e-13 0.145263 0.0361231 0 0 0 0 0 0 0 0 0 0 0 0 0 0 0 0 0 0 0 0 0 0 0 0 0 0 0 0 0 0 0 0 0 0 0 0 0 0 0 0 0 0
0.430281 1.19285e-12 1.04013e-12 1.52726e-13 0.128034 0.0326669 0 0 0 0 0 0 0 0 0 0 0 0 0 0 0 0 0 0 0 0 0 0 0 0 0 0 0 0 0 0 0 0 0 0 0 0 0 0 0 0 0 0
0.452368 1.10708e-12 9.82413e-13 1.24668e-13 0.11261 0.0295535 0 0 0 0 0 0 0 0 0 0 0 0 0 0 0 0 0 0 0 0 0 0 0 0 0 0 0 0 0 0 0 0 0 0 0 0 0 0 0 0 0 0
0.475588 1.03003e-12 9.28211e-13 1.01817e-13 0.0988489 0.0267369 0 0 0 0 0 0 0 0 0 0 0 0 0 0 0 0 0 0 0 0 0 0 0 0 0 0 0 0 0 0 0 0 0 0 0 0 0 0 0 0 0 0
0.5 9.60583e-13 8.77371e-13 8.32118e-14 0.0866264 0.024189 0 0 0 0 0 0 0 0 0 0 0 0 0 0 0 0 0 0 0 0 0 0 0 0 0 0 0 0 0 0 0 0 0 0 0 0 0 0 0 0 0 0
0.525665 8.97675e-13 8.29619e-13 6.80559e-14 0.0758135 0.0218846 0 0 0 0 0 0 0 0 0 0 0 0 0 0 0 0 0 0 0 0 0 0 0 0 0 0 0 0 0 0 0 0 0 0 0 0 0 0 0 0 0 0
0.552648 8.40365e-13 7.84672e-13 5.56928e-14 0.0662722 0.019802 0 0 0 0 0 0 0 0 0 0 0 0 0 0 0 0 0 0 0 0 0 0 0 0 0 0 0 0 0 0 0 0 0 0 0 0 0 0 0 0 0 0
0.581015 7.88133e-13 7.42569e-13 4.55634e-14 0.0578118 0.0179215 0 0 0 0 0 0 0 0 0 0 0 0 0 0 0 0 0 0 0 0 0 0 0 0 0 0 0 0 0 0 0 0 0 0 0 0 0 0 0 0 0 0
0.610839 7.40269e-13 7.02986e-13 3.72837e-14 0.050365 0.0162179 0 0 0 0 0 0 0 0 0 0 0 0 0 0 0 0 0 0 0 0 0 0 0 0 0 0 0 0 0 0 0 0 0 0 0 0 0 0 0 0 0 0
0.642193 6.95954e-13 6.65426e-13 3.05279e-14 0.0438648 0.0146746 0 0 0 0 0 0 0 0 0 0 0 0 0 0 0 0 0 0 0 0 0 0 0 0 0 0 0 0 0 0 0 0 0 0 0 0 0 0 0 0 0 0
0.675157 6.55226e-13 6.30229e-13 2.49968e-14 0.0381498 0.0132811 0 0 0 0 0 0 0 0 0 0 0 0 0 0 0 0 0 0 0 0 0 0 0 0 0 0 0 0 0 0 0 0 0 0 0 0 0 0 0 0 0 0
0.709813 6.1773e-13 5.97265e-13 2.04651e-14 0.0331294 0.0120199 0 0 0 0 0 0 0 0 0 0 0 0 0 0 0 0 0 0 0 0 0 0 0 0 0 0 0 0 0 0 0 0 0 0 0 0 0 0 0 0 0 0
0.746248 5.8303e-13 5.66271e-13 1.67586e-14 0.0287439 0.0108775 0 0 0 0 0 0 0 0 0 0 0 0 0 0 0 0 0 0 0 0 0 0 0 0 0 0 0 0 0 0 0 0 0 0 0 0 0 0 0 0 0 0
0.784553 5.50764e-13 5.37044e-13 1.37192e-14 0.0249095 0.00984252 0 0 0 0 0 0 0 0 0 0 0 0 0 0 0 0 0 0 0 0 0 0 0 0 0 0 0 0 0 0 0 0 0 0 0 0 0 0 0 0 0 0
0.824824 5.20735e-13 5.09502e-13 1.12329e-14 0.0215711 0.00890793 0 0 0 0 0 0 0 0 0 0 0 0 0 0 0 0 0 0 0 0 0 0 0 0 0 0 0 0 0 0 0 0 0 0 0 0 0 0 0 0 0 0
0.867162 4.92587e-13 4.8339e-13 9.19699e-15 0.0186708 0.00806228 0 0 0 0 0 0 0 0 0 0 0 0 0 0 0 0 0 0 0 0 0 0 0 0 0 0 0 0 0 0 0 0 0 0 0 0 0 0 0 0 0 0
0.911674 4.66606e-13 4.5908e-13 7.52632e-15 0.0161299 0.00729629 0 0 0 0 0 0 0 0 0 0 0 0 0 0 0 0 0 0 0 0 0 0 0 0 0 0 0 0 0 0 0 0 0 0 0 0 0 0 0 0 0 0
0.95847 4.4251e-13 4.36355e-13 6.15444e-15 0.013908 0.00660273 0 0 0 0 0 0 0 0 0 0 0 0 0 0 0 0 0 0 0 0 0 0 0 0 0 0 0 0 0 0 0 0 0 0 0 0 0 0 0 0 0 0
1.00767 4.19931e-13 4.14911e-13 5.02026e-15 0.011955 0.00597548 0 0 0 0 0 0 0 0 0 0 0 0 0 0 0 0 0 0 0 0 0 0 0 0 0 0 0 0 0 0 0 0 0 0 0 0 0 0 0 0 0 0
1.05939 4.0755e-13 4.03454e-13 4.09601e-15 0.0100503 0.00540797 0 0 0 0 0 0 0 0 0 0 0 0 0 0 0 0 0 0 0 0 0 0 0 0 0 0 0 0 0 0 0 0 0 0 0 0 0 0 0 0 0 0
1.11377 3.97207e-13 3.9386e-13 3.3468e-15 0.00842584 0.00489389 0 0 0 0 0 0 0 0 0 0 0 0 0 0 0 0 0 0 0 0 0 0 0 0 0 0 0 0 0 0 0 0 0 0 0 0 0 0 0 0 0 0
1.17094 3.88755e-13 3.86014e-13 2.74044e-15 0.00704927 0.00442825 0 0 0 0 0 0 0 0 0 0 0 0 0 0 0 0 0 0 0 0 0 0 0 0 0 0 0 0 0 0 0 0 0 0 0 0 0 0 0 0 0 0
1.23105 3.81306e-13 3.79063e-13 2.24308e-15 0.00588263 0.0040069 0 0 0 0 0 0 0 0 0 0 0 0 0 0 0 0 0 0 0 0 0 0 0 0 0 0 0 0 0 0 0 0 0 0 0 0 0 0 0 0 0 0
1.29424 3.73427e-13 3.7159e-13 1.83708e-15 0.0049195 0.00362572 0 0 0 0 0 0 0 0 0 0 0 0 0 0 0 0 0 0 0 0 0 0 0 0 0 0 0 0 0 0 0 0 0 0 0 0 0 0 0 0 0 0
1.36067 3.64799e-13 3.63288e-13 1.51105e-15 0.00414216 0.003281 0 0 0 0 0 0 0 0 0 0 0 0 0 0 0 0 0 0 0 0 0 0 0 0 0 0 0 0 0 0 0 0 0 0 0 0 0 0 0 0 0 0
1.43051 3.557e-13 3.5447e-13 1.2293e-15 0.003456 0.00296837 0 0 0 0 0 0 0 0 0 0 0 0 0 0 0 0 0 0 0 0 0 0 0 0 0 0 0 0 0 0 0 0 0 0 0 0 0 0 0 0 0 0
1.50394 3.46443e-13 3.45439e-13 1.00467e-15 0.00289996 0.00268561 0 0 0 0 0 0 0 0 0 0 0 0 0 0 0 0 0 0 0 0 0 0 0 0 0 0 0 0 0 0 0 0 0 0 0 0 0 0 0 0 0 0
1.58114 3.37556e-13 3.36734e-13 8.22022e-16 0.00243522 0.00243008 0 0 0 0 0 0 0 0 0 0 0 0 0 0 0 0 0 0 0 0 0 0 0 0 0 0 0 0 0 0 0 0 0 0 0 0 0 0 0 0 0 0
1.6623 3.29476e-13 3.28803e-13 6.7252e-16 0.00204118 0.00219842 0 0 0 0 0 0 0 0 0 0 0 0 0 0 0 0 0 0 0 0 0 0 0 0 0 0 0 0 0 0 0 0 0 0 0 0 0 0 0 0 0 0
1.74763 3.22634e-13 3.22084e-13 5.50142e-16 0.00170516 0.00198869 0 0 0 0 0 0 0 0 0 0 0 0 0 0 0 0 0 0 0 0 0 0 0 0 0 0 0 0 0 0 0 0 0 0 0 0 0 0 0 0 0 0
1.83733 3.17481e-13 3.17031e-13 4.49862e-16 0.00141697 0.00179871 0 0 0 0 0 0 0 0 0 0 0 0 0 0 0 0 0 0 0 0 0 0 0 0 0 0 0 0 0 0 0 0 0 0 0 0 0 0 0 0 0 0
1.93164 3.14243e-13 3.13875e-13 3.67714e-16 0.00117016 0.00162708 0 0 0 0 0 0 0 0 0 0 0 0 0 0 0 0 0 0 0 0 0 0 0 0 0 0 0 0 0 0 0 0 0 0 0 0 0 0 0 0 0 0
2.03079 3.12885e-13 3.12584e-13 3.00746e-16 0.000961204 0.00147178 0 0 0 0 0 0 0 0 0 0 0 0 0 0 0 0 0 0 0 0 0 0 0 0 0 0 0 0 0 0 0 0 0 0 0 0 0 0 0 0 0 0
2.13503 3.12974e-13 3.12728e-13 2.46206e-16 0.000786668 0.00133103 0 0 0 0 0 0 0 0 0 0 0 0 0 0 0 0 0 0 0 0 0 0 0 0 0 0 0 0 0 0 0 0 0 0 0 0 0 0 0 0 0 0
2.24463 3.13446e-13 3.13244e-13 2.01743e-16 0.000643631 0.00120355 0 0 0 0 0 0 0 0 0 0 0 0 0 0 0 0 0 0 0 0 0 0 0 0 0 0 0 0 0 0 0 0 0 0 0 0 0 0 0 0 0 0
2.35984 3.14029e-13 3.13863e-13 1.65406e-16 0.000526721 0.00108836 0 0 0 0 0 0 0 0 0 0 0 0 0 0 0 0 0 0 0 0 0 0 0 0 0 0 0 0 0 0 0 0 0 0 0 0 0 0 0 0 0 0
2.48097 3.15108e-13 3.14972e-13 1.35664e-16 0.000430532 0.000984 0 0 0 0 0 0 0 0 0 0 0 0 0 0 0 0 0 0 0 0 0 0 0 0 0 0 0 0 0 0 0 0 0 0 0 0 0 0 0 0 0 0
2.60832 3.1676e-13 3.16648e-13 1.11333e-16 0.000351475 0.000889528 0 0 0 0 0 0 0 0 0 0 0 0 0 0 0 0 0 0 0 0 0 0 0 0 0 0 0 0 0 0 0 0 0 0 0 0 0 0 0 0 0 0
2.74221 3.19366e-13 3.19275e-13 9.1443e-17 0.000286326 0.000804046 0 0 0 0 0 0 0 0 0 0 0 0 0 0 0 0 0 0 0 0 0 0 0 0 0 0 0 0 0 0 0 0 0 0 0 0 0 0 0 0 0 0
2.88297 3.22994e-13 3.22919e-13 7.52301e-17 0.000232915 0.000726628 0 0 0 0 0 0 0 0 0 0 0 0 0 0 0 0 0 0 0 0 0 0 0 0 0 0 0 0 0 0 0 0 0 0 0 0 0 0 0 0 0 0
3.03095 3.27557e-13 3.27495e-13 6.21302e-17 0.000189678 0.000656616 0 0 0 0 0 0 0 0 0 0 0 0 0 0 0 0 0 0 0 0 0 0 0 0 0 0 0 0 0 0 0 0 0 0 0 0 0 0 0 0 0 0
3.18653 3.29067e-13 3.29015e-13 5.14341e-17 0.000156303 0.000593231 0 0 0 0 0 0 0 0 0 0 0 0 0 0 0 0 0 0 0 0 0 0 0 0 0 0 0 0 0 0 0 0 0 0 0 0 0 0 0 0 0 0
3.35009 3.37322e-13 3.3728e-13 4.20517e-17 0.000124663 0.000535814 0 0 0 0 0 0 0 0 0 0 0 0 0 0 0 0 0 0 0 0 0 0 0 0 0 0 0 0 0 0 0 0 0 0 0 0 0 0 0 0 0 0
3.52205 3.36085e-13 3.36049e-13 3.65895e-17 0.00010887 0.000483839 0 0 0 0 0 0 0 0 0 0 0 0 0 0 0 0 0 0 0 0 0 0 0 0 0 0 0 0 0 0 0 0 0 0 0 0 0 0 0 0 0 0
3.70284 3.13686e-13 3.13656e-13 2.97666e-17 9.4893e-05 0.00043683 0 0 0 0 0 0 0 0 0 0 0 0 0 0 0 0 0 0 0 0 0 0 0 0 0 0 0 0 0 0 0 0 0 0 0 0 0 0 0 0 0 0
3.89291 3.07252e-13 3.07228e-13 2.43898e-17 7.93803e-05 0.000394227 0 0 0 0 0 0 0 0 0 0 0 0 0 0 0 0 0 0 0 0 0 0 0 0 0 0 0 0 0 0 0 0 0 0 0 0 0 0 0 0 0 0
4.09273 3.02205e-13 3.02185e-13 1.99998e-17 6.61795e-05 0.00035559 0 0 0 0 0 0 0 0 0 0 0 0 0 0 0 0 0 0 0 0 0 0 0 0 0 0 0 0 0 0 0 0 0 0 0 0 0 0 0 0 0 0
4.30281 2.98555e-13 2.98539e-13 1.64061e-17 5.49517e-05 0.000320578 0 0 0 0 0 0 0 0 0 0 0 0 0 0 0 0 0 0 0 0 0 0 0 0 0 0 0 0 0 0 0 0 0 0 0 0 0 0 0 0 0 0
4.52368 2.96401e-13 2.96388e-13 1.34724e-17 4.54534e-05 0.000288894 0 0 0 0 0 0 0 0 0 0 0 0 0 0 0 0 0 0 0 0 0 0 0 0 0 0 0 0 0 0 0 0 0 0 0 0 0 0 0 0 0 0
4.75588 2.95356e-13 2.95345e-13 1.10817e-17 3.75196e-05 0.000260149 0 0 0 0 0 0 0 0 0 0 0 0 0 0 0 0 0 0 0 0 0 0 0 0 0 0 0 0 0 0 0 0 0 0 0 0 0 0 0 0 0 0
5 2.94603e-13 2.94594e-13 9.13405e-18 3.10046e-05 0.000234011 0 0 0 0 0 0 0 0 0 0 0 0 0 0 0 0 0 0 0 0 0 0 0 0 0 0 0 0 0 0 0 0 0 0 0 0 0 0 0 0 0 0
5.25665 2.93423e-13 2.93416e-13 7.53685e-18 2.5686e-05 0.000210259 0 0 0 0 0 0 0 0 0 0 0 0 0 0 0 0 0 0 0 0 0 0 0 0 0 0 0 0 0 0 0 0 0 0 0 0 0 0 0 0 0 0
5.52648 2.91845e-13 2.91839e-13 6.21873e-18 2.13083e-05 0.00018876 0 0 0 0 0 0 0 0 0 0 0 0 0 0 0 0 0 0 0 0 0 0 0 0 0 0 0 0 0 0 0 0 0 0 0 0 0 0 0 0 1.4013e-45 0
5.81015 2.89686e-13 2.89681e-13 5.12535e-18 1.76928e-05 0.000169163 0 0 0 0 0 0 0 0 0 0 0 0 0 0 0 0 0 0 0 0 0 0 0 0 0 0 0 0 0 0 1.4013e-45 0 2.8026e-45 0 7.00649e-45 0 1.82169e-44 0 4.48416e-44 0 9.94922e-44 0
6.10839 2.87239e-13 2.87235e-13 4.21542e-18 1.46756e-05 0.00015135 0 0 0 0 0 0 0 0 0 0 0 0 0 0 0 0 0 0 0 0 0 0 0 0 2.8026e-45 0 9.80909e-45 0 3.22299e-44 0 9.66896e-44 0 2.66247e-43 0 6.89439e-43 0 1.68016e-42 0 3.86338e-42 0 8.40078e-42 0
6.42193 2.84457e-13 2.84454e-13 3.45445e-18 1.2144e-05 0.000135099 0 0 0 0 0 0 0 0 0 0 0 0 0 0 0 0 0 0 2.8026e-45 0 1.4013e-44 0 6.44597e-44 0 2.5924e-43 0 8.94028e-43 0 2.8026e-42 0 8.01963e-42 0 2.10587e-41 0 5.20358e-41 0 1.21344e-40 0 2.67795e-40 0 5.60718e-40 0
6.75157 2.82435e-13 2.82432e-13 2.80865e-18 9.94444e-06 0.000120124 0 0 0 0 0 0 0 0 0 0 0 0 0 0 4.2039e-45 0 3.78351e-44 0 2.43826e-43 0 1.25977e-42 0 5.3964e-42 0 2.02558e-41 0 6.58778e-41 0 1.9534e-40 0 5.31068e-40 0 1.33044e-39 0 3.14538e-39 0 7.03783e-39 0 1.4943e-38 0 3.01792e-38 0
7.09813 2.77875e-13 2.77873e-13 2.28224e-18 8.21317e-06 0.000106021 0 0 0 0 0 0 0 0 0 0 1.4013e-45 0 3.50325e-44 0 4.00771e-43 0 3.1319e-42 0 1.86933e-41 0 8.9372e-41 0 3.56507e-40 0 1.25461e-39 0 3.852e-39 0 1.08315e-38 0 2.80439e-38 0 6.71755e-38 0 1.5228e-37 0 3.27592e-37 0 6.70449e-37 0 1.30838e-36 0
7.46248 2.74172e-13 2.74171e-13 1.80876e-18 6.59717e-06 9.22929e-05 0 0 0 0 0 0 0 0 4.2039e-45 0 1.7236e-43 0 2.93012e-42 0 2.97468e-41 0 2.1036e-40 0 1.15063e-39 0 5.09646e-39 0 1.90019e-38 0 6.28868e-38 0 1.82789e-37 0 4.88685e-37 0 1.20784e-36 0 2.77242e-36 0 6.03862e-36 0 1.25136e-35 0 2.47304e-35 0 4.67111e-35 0
7.84553 2.70329e-13 2.70328e-13 1.36902e-18 5.06428e-06 7.91985e-05 0 0 0 0 0 0 4.2039e-45 0 4.35804e-43 0 1.31386e-41 0 1.94787e-40 0 1.76582e-39 0 1.13497e-38 0 5.71382e-38 0 2.35344e-37 0 8.22861e-37 0 2.56869e-36 0 7.08725e-36 0 1.80595e-35 0 4.27069e-35 0 9.41304e-35 0 1.9738e-34 0 3.94728e-34 0 7.54572e-34 0 1.38168e-33 0
8.24824 3.01311e-13 3.0131e-13 1.00723e-18 3.34283e-06 6.80744e-05 0 0 0 0 0 0 4.52619e-43 0 3.54963e-41 0 9.05754e-40 0 1.17723e-38 0 9.58302e-38 0 5.62455e-37 0 2.61672e-36 0 1.00581e-35 0 3.30826e-35 0 9.76895e-35 0 2.56504e-34 0 6.24435e-34 0 1.41589e-33 0 3.00264e-33 0 6.07262e-33 0 1.17402e-32 0 2.1744e-32 0 3.86561e-32 0
8.67162 3.65968e-13 3.65967e-13 8.73371e-19 2.38647e-06 5.92447e-05 0 0 0 0 7.9874e-44 0 3.97604e-41 0 2.52274e-39 0 5.49568e-38 0 6.30214e-37 0 4.63094e-36 0 2.49304e-35 0 1.07597e-34 0 3.87267e-34 0 1.20184e-33 0 3.36616e-33 0 8.43163e-33 0 1.96535e-32 0 4.28177e-32 0 8.75301e-32 0 1.71039e-31 0 3.20197e-31 0 5.75456e-31 0 9.94698e-31 0
9.11674 5.02316e-13 5.02315e-13 1.03886e-18 2.06814e-06 5.05454e-05 0 0 0 0 8.57455e-42 0 3.16714e-39 0 1.6409e-37 0 3.07536e-36 0 3.13066e-35 0 2.08702e-34 0 1.03489e-33 0 4.15871e-33 0 1.40608e-32 0 4.1289e-32 0 1.09973e-31 0 2.63385e-31 0 5.89081e-31 0 1.23551e-30 0 2.43904e-30 0 4.61268e-30 0 8.37489e-30 0 1.46266e-29 0 2.4616e-29 0
9.5847 6.12322e-13 6.12321e-13 1.44096e-18 2.35327e-06 4.52331e-05 0 0 1.54143e-44 0 6.55899e-40 0 1.81523e-37 0 7.75608e-36 0 1.25983e-34 0 1.14512e-33 0 6.9585e-33 0 3.19103e-32 0 1.19813e-31 0 3.81704e-31 0 1.06343e-30 0 2.70014e-30 0 6.19688e-30 0 1.33257e-29 0 2.6956e-29 0 5.14763e-29 0 9.43691e-29 0 1.66421e-28 0 2.82846e-28 0 4.64073e-28 0
10.0767 5.92724e-13 5.92722e-13 1.58538e-18 2.67474e-06 4.29507e-05 0 0 1.32002e-42 0 3.21551e-38 0 6.76257e-36 0 2.40549e-34 0 3.41008e-33 0 2.78293e-32 0 1.54848e-31 0 6.59217e-31 0 2.32032e-30 0 6.98556e-30 0 1.85122e-29 0 4.49135e-29 0 9.89804e-29 0 2.05036e-28 0 4.00736e-28 0 7.41469e-28 0 1.31966e-27 0 2.26367e-27 0 3.74894e-27 0 6.00407e-27 0
10.5939 5.04658e-13 5.04656e-13 1.40729e-18 2.7886e-06 4.22382e-05 1.4013e-45 0 7.59966e-41 0 1.13084e-36 0 1.8317e-34 0 5.47288e-33 0 6.81636e-32 0 5.02083e-31 0 2.56913e-30 0 1.01904e-29 0 3.37309e-29 0 9.62303e-29 0 2.43166e-28 0 5.64975e-28 0 1.19797e-27 0 2.39489e-27 0 4.53007e-27 0 8.13376e-27 0 1.40747e-26 0 2.3515e-26 0 3.79965e-26 0 5.94695e-26 0
11.1377 4.21622e-13 4.21621e-13 1.18275e-18 2.80524e-06 4.32578e-05 1.17709e-43 0 3.45338e-39 0 3.21463e-35 0 4.0617e-33 0 1.0281e-31 0 1.13213e-30 0 7.56443e-30 0 3.57412e-29 0 1.32544e-28 0 4.13824e-28 0 1.12168e-27 0 2.70897e-27 0 6.04026e-27 0 1.23463e-26 0 2.38609e-26 0 4.37513e-26 0 7.63425e-26 0 1.28613e-25 0 2.09561e-25 0 3.30776e-25 0 5.06508e-25 0
11.7094 3.38581e-13 3.3858e-13 9.24824e-19 2.73147e-06 4.35174e-05 6.87757e-42 0 1.22593e-37 0 7.30427e-34 0 7.28696e-32 0 1.57528e-30 0 1.54294e-29 0 9.3963e-29 0 4.11551e-28 0 1.43161e-27 0 4.22803e-27 0 1.09156e-26 0 2.52515e-26 0 5.41421e-26 0 1.0687e-25 0 2.00003e-25 0 3.56028e-25 0 6.04584e-25 0 9.92925e-25 0 1.57975e-24 0 2.43856e-24 0 3.65722e-24 0
12.3105 2.71979e-13 2.71979e-13 6.89135e-19 2.53378e-06 4.32854e-05 3.23389e-40 0 3.5742e-36 0 1.39307e-32 0 1.11006e-30 0 2.06532e-29 0 1.80964e-28 0 1.009e-27 0 4.11188e-27 0 1.34588e-26 0 3.77015e-26 0 9.29306e-26 0 2.06354e-25 0 4.26274e-25 0 8.13938e-25 0 1.47735e-24 0 2.55683e-24 0 4.23103e-24 0 6.78244e-24 0 1.0549e-23 0 1.59423e-23 0 2.3441e-23 0
