# 0.00037584 0 161 : grain size, compostion index, size index
# Heating and cooling timescale: 2.02586e-05 1.14682e+11
# Ratio of heating to cooling to determine stochastic cutoff: 100
# Equilibrium emission is recorded even for those grains in the stochastic regime.
# Emission spectrum was computed for: 
# Type: IRSF
# Scales: 0.25 0.5 1 1.5 2 2.5 3 3.5 4 4.5 5 5.5 6 6.5 7 7.5 8 8.5 9 9.5 10
# StochasticallyHeated: 0 0 0 0 0 0 0 0 0 0 0 0 0 0 0 0 0 0 0 0 0
# Temperature: -1
# Wavelength  CExt  CAbs  CSca  Albedo G EqEm1 StEm1 EqEm2 StEm2 EqEm3 StEm3 EqEm4 StEm4 EqEm5 StEm5 EqEm6 StEm6 EqEm7 StEm7 EqEm8 StEm8 EqEm9 StEm9 EqEm10 StEm10 EqEm11 StEm11 EqEm12 StEm12 EqEm13 StEm13 EqEm14 StEm14 EqEm15 StEm15 EqEm16 StEm16 EqEm17 StEm17 EqEm18 StEm18 EqEm19 StEm19 EqEm20 StEm20 EqEm21 StEm21
0.05 2.28267e-07 8.30475e-08 1.4522e-07 0.636183 0.00576547 0 0 0 0 0 0 0 0 0 0 0 0 0 0 0 0 0 0 0 0 0 0 0 0 0 0 0 0 0 0 0 0 0 0 0 0 0 0 0 0 0 0
0.0525665 2.52303e-07 9.1792e-08 1.60511e-07 0.636183 0.00637255 0 0 0 0 0 0 0 0 0 0 0 0 0 0 0 0 0 0 0 0 0 0 0 0 0 0 0 0 0 0 0 0 0 0 0 0 0 0 0 0 0 0
0.0552647 2.78869e-07 1.01457e-07 1.77412e-07 0.636183 0.00704355 0 0 0 0 0 0 0 0 0 0 0 0 0 0 0 0 0 0 0 0 0 0 0 0 0 0 0 0 0 0 0 0 0 0 0 0 0 0 0 0 0 0
0.0581015 3.08232e-07 1.1214e-07 1.96092e-07 0.636183 0.0077852 0 0 0 0 0 0 0 0 0 0 0 0 0 0 0 0 0 0 0 0 0 0 0 0 0 0 0 0 0 0 0 0 0 0 0 0 0 0 0 0 0 0
0.0610839 3.40688e-07 1.23948e-07 2.1674e-07 0.636183 0.00860494 0 0 0 0 0 0 0 0 0 0 0 0 0 0 0 0 0 0 0 0 0 0 0 0 0 0 0 0 0 0 0 0 0 0 0 0 0 0 0 0 0 0
0.0642193 3.7656e-07 1.36999e-07 2.39561e-07 0.636183 0.009511 0 0 0 0 0 0 0 0 0 0 0 0 0 0 0 0 0 0 0 0 0 0 0 0 0 0 0 0 0 0 0 0 0 0 0 0 0 0 0 0 0 0
0.0675157 4.1621e-07 1.51424e-07 2.64786e-07 0.636183 0.0105125 0 0 0 0 0 0 0 0 0 0 0 0 0 0 0 0 0 0 0 0 0 0 0 0 0 0 0 0 0 0 0 0 0 0 0 0 0 0 0 0 0 0
0.0709813 4.60035e-07 1.67369e-07 2.92667e-07 0.636183 0.0116194 0 0 0 0 0 0 0 0 0 0 0 0 0 0 0 0 0 0 0 0 0 0 0 0 0 0 0 0 0 0 0 0 0 0 0 0 0 0 0 0 0 0
0.0746248 5.08475e-07 1.84992e-07 3.23483e-07 0.636183 0.0128428 0 0 0 0 0 0 0 0 0 0 0 0 0 0 0 0 0 0 0 0 0 0 0 0 0 0 0 0 0 0 0 0 0 0 0 0 0 0 0 0 0 0
0.0784553 5.62015e-07 2.04471e-07 3.57544e-07 0.636183 0.0141951 0 0 0 0 0 0 0 0 0 0 0 0 0 0 0 0 0 0 0 0 0 0 0 0 0 0 0 0 0 0 0 0 0 0 0 0 0 0 0 0 0 0
0.0824824 6.21192e-07 2.26e-07 3.95192e-07 0.636183 0.0156898 0 0 0 0 0 0 0 0 0 0 0 0 0 0 0 0 0 0 0 0 0 0 0 0 0 0 0 0 0 0 0 0 0 0 0 0 0 0 0 0 0 0
0.0867162 6.86601e-07 2.49797e-07 4.36804e-07 0.636183 0.0173419 0 0 0 0 0 0 0 0 0 0 0 0 0 0 0 0 0 0 0 0 0 0 0 0 0 0 0 0 0 0 0 0 0 0 0 0 0 0 0 0 0 0
0.0911674 7.58897e-07 2.761e-07 4.82797e-07 0.636183 0.0191679 0 0 0 0 0 0 0 0 0 0 0 0 0 0 0 0 0 0 0 0 0 0 0 0 0 0 0 0 0 0 0 0 0 0 0 0 0 0 0 0 0 0
0.095847 8.38805e-07 3.05172e-07 5.33633e-07 0.636183 0.0211862 0 0 0 0 0 0 0 0 0 0 0 0 0 0 0 0 0 0 0 0 0 0 0 0 0 0 0 0 0 0 0 0 0 0 0 0 0 0 0 0 0 0
0.100767 9.13046e-07 3.34841e-07 5.78205e-07 0.63327 0.0235692 0 0 0 0 0 0 0 0 0 0 0 0 0 0 0 0 0 0 0 0 0 0 0 0 0 0 0 0 0 0 0 0 0 0 0 0 0 0 0 0 0 0
0.105939 9.13143e-07 3.49721e-07 5.63422e-07 0.617014 0.0256046 0 0 0 0 0 0 0 0 0 0 0 0 0 0 0 0 0 0 0 0 0 0 0 0 0 0 0 0 0 0 0 0 0 0 0 0 0 0 0 0 0 0
0.111377 9.13783e-07 3.52977e-07 5.60806e-07 0.613719 0.0289403 0 0 0 0 0 0 0 0 0 0 0 0 0 0 0 0 0 0 0 0 0 0 0 0 0 0 0 0 0 0 0 0 0 0 0 0 0 0 0 0 0 0
0.117094 9.13835e-07 3.65438e-07 5.48397e-07 0.600105 0.0274507 0 0 0 0 0 0 0 0 0 0 0 0 0 0 0 0 0 0 0 0 0 0 0 0 0 0 0 0 0 0 0 0 0 0 0 0 0 0 0 0 0 0
0.123105 9.14191e-07 3.79725e-07 5.34467e-07 0.584633 0.0236555 0 0 0 0 0 0 0 0 0 0 0 0 0 0 0 0 0 0 0 0 0 0 0 0 0 0 0 0 0 0 0 0 0 0 0 0 0 0 0 0 0 0
0.129424 9.14792e-07 3.90483e-07 5.24309e-07 0.573146 0.0199126 0 0 0 0 0 0 0 0 0 0 0 0 0 0 0 0 0 0 0 0 0 0 0 0 0 0 0 0 0 0 0 0 0 0 0 0 0 0 0 0 0 0
0.136067 9.1549e-07 3.98902e-07 5.16588e-07 0.564275 0.0168557 0 0 0 0 0 0 0 0 0 0 0 0 0 0 0 0 0 0 0 0 0 0 0 0 0 0 0 0 0 0 0 0 0 0 0 0 0 0 0 0 0 0
0.143051 9.16134e-07 4.05872e-07 5.10262e-07 0.556973 0.0143876 0 0 0 0 0 0 0 0 0 0 0 0 0 0 0 0 0 0 0 0 0 0 0 0 0 0 0 0 0 0 0 0 0 0 0 0 0 0 0 0 0 0
0.150394 9.16628e-07 4.11548e-07 5.0508e-07 0.55102 0.0122986 0 0 0 0 0 0 0 0 0 0 0 0 0 0 0 0 0 0 0 0 0 0 0 0 0 0 0 0 0 0 0 0 0 0 0 0 0 0 0 0 0 0
0.158114 9.16817e-07 4.15212e-07 5.01605e-07 0.547116 0.01055 0 0 0 0 0 0 0 0 0 0 0 0 0 0 0 0 0 0 0 0 0 0 0 0 0 0 0 0 0 0 0 0 0 0 0 0 0 0 0 0 0 0
0.16623 9.16715e-07 4.15038e-07 5.01677e-07 0.547256 0.00908216 0 0 0 0 0 0 0 0 0 0 0 0 0 0 0 0 0 0 0 0 0 0 0 0 0 0 0 0 0 0 0 0 0 0 0 0 0 0 0 0 0 0
0.174762 9.16754e-07 4.09191e-07 5.07563e-07 0.553653 0.00782097 0 0 0 0 0 0 0 0 0 0 0 0 0 0 0 0 0 0 0 0 0 0 0 0 0 0 0 0 0 0 0 0 0 0 0 0 0 0 0 0 0 0
0.183733 9.17615e-07 3.95629e-07 5.21986e-07 0.568851 0.00667218 0 0 0 0 0 0 0 0 0 0 0 0 0 0 0 0 0 0 0 0 0 0 0 0 0 0 0 0 0 0 0 0 0 0 0 0 0 0 0 0 0 0
0.193164 9.19911e-07 3.72164e-07 5.47746e-07 0.595434 0.00556038 0 0 0 0 0 0 0 0 0 0 0 0 0 0 0 0 0 0 0 0 0 0 0 0 0 0 0 0 0 0 0 0 0 0 0 0 0 0 0 0 0 0
0.203079 9.23407e-07 3.42951e-07 5.80456e-07 0.628603 0.00446034 0 0 0 0 0 0 0 0 0 0 0 0 0 0 0 0 0 0 0 0 0 0 0 0 0 0 0 0 0 0 0 0 0 0 0 0 0 0 0 0 0 0
0.213503 9.27676e-07 3.16112e-07 6.11564e-07 0.659243 0.00342932 0 0 0 0 0 0 0 0 0 0 0 0 0 0 0 0 0 0 0 0 0 0 0 0 0 0 0 0 0 0 0 0 0 0 0 0 0 0 0 0 0 0
0.224463 9.32318e-07 2.97277e-07 6.35041e-07 0.681142 0.00254317 0 0 0 0 0 0 0 0 0 0 0 0 0 0 0 0 0 0 0 0 0 0 0 0 0 0 0 0 0 0 0 0 0 0 0 0 0 0 0 0 0 0
0.235984 9.37072e-07 2.87587e-07 6.49485e-07 0.693101 0.00182186 0 0 0 0 0 0 0 0 0 0 0 0 0 0 0 0 0 0 0 0 0 0 0 0 0 0 0 0 0 0 0 0 0 0 0 0 0 0 0 0 0 0
0.248097 9.41338e-07 2.85646e-07 6.55693e-07 0.696554 0.00138916 0 0 0 0 0 0 0 0 0 0 0 0 0 0 0 0 0 0 0 0 0 0 0 0 0 0 0 0 0 0 0 0 0 0 0 0 0 0 0 0 0 0
0.260832 9.43975e-07 2.90465e-07 6.5351e-07 0.692296 0.00141961 0 0 0 0 0 0 0 0 0 0 0 0 0 0 0 0 0 0 0 0 0 0 0 0 0 0 0 0 0 0 0 0 0 0 0 0 0 0 0 0 0 0
0.274221 9.44079e-07 3.01135e-07 6.42944e-07 0.681028 0.00187131 0 0 0 0 0 0 0 0 0 0 0 0 0 0 0 0 0 0 0 0 0 0 0 0 0 0 0 0 0 0 0 0 0 0 0 0 0 0 0 0 0 0
0.288297 9.42716e-07 3.15467e-07 6.27249e-07 0.665363 0.00251556 0 0 0 0 0 0 0 0 0 0 0 0 0 0 0 0 0 0 0 0 0 0 0 0 0 0 0 0 0 0 0 0 0 0 0 0 0 0 0 0 0 0
0.303095 9.41777e-07 3.29771e-07 6.12006e-07 0.649842 0.0028362 0 0 0 0 0 0 0 0 0 0 0 0 0 0 0 0 0 0 0 0 0 0 0 0 0 0 0 0 0 0 0 0 0 0 0 0 0 0 0 0 0 0
0.318653 9.41885e-07 3.41583e-07 6.00302e-07 0.637341 0.00297223 0 0 0 0 0 0 0 0 0 0 0 0 0 0 0 0 0 0 0 0 0 0 0 0 0 0 0 0 0 0 0 0 0 0 0 0 0 0 0 0 0 0
0.335009 9.42826e-07 3.50287e-07 5.92539e-07 0.628472 0.00293231 0 0 0 0 0 0 0 0 0 0 0 0 0 0 0 0 0 0 0 0 0 0 0 0 0 0 0 0 0 0 0 0 0 0 0 0 0 0 0 0 0 0
0.352205 9.44298e-07 3.56221e-07 5.88076e-07 0.622766 0.00278811 0 0 0 0 0 0 0 0 0 0 0 0 0 0 0 0 0 0 0 0 0 0 0 0 0 0 0 0 0 0 0 0 0 0 0 0 0 0 0 0 0 0
0.370284 9.46061e-07 3.59945e-07 5.86116e-07 0.619533 0.00261033 0 0 0 0 0 0 0 0 0 0 0 0 0 0 0 0 0 0 0 0 0 0 0 0 0 0 0 0 0 0 0 0 0 0 0 0 0 0 0 0 0 0
0.389291 9.48034e-07 3.62075e-07 5.85959e-07 0.618078 0.00243645 0 0 0 0 0 0 0 0 0 0 0 0 0 0 0 0 0 0 0 0 0 0 0 0 0 0 0 0 0 0 0 0 0 0 0 0 0 0 0 0 0 0
0.409273 9.50129e-07 3.63238e-07 5.86891e-07 0.617696 0.00226652 0 0 0 0 0 0 0 0 0 0 0 0 0 0 0 0 0 0 0 0 0 0 0 0 0 0 0 0 0 0 0 0 0 0 0 0 0 0 0 0 0 0
0.430281 9.52253e-07 3.63955e-07 5.88299e-07 0.617796 0.00210471 0 0 0 0 0 0 0 0 0 0 0 0 0 0 0 0 0 0 0 0 0 0 0 0 0 0 0 0 0 0 0 0 0 0 0 0 0 0 0 0 0 0
0.452368 9.54453e-07 3.64574e-07 5.89878e-07 0.618028 0.00193723 0 0 0 0 0 0 0 0 0 0 0 0 0 0 0 0 0 0 0 0 0 0 0 0 0 0 0 0 0 0 0 0 0 0 0 0 0 0 0 0 0 0
0.475588 9.56617e-07 3.65279e-07 5.91338e-07 0.618155 0.00177642 0 0 0 0 0 0 0 0 0 0 0 0 0 0 0 0 0 0 0 0 0 0 0 0 0 0 0 0 0 0 0 0 0 0 0 0 0 0 0 0 0 0
0.5 9.58849e-07 3.66132e-07 5.92716e-07 0.618154 0.00162159 0 0 0 0 0 0 0 0 0 0 0 0 0 0 0 0 0 0 0 0 0 0 0 0 0 0 0 0 0 0 0 0 0 0 0 0 0 0 0 0 0 0
0.525665 9.61133e-07 3.67108e-07 5.94026e-07 0.618047 0.0014751 0 0 0 0 0 0 0 0 0 0 0 0 0 0 0 0 0 0 0 0 0 0 0 0 0 0 0 0 0 0 0 0 0 0 0 0 0 0 0 0 0 0
0.552648 9.63511e-07 3.68149e-07 5.95362e-07 0.617909 0.00134175 0 0 0 0 0 0 0 0 0 0 0 0 0 0 0 0 0 0 0 0 0 0 0 0 0 0 0 0 0 0 0 0 0 0 0 0 0 0 0 0 0 0
0.581015 9.65985e-07 3.69186e-07 5.968e-07 0.617814 0.00121775 0 0 0 0 0 0 0 0 0 0 0 0 0 0 0 0 0 0 0 0 0 0 0 0 0 0 0 0 0 0 0 0 0 0 0 0 0 0 0 0 0 0
0.610839 9.68572e-07 3.7016e-07 5.98412e-07 0.617829 0.00110516 0 0 0 0 0 0 0 0 0 0 0 0 0 0 0 0 0 0 0 0 0 0 0 0 0 0 0 0 0 0 0 0 0 0 0 0 0 0 0 0 0 0
0.642193 9.71303e-07 3.7102e-07 6.00284e-07 0.618019 0.00100302 0 0 0 0 0 0 0 0 0 0 0 0 0 0 0 0 0 0 0 0 0 0 0 0 0 0 0 0 0 0 0 0 0 0 0 0 0 0 0 0 0 0
0.675157 9.74132e-07 3.71732e-07 6.024e-07 0.618397 0.000910957 0 0 0 0 0 0 0 0 0 0 0 0 0 0 0 0 0 0 0 0 0 0 0 0 0 0 0 0 0 0 0 0 0 0 0 0 0 0 0 0 0 0
0.709813 9.77113e-07 3.72279e-07 6.04834e-07 0.619001 0.00082817 0 0 0 0 0 0 0 0 0 0 0 0 0 0 0 0 0 0 0 0 0 0 0 0 0 0 0 0 0 0 0 0 0 0 0 0 0 0 0 0 0 0
0.746248 9.80197e-07 3.72665e-07 6.07532e-07 0.619806 0.000754183 0 0 0 0 0 0 0 0 0 0 0 0 0 0 0 0 0 0 0 0 0 0 0 0 0 0 0 0 0 0 0 0 0 0 0 0 0 0 0 0 0 0
0.784553 9.83396e-07 3.72875e-07 6.10521e-07 0.620829 0.000686995 0 0 0 0 0 0 0 0 0 0 0 0 0 0 0 0 0 0 0 0 0 0 0 0 0 0 0 0 0 0 0 0 0 0 0 0 0 0 0 0 0 0
0.824824 9.86726e-07 3.72939e-07 6.13787e-07 0.622044 0.000626788 0 0 0 0 0 0 0 0 0 0 0 0 0 0 0 0 0 0 0 0 0 0 0 0 0 0 0 0 0 0 0 0 0 0 0 0 0 0 0 0 0 0
0.867162 9.9013e-07 3.72856e-07 6.17274e-07 0.623428 0.000572518 0 0 0 0 0 0 0 0 0 0 0 0 0 0 0 0 0 0 0 0 0 0 0 0 0 0 0 0 0 0 0 0 0 0 0 0 0 0 0 0 0 0
0.911674 9.93609e-07 3.72655e-07 6.20954e-07 0.624948 0.000523427 0 0 0 0 0 0 0 0 0 0 0 0 0 0 0 0 0 0 0 0 0 0 0 0 0 0 0 0 0 0 0 0 0 0 0 0 0 0 0 0 0 0
0.95847 9.97141e-07 3.72347e-07 6.24794e-07 0.626585 0.00047944 0 0 0 0 0 0 0 0 0 0 0 0 0 0 0 0 0 0 0 0 0 0 0 0 0 0 0 0 0 0 0 0 0 0 0 0 0 0 0 0 0 0
1.00767 1.00072e-06 3.7196e-07 6.28759e-07 0.628307 0.0004395 0 0 0 0 0 0 0 0 0 0 0 0 0 0 0 0 0 0 0 0 0 0 0 0 0 0 0 0 0 0 0 0 0 0 0 0 0 0 0 0 0 0
1.05939 1.00435e-06 3.71504e-07 6.32849e-07 0.630106 0.000403275 0 0 0 0 0 0 0 0 0 0 0 0 0 0 0 0 0 0 0 0 0 0 0 0 0 0 0 0 0 0 0 0 0 0 0 0 0 0 0 0 0 0
1.11377 1.00798e-06 3.71009e-07 6.36972e-07 0.631929 0.000370298 0 0 0 0 0 0 0 0 0 0 0 0 0 0 0 0 0 0 0 0 0 0 0 0 0 0 0 0 0 0 0 0 0 0 0 0 0 0 0 0 0 0
1.17094 1.01161e-06 3.70475e-07 6.41139e-07 0.633778 0.000339515 0 0 0 0 0 0 0 0 0 0 0 0 0 0 0 0 0 0 0 0 0 0 0 0 0 0 0 0 0 0 0 0 0 0 0 0 0 0 0 0 0 0
1.23105 1.01523e-06 3.69919e-07 6.45313e-07 0.635631 0.000311294 0 0 0 0 0 0 0 0 0 0 0 0 0 0 0 0 0 0 0 0 0 0 0 0 0 0 0 0 0 0 0 0 0 0 0 0 0 0 0 0 0 0
1.29424 1.01881e-06 3.69354e-07 6.49457e-07 0.637466 0.000285362 0 0 0 0 0 0 0 0 0 0 0 0 0 0 0 0 0 0 0 0 0 0 0 0 0 0 0 0 0 0 0 0 0 0 0 0 0 0 0 0 0 0
1.36067 1.02238e-06 3.6879e-07 6.53587e-07 0.639282 0.000261742 0 0 0 0 0 0 0 0 0 0 0 0 0 0 0 0 0 0 0 0 0 0 0 0 0 0 0 0 0 0 0 0 0 0 0 0 0 0 0 0 0 0
1.43051 1.02588e-06 3.68234e-07 6.5765e-07 0.641057 0.000240209 0 0 0 0 0 0 0 0 0 0 0 0 0 0 0 0 0 0 0 0 0 0 0 0 0 0 0 0 0 0 0 0 0 0 0 0 0 0 0 0 0 0
1.50394 1.02934e-06 3.67706e-07 6.61636e-07 0.642775 0.000220279 0 0 0 0 0 0 0 0 0 0 0 0 0 0 0 0 0 0 0 0 0 0 0 0 0 0 0 0 0 0 0 0 0 0 0 0 0 0 0 0 0 0
1.58114 1.03275e-06 3.67208e-07 6.65546e-07 0.644438 0.000201732 0 0 0 0 0 0 0 0 0 0 0 0 0 0 0 0 0 0 0 0 0 0 0 0 0 0 0 0 0 0 0 0 0 0 0 0 0 0 0 0 0 0
1.6623 1.03614e-06 3.66755e-07 6.69389e-07 0.646039 0.000184534 0 0 0 0 0 0 0 0 0 0 0 0 0 0 0 0 0 0 0 0 0 0 0 0 0 0 0 0 0 0 0 0 0 0 0 0 0 0 0 0 0 0
1.74763 1.03946e-06 3.66348e-07 6.73107e-07 0.647557 0.000169005 0 0 0 0 0 0 0 0 0 0 0 0 0 0 0 0 0 0 0 0 0 0 0 0 0 0 0 0 0 0 0 0 0 0 0 0 0 0 0 0 0 0
1.83733 1.04277e-06 3.66004e-07 6.76762e-07 0.649007 0.000154804 0 0 0 0 0 0 0 0 0 0 0 0 0 0 0 0 0 0 0 0 0 0 0 0 0 0 0 0 0 0 0 0 0 0 0 0 0 0 0 0 0 0
1.93164 1.04602e-06 3.65733e-07 6.80289e-07 0.650358 0.000141793 0 0 0 0 0 0 0 0 0 0 0 0 0 0 0 0 0 0 0 0 0 0 0 0 0 0 0 0 0 0 0 0 0 0 0 0 0 0 0 0 0 0
2.03079 1.04924e-06 3.65535e-07 6.83703e-07 0.651619 0.000129725 0 0 0 0 0 0 0 0 0 0 0 0 0 0 0 0 0 0 0 0 0 0 0 0 0 0 0 0 0 0 0 0 0 0 0 0 0 0 0 0 0 0
2.13503 1.05247e-06 3.65445e-07 6.87023e-07 0.652773 0.000118657 0 0 0 0 0 0 0 0 0 0 0 0 0 0 0 0 0 0 0 0 0 0 0 0 0 0 0 0 0 0 0 0 0 0 0 0 0 0 0 0 0 0
2.24463 1.05566e-06 3.65434e-07 6.90226e-07 0.653833 0.000108569 0 0 0 0 0 0 0 0 0 0 0 0 0 0 0 0 0 0 0 0 0 0 0 0 0 0 0 0 0 0 0 0 0 0 0 0 0 0 0 0 0 0
2.35984 1.05888e-06 3.65556e-07 6.93324e-07 0.654771 9.92926e-05 0 0 0 0 0 0 0 0 0 0 0 0 0 0 0 0 0 0 0 0 0 0 0 0 0 0 0 0 0 0 0 0 0 0 0 0 0 0 0 0 0 0
2.48097 1.0621e-06 3.6578e-07 6.9632e-07 0.655607 9.07218e-05 0 0 0 0 0 0 0 0 0 0 0 0 0 0 0 0 0 0 0 0 0 0 0 0 0 0 0 0 0 0 0 0 0 0 0 0 0 0 0 0 0 0
2.60832 1.06535e-06 3.66154e-07 6.99197e-07 0.656307 8.27967e-05 0 0 0 0 0 0 0 0 0 0 0 0 0 0 0 0 0 0 0 0 0 0 0 0 0 0 0 0 0 0 0 0 0 0 0 0 0 0 0 0 0 0
2.74221 1.06864e-06 3.66648e-07 7.01993e-07 0.656902 7.55862e-05 0 0 0 0 0 0 0 0 0 0 0 0 0 0 0 0 0 0 0 0 0 0 0 0 0 0 0 0 0 0 0 0 0 0 0 0 0 0 0 0 0 0
2.88297 1.07199e-06 3.67328e-07 7.04664e-07 0.65734 6.90729e-05 0 0 0 0 0 0 0 0 0 0 0 0 0 0 0 0 0 0 0 0 0 0 0 0 0 0 0 0 0 0 0 0 0 0 0 0 0 0 0 0 0 0
3.03095 1.07539e-06 3.68115e-07 7.07273e-07 0.657691 6.31538e-05 0 0 0 0 0 0 0 0 0 0 0 0 0 0 0 0 0 0 0 0 0 0 0 0 0 0 0 0 0 0 0 0 0 0 0 0 0 0 0 0 0 0
3.18653 1.07892e-06 3.69143e-07 7.09778e-07 0.657859 5.76567e-05 0 0 0 0 0 0 0 0 0 0 0 0 0 0 0 0 0 0 0 0 0 0 0 0 0 0 0 0 0 0 0 0 0 0 0 0 0 0 0 0 0 0
3.35009 1.08242e-06 3.70249e-07 7.12171e-07 0.657943 5.2603e-05 0 0 0 0 0 0 0 0 0 0 0 0 0 0 0 0 0 0 0 0 0 0 0 0 0 0 0 0 0 0 0 0 0 0 0 0 0 0 0 0 0 0
3.52205 1.08618e-06 3.71619e-07 7.14561e-07 0.657866 4.80102e-05 0 0 0 0 0 0 0 0 0 0 0 0 0 0 0 0 0 0 0 0 0 0 0 0 0 0 0 0 0 0 0 0 0 0 0 0 0 0 0 0 0 0
3.70284 1.08993e-06 3.73186e-07 7.1674e-07 0.657604 4.38066e-05 0 0 0 0 0 0 0 0 0 0 0 0 0 0 0 0 0 0 0 0 0 0 0 0 0 0 0 0 0 0 0 0 0 0 0 0 0 0 0 0 0 0
3.89291 1.09374e-06 3.74798e-07 7.18942e-07 0.657324 3.9926e-05 0 0 0 0 0 0 0 0 0 0 0 0 0 0 0 0 0 0 0 0 0 0 0 0 0 0 0 0 0 0 0 0 0 0 0 0 0 0 0 0 0 0
4.09273 1.09798e-06 3.76823e-07 7.21153e-07 0.656802 3.62643e-05 0 0 0 0 0 0 0 0 0 0 0 0 0 0 0 0 0 0 0 0 0 0 0 0 0 0 0 0 0 0 0 0 0 0 0 0 0 0 0 0 0 0
4.30281 1.10211e-06 3.79034e-07 7.23075e-07 0.656083 3.29535e-05 0 0 0 0 0 0 0 0 0 0 0 0 0 0 0 0 0 0 0 0 0 0 0 0 0 0 0 0 0 0 0 0 0 0 0 0 0 0 0 0 0 0
4.52368 1.10618e-06 3.81174e-07 7.25003e-07 0.655413 2.99416e-05 0 0 0 0 0 0 0 0 0 0 0 0 0 0 0 0 0 0 0 0 0 0 0 0 0 0 0 0 0 0 0 0 0 0 0 0 0 0 0 0 0 0
4.75588 1.11091e-06 3.83742e-07 7.27167e-07 0.654569 2.71796e-05 0 0 0 0 0 0 0 0 0 0 0 0 0 0 0 0 0 0 0 0 0 0 0 0 0 0 0 0 0 0 0 0 0 0 0 0 0 0 0 0 0 0
5 1.11586e-06 3.86808e-07 7.29054e-07 0.653355 2.45398e-05 0 0 0 0 0 0 0 0 0 0 0 0 0 0 0 0 0 0 0 0 0 0 0 0 0 0 0 0 0 0 0 0 0 0 0 0 0 0 0 0 0 0
5.25665 1.12023e-06 3.89724e-07 7.30506e-07 0.652104 2.21678e-05 0 0 0 0 0 0 0 0 0 0 0 0 0 0 0 0 0 0 0 0 0 0 0 0 0 0 0 0 0 0 0 0 0 0 0 0 0 0 0 0 0 0
5.52648 1.12479e-06 3.92531e-07 7.32255e-07 0.651017 2.00489e-05 0 0 0 0 0 0 0 0 0 0 0 0 0 0 0 0 0 0 0 0 0 0 0 0 0 0 0 0 0 0 0 0 0 0 0 0 0 0 0 0 0 0
5.81015 1.13047e-06 3.95947e-07 7.34523e-07 0.64975 1.8115e-05 0 0 0 0 0 0 0 0 0 0 0 0 0 0 0 0 0 0 0 0 0 0 0 0 0 0 0 0 0 0 0 0 0 0 0 0 0 0 0 0 0 0
6.10839 1.1365e-06 3.99881e-07 7.36618e-07 0.648146 1.63023e-05 0 0 0 0 0 0 0 0 0 0 0 0 0 0 0 0 0 0 0 0 0 0 0 0 0 0 0 0 0 0 0 0 0 0 0 0 0 0 0 0 0 0
6.42193 1.14186e-06 4.05362e-07 7.36494e-07 0.644997 1.48144e-05 0 0 0 0 0 0 0 0 0 0 0 0 0 0 0 0 0 0 0 0 0 0 0 0 0 0 0 0 0 0 0 0 0 0 0 0 0 0 0 0 0 0
6.75157 1.14622e-06 4.08309e-07 7.37911e-07 0.643778 1.32279e-05 0 0 0 0 0 0 0 0 0 0 0 0 0 0 0 0 0 0 0 0 0 0 0 0 0 0 0 0 0 0 0 0 0 0 0 0 0 0 0 0 0 0
7.09813 1.15149e-06 4.11852e-07 7.39638e-07 0.642332 1.18448e-05 0 0 0 0 0 0 0 0 0 0 0 0 0 0 0 0 0 0 0 0 0 0 0 0 0 0 0 0 0 0 0 0 0 0 0 0 0 0 0 0 0 0
7.46248 1.15875e-06 4.16489e-07 7.42261e-07 0.640571 1.05694e-05 0 0 0 0 0 0 0 0 0 0 0 0 0 0 0 0 0 0 0 0 0 0 0 0 0 0 0 0 0 0 0 0 0 0 0 0 0 0 0 0 0 0
7.84553 1.16692e-06 4.22356e-07 7.44559e-07 0.638058 9.34187e-06 0 0 0 0 0 0 0 0 0 0 0 0 0 0 0 0 0 0 0 0 0 0 0 0 0 0 0 0 0 0 0 0 0 0 0 0 0 0 0 0 0 0
8.24824 1.17384e-06 4.2849e-07 7.45354e-07 0.634969 8.19911e-06 0 0 0 0 0 0 0 0 0 0 0 0 0 0 0 0 0 0 0 0 0 0 0 0 0 0 0 0 0 0 0 0 0 0 0 0 0 0 0 0 0 0
8.67162 1.17838e-06 4.33803e-07 7.44581e-07 0.631866 7.20916e-06 0 0 0 0 0 0 0 0 0 0 0 0 0 0 0 0 0 0 0 0 0 0 0 0 0 0 0 0 0 0 0 0 0 0 0 0 0 0 0 0 0 0
9.11674 1.18159e-06 4.38039e-07 7.43553e-07 0.629281 6.32492e-06 0 0 0 0 0 0 0 0 0 0 0 0 0 0 0 0 0 0 0 0 0 0 0 0 0 0 0 0 0 0 0 0 0 0 0 0 0 0 0 0 0 0
9.5847 1.18588e-06 4.42013e-07 7.43869e-07 0.627271 5.52644e-06 0 0 0 0 0 0 0 0 0 0 0 0 0 0 0 0 0 0 0 0 0 0 0 0 0 0 0 0 0 0 0 0 0 0 0 0 0 0 1.4013e-45 0 2.8026e-45 0
10.0767 1.19374e-06 4.47085e-07 7.46655e-07 0.625475 4.78203e-06 0 0 0 0 0 0 0 0 0 0 0 0 0 0 0 0 0 0 0 0 0 0 0 0 0 0 0 0 0 0 2.8026e-45 0 7.00649e-45 0 2.10195e-44 0 6.02558e-44 0 1.58347e-43 0 3.93765e-43 0
10.5939 1.20571e-06 4.54298e-07 7.51407e-07 0.623209 4.06995e-06 0 0 0 0 0 0 0 0 0 0 0 0 0 0 0 0 0 0 0 0 0 0 1.4013e-45 0 8.40779e-45 0 3.22299e-44 0 1.20512e-43 0 4.1058e-43 0 1.25837e-42 0 3.52707e-42 0 9.26398e-42 0 2.33891e-41 0 5.564e-41 0
11.1377 1.21944e-06 4.6414e-07 7.55302e-07 0.619383 3.40803e-06 0 0 0 0 0 0 0 0 0 0 0 0 0 0 0 0 1.4013e-45 0 8.40779e-45 0 5.32493e-44 0 2.87266e-43 0 1.31582e-42 0 5.12735e-42 0 1.80165e-41 0 5.7414e-41 0 1.66888e-40 0 4.4467e-40 0 1.11426e-39 0 2.68877e-39 0 6.13124e-39 0
11.7094 1.22548e-06 4.6478e-07 7.60702e-07 0.620737 2.82232e-06 0 0 0 0 0 0 0 0 0 0 0 0 1.4013e-45 0 1.54143e-44 0 1.7236e-43 0 1.32142e-42 0 7.91874e-42 0 3.96862e-41 0 1.6867e-40 0 6.1526e-40 0 2.03314e-39 0 6.12284e-39 0 1.6894e-38 0 4.29106e-38 0 1.0281e-37 0 2.37642e-37 0 5.20522e-37 0
12.3105 1.23228e-06 4.78087e-07 7.54192e-07 0.61203 2.20615e-06 0 0 0 0 0 0 0 0 0 0 7.00649e-45 0 1.77965e-43 0 2.54055e-42 0 2.47483e-41 0 1.71939e-40 0 9.44044e-40 0 4.37308e-39 0 1.73183e-38 0 5.93042e-38 0 1.84862e-37 0 5.27544e-37 0 1.38521e-36 0 3.36189e-36 0 7.71841e-36 0 1.71257e-35 0 3.61027e-35 0
12.9424 1.23172e-06 4.85491e-07 7.46231e-07 0.605844 1.60871e-06 0 0 0 0 0 0 0 0 2.24208e-44 0 1.12244e-42 0 2.49936e-41 0 3.12579e-40 0 2.72523e-39 0 1.72244e-38 0 8.70258e-38 0 3.74056e-37 0 1.38507e-36 0 4.46634e-36 0 1.31706e-35 0 3.57094e-35 0 8.94479e-35 0 2.07891e-34 0 4.58308e-34 0 9.78093e-34 0 1.98819e-33 0
13.6067 1.22804e-06 4.91081e-07 7.36958e-07 0.60011 1.1081e-06 0 0 0 0 0 0 2.24208e-44 0 3.38834e-42 0 1.41633e-40 0 2.70889e-39 0 2.9948e-38 0 2.34906e-37 0 1.35687e-36 0 6.33427e-36 0 2.53551e-35 0 8.80728e-35 0 2.68223e-34 0 7.50275e-34 0 1.93752e-33 0 4.6405e-33 0 1.03502e-32 0 2.19537e-32 0 4.51498e-32 0 8.86525e-32 0
14.3051 1.22347e-06 4.94807e-07 7.28668e-07 0.595572 6.74396e-07 0 0 0 0 2.8026e-45 0 3.46681e-42 0 3.9857e-40 0 1.38869e-38 0 2.29962e-37 0 2.2609e-36 0 1.60374e-35 0 8.50339e-35 0 3.68195e-34 0 1.37733e-33 0 4.50205e-33 0 1.29853e-32 0 3.45433e-32 0 8.51675e-32 0 1.95466e-31 0 4.19224e-31 0 8.57158e-31 0 1.70185e-30 0 3.23332e-30 0
15.0394 1.22105e-06 4.97169e-07 7.23877e-07 0.592834 2.84373e-07 0 0 0 0 4.51218e-43 0 4.01454e-40 0 3.66136e-38 0 1.07264e-36 0 1.54876e-35 0 1.3619e-34 0 8.77921e-34 0 4.29085e-33 0 1.72963e-32 0 6.06649e-32 0 1.87153e-31 0 5.12598e-31 0 1.3e-30 0 3.06704e-30 0 6.7593e-30 0 1.39668e-29 0 2.7577e-29 0 5.29497e-29 0 9.74951e-29 0
15.8114 1.22592e-06 5.00209e-07 7.2571e-07 0.591972 -8.11128e-08 0 0 0 0 5.71379e-41 0 3.64751e-38 0 2.66875e-36 0 6.62983e-35 0 8.40274e-34 0 6.64484e-33 0 3.91094e-32 0 1.76899e-31 0 6.66156e-31 0 2.19762e-30 0 6.41689e-30 0 1.67317e-29 0 4.05484e-29 0 9.17378e-29 0 1.94525e-28 0 3.87955e-28 0 7.40979e-28 0 1.37813e-27 0 2.463e-27 0
16.623 1.24232e-06 5.05634e-07 7.36687e-07 0.592992 -4.4917e-07 0 0 5.74532e-44 0 5.66872e-39 0 2.63998e-36 0 1.56635e-34 0 3.32633e-33 0 3.72421e-32 0 2.66227e-31 0 1.43702e-30 0 6.03816e-30 0 2.13128e-29 0 6.63297e-29 0 1.83806e-28 0 4.57354e-28 0 1.06149e-27 0 2.30771e-27 0 4.71704e-27 0 9.09574e-27 0 1.68322e-26 0 3.03717e-26 0 5.27633e-26 0
