# 4.3758e-08 0 2 : grain size, compostion index, size index
# This grain was stochastically heated: Yes
# Heating and cooling timescale: 1.13329e+07 1.2199
# Ratio of heating to cooling to determine stochastic cutoff: 100
# Equilibrium emission is recorded even for those grains in the stochastic regime.
# Emission spectrum was computed for: 
# Type: IRSF
# Scale: 1
# Temperature: -1
# Wavelength  CExt  CAbs  CSca  Albedo G EqEmission StEmission
0.05 3.56095e-16 3.56072e-16 2.28093e-20 6.4054e-05 0.000418448 0 1.14829e-58
0.0525665 4.12395e-16 4.1237e-16 2.44539e-20 5.92973e-05 0.000372744 0 1.32894e-56
0.0552647 4.75876e-16 4.7585e-16 2.61952e-20 5.50462e-05 0.000331921 0 1.21559e-54
0.0581015 5.59042e-16 5.59014e-16 2.76305e-20 4.94248e-05 0.000295412 0 9.08321e-53
0.0610839 7.75757e-16 7.75728e-16 2.93728e-20 3.78634e-05 0.000260175 0 6.50415e-51
0.0642193 9.80399e-16 9.80366e-16 3.27172e-20 3.33713e-05 0.000225026 0 3.47727e-49
0.0675157 1.17271e-15 1.17267e-15 3.84316e-20 3.27716e-05 0.00018961 0 1.45688e-47
0.0709813 1.34738e-15 1.34734e-15 3.96482e-20 2.94262e-05 0.000158967 0 4.90087e-46
0.0746248 1.25881e-15 1.25878e-15 3.46e-20 2.74862e-05 0.000137131 0 1.1308e-44
0.0784553 9.89197e-16 9.8917e-16 2.68289e-20 2.71219e-05 0.000122607 0 1.86721e-43
0.0824824 7.85187e-16 7.85168e-16 1.88699e-20 2.40324e-05 0.000114627 0 2.67198e-42
0.0867162 6.57749e-16 6.57734e-16 1.45424e-20 2.21093e-05 0.000110079 0 3.49029e-41
0.0911674 5.73931e-16 5.73919e-16 1.21992e-20 2.12555e-05 0.000106902 0 4.14352e-40
0.095847 5.13635e-16 5.13625e-16 9.67926e-21 1.88446e-05 0.00011272 0 4.45097e-39
0.100767 4.50896e-16 4.5089e-16 6.6049e-21 1.46484e-05 0.000131469 0 4.21988e-38
0.105939 3.93119e-16 3.93114e-16 4.57654e-21 1.16416e-05 0.000141825 0 3.72966e-37
0.111377 3.37375e-16 3.37372e-16 2.79981e-21 8.29882e-06 0.000162313 0 3.31123e-36
0.117094 2.85958e-16 2.85956e-16 1.74586e-21 6.10531e-06 0.000148626 0 3.27788e-35
0.123105 2.40378e-16 2.40377e-16 1.13769e-21 4.7329e-06 0.000127508 0 3.693e-34
0.129424 2.02204e-16 2.02203e-16 7.31901e-22 3.61962e-06 0.000107236 0 4.36216e-33
0.136067 1.83381e-16 1.8338e-16 4.74208e-22 2.58592e-06 9.07305e-05 0 5.29628e-32
0.143051 1.6644e-16 1.6644e-16 3.11484e-22 1.87145e-06 7.73951e-05 0 5.84429e-31
0.150394 1.57223e-16 1.57222e-16 2.12208e-22 1.34973e-06 6.60669e-05 0 5.99253e-30
0.158114 1.55399e-16 1.55399e-16 1.60491e-22 1.03276e-06 5.65748e-05 0 5.72299e-29
0.16623 1.61573e-16 1.61573e-16 1.4825e-22 9.17541e-07 4.86353e-05 0 5.1296e-28
0.174762 1.77016e-16 1.77016e-16 1.7863e-22 1.00912e-06 4.18185e-05 0 4.34071e-27
0.183733 2.04525e-16 2.04525e-16 2.5508e-22 1.24718e-06 3.56165e-05 0 3.48738e-26
0.193164 2.53166e-16 2.53166e-16 4.05179e-22 1.60045e-06 2.9638e-05 0 2.71548e-25
0.203079 3.31602e-16 3.31602e-16 6.18327e-22 1.86466e-06 2.37668e-05 0 2.03375e-24
0.213503 4.08506e-16 4.08505e-16 7.58631e-22 1.85709e-06 1.82791e-05 0 1.30816e-23
0.224463 3.923e-16 3.92299e-16 6.30166e-22 1.60634e-06 1.35334e-05 0 6.01605e-23
0.235984 3.03144e-16 3.03144e-16 4.27435e-22 1.41001e-06 9.6588e-06 0 2.05039e-22
0.248097 2.2896e-16 2.2896e-16 2.76655e-22 1.20831e-06 7.39896e-06 0 6.31586e-22
0.260832 1.83246e-16 1.83246e-16 1.89994e-22 1.03682e-06 7.69957e-06 0 1.9135e-21
0.274221 1.55874e-16 1.55874e-16 1.37038e-22 8.79158e-07 1.02959e-05 0 5.73963e-21
0.288297 1.3879e-16 1.3879e-16 1.02141e-22 7.35942e-07 1.38132e-05 0 1.68448e-20
0.303095 1.25665e-16 1.25665e-16 7.87092e-23 6.26342e-07 1.54875e-05 0 4.71428e-20
0.318653 1.09655e-16 1.09654e-16 6.12884e-23 5.58923e-07 1.61593e-05 0 1.19606e-19
0.335009 9.62346e-17 9.62346e-17 4.82743e-23 5.01632e-07 1.58905e-05 0 2.87928e-19
0.352205 8.38267e-17 8.38267e-17 3.84925e-23 4.59191e-07 1.50778e-05 0 6.50844e-19
0.370284 7.23674e-17 7.23674e-17 3.09643e-23 4.27877e-07 1.40959e-05 0 1.38306e-18
0.389291 6.17436e-17 6.17435e-17 2.51001e-23 4.06521e-07 1.31418e-05 0 2.76215e-18
0.409273 5.16818e-17 5.16818e-17 2.04072e-23 3.94862e-07 1.22156e-05 0 5.15872e-18
0.430281 4.12472e-17 4.12472e-17 1.66082e-23 4.02649e-07 1.13356e-05 0 8.77656e-18
0.452368 2.81004e-17 2.81004e-17 1.35144e-23 4.80931e-07 1.04268e-05 2.00654e-298 1.22034e-17
0.475588 1.68822e-17 1.68822e-17 1.10042e-23 6.51823e-07 9.55638e-06 3.30624e-284 1.43564e-17
0.5 1.31216e-17 1.31216e-17 8.98383e-24 6.84658e-07 8.72135e-06 1.37347e-270 2.10043e-17
0.525665 9.5975e-18 9.59749e-18 7.34228e-24 7.6502e-07 7.93183e-06 1.13336e-257 2.78512e-17
0.552647 4.08729e-18 4.08728e-18 6.00292e-24 1.46868e-06 7.2126e-06 1.23997e-245 2.07454e-17
0.581015 1.24874e-18 1.24873e-18 4.93179e-24 3.94943e-06 6.54424e-06 2.38255e-234 1.07134e-17
0.610839 4.46612e-19 4.46608e-19 4.05297e-24 9.07494e-06 5.9388e-06 1.40522e-223 6.26942e-18
0.642193 1.85186e-19 1.85183e-19 3.33019e-24 1.79829e-05 5.38958e-06 2.68945e-213 4.12368e-18
0.675157 8.48744e-20 8.48717e-20 2.73944e-24 3.22764e-05 4.89349e-06 1.69471e-203 2.91078e-18
0.709813 4.19531e-20 4.19508e-20 2.2573e-24 5.38054e-05 4.44856e-06 3.6395e-194 2.15448e-18
0.746248 2.16688e-20 2.1667e-20 1.86035e-24 8.58536e-05 4.05103e-06 2.73055e-185 1.62232e-18
0.784553 1.15314e-20 1.15299e-20 1.53272e-24 0.000132916 3.68994e-06 7.44308e-177 1.22698e-18
0.824824 6.2812e-21 6.27993e-21 1.26251e-24 0.000200998 3.36596e-06 7.70544e-169 9.27088e-19
0.867162 3.50046e-21 3.49942e-21 1.04032e-24 0.000297196 3.07444e-06 3.17867e-161 7.00341e-19
0.911674 1.98258e-21 1.98173e-21 8.56775e-25 0.000432151 2.81069e-06 5.43463e-154 5.26012e-19
0.95847 1.14845e-21 1.14774e-21 7.05029e-25 0.000613898 2.57428e-06 4.04907e-147 3.9573e-19
1.00767 6.93002e-22 6.92421e-22 5.802e-25 0.000837228 2.35968e-06 1.39586e-140 3.04053e-19
1.05939 4.46257e-22 4.45779e-22 4.77272e-25 0.0010695 2.16499e-06 2.37329e-134 2.4467e-19
1.11377 3.15744e-22 3.15352e-22 3.92482e-25 0.00124304 1.98777e-06 2.12781e-128 2.12527e-19
1.17094 2.5153e-22 2.51207e-22 3.22616e-25 0.00128262 1.82234e-06 1.06857e-122 2.04403e-19
1.23105 2.25836e-22 2.25571e-22 2.65309e-25 0.00117479 1.6709e-06 3.11336e-117 2.18091e-19
1.29424 2.22204e-22 2.21985e-22 2.18251e-25 0.000982213 1.53155e-06 5.28511e-112 2.51194e-19
1.36067 2.32073e-22 2.31894e-22 1.79436e-25 0.000773186 1.40443e-06 5.22167e-107 3.02748e-19
1.43051 2.50893e-22 2.50745e-22 1.47455e-25 0.00058772 1.28895e-06 3.01511e-102 3.726e-19
1.50394 2.76397e-22 2.76275e-22 1.21218e-25 0.000438565 1.18203e-06 1.03001e-97 4.61317e-19
1.58114 3.07589e-22 3.07489e-22 9.96508e-26 0.000323974 1.08246e-06 2.11912e-93 5.69982e-19
1.6623 3.44428e-22 3.44346e-22 8.19296e-26 0.000237871 9.89795e-07 2.68237e-89 7.00505e-19
1.74762 3.87528e-22 3.8746e-22 6.73667e-26 0.000173837 9.06557e-07 2.13674e-85 8.55665e-19
1.83733 4.38011e-22 4.37956e-22 5.53867e-26 0.00012645 8.30689e-07 1.09564e-81 1.03919e-18
1.93164 4.97587e-22 4.97542e-22 4.55197e-26 9.14808e-05 7.60708e-07 3.69781e-78 1.25614e-18
2.03079 5.6887e-22 5.68833e-22 3.74018e-26 6.57474e-05 6.95633e-07 8.39674e-75 1.51398e-18
2.13503 6.56164e-22 6.56133e-22 3.07556e-26 4.68718e-05 6.36578e-07 1.31164e-71 1.82487e-18
2.24463 7.65968e-22 7.65943e-22 2.52789e-26 3.30025e-05 5.82655e-07 1.44042e-68 2.20755e-18
2.35984 9.09643e-22 9.09622e-22 2.07696e-26 2.28327e-05 5.32721e-07 1.13799e-65 2.6952e-18
2.48097 1.10891e-21 1.10889e-21 1.70616e-26 1.5386e-05 4.86989e-07 6.63776e-63 3.35225e-18
2.60832 1.41146e-21 1.41144e-21 1.40275e-26 9.9383e-06 4.44238e-07 2.9546e-60 4.32196e-18
2.74221 1.93212e-21 1.93211e-21 1.15289e-26 5.96697e-06 4.05077e-07 1.04972e-57 5.95125e-18
2.88297 3.02871e-21 3.0287e-21 9.46816e-27 3.12613e-06 3.70906e-07 3.21603e-55 9.32189e-18
3.03095 6.41055e-21 6.41054e-21 7.77707e-27 1.21317e-06 3.38264e-07 1.01582e-52 1.95905e-17
3.18653 3.51147e-20 3.51147e-20 6.38909e-27 1.81949e-07 3.08926e-07 6.42428e-50 1.05897e-16
3.35009 1.92169e-19 1.92169e-19 5.2471e-27 2.73046e-08 2.82264e-07 3.18007e-47 5.68549e-16
3.52205 1.05932e-20 1.05932e-20 4.30719e-27 4.06599e-07 2.57196e-07 1.25709e-46 3.05732e-17
3.70284 4.62417e-21 4.62417e-21 3.53718e-27 7.64933e-07 2.3519e-07 3.1554e-45 1.29481e-17
3.89291 3.35302e-21 3.35302e-21 2.90376e-27 8.66015e-07 2.14765e-07 1.06639e-43 9.06125e-18
4.09273 3.07009e-21 3.07009e-21 2.38345e-27 7.76345e-07 1.94519e-07 3.72671e-42 7.96686e-18
4.30281 3.1728e-21 3.1728e-21 1.95597e-27 6.16481e-07 1.77367e-07 1.21556e-40 7.86774e-18
4.52368 3.53615e-21 3.53615e-21 1.60565e-27 4.54067e-07 1.60234e-07 3.56883e-39 8.34018e-18
4.75588 4.22005e-21 4.22004e-21 1.31756e-27 3.12214e-07 1.46432e-07 9.44719e-38 9.42426e-18
5 5.77696e-21 5.77696e-21 1.08084e-27 1.87095e-07 1.30225e-07 2.43586e-36 1.2163e-17
5.25665 1.5584e-20 1.5584e-20 8.86861e-28 5.69084e-08 1.18378e-07 1.05937e-34 3.08059e-17
5.52648 1.34585e-20 1.34585e-20 7.27645e-28 5.40657e-08 1.07592e-07 1.27208e-33 2.48801e-17
5.81015 2.27403e-20 2.27403e-20 5.96632e-28 2.62368e-08 9.60811e-08 2.59628e-32 3.9166e-17
6.10839 7.42855e-20 7.42855e-20 4.89078e-28 6.58376e-09 8.65576e-08 8.96087e-31 1.18773e-16
6.42193 4.97157e-20 4.97157e-20 4.0091e-28 8.06406e-09 7.86003e-08 5.57886e-30 7.3541e-17
6.75157 4.10008e-20 4.10008e-20 3.28683e-28 8.01649e-09 6.91438e-08 3.79174e-29 5.59309e-17
7.09813 4.61808e-20 4.61808e-20 2.69316e-28 5.83178e-09 6.10193e-08 3.13678e-28 5.79198e-17
7.46248 1.05692e-19 1.05692e-19 2.20606e-28 2.08724e-09 5.55584e-08 4.72548e-27 1.2153e-16
7.84553 1.33188e-19 1.33188e-19 1.80772e-28 1.35727e-09 4.94434e-08 3.53176e-26 1.40032e-16
8.24824 6.10596e-20 6.10596e-20 1.48082e-28 2.42519e-09 4.82686e-08 8.69647e-26 5.85564e-17
8.67162 7.86985e-20 7.86985e-20 1.21222e-28 1.54033e-09 4.1821e-08 5.47865e-25 6.86854e-17
9.11674 2.49127e-20 2.49127e-20 9.92335e-29 3.98325e-09 3.51441e-08 7.74973e-25 1.97472e-17
9.5847 1.98856e-20 1.98856e-20 8.12004e-29 4.08338e-09 3.19737e-08 2.53817e-24 1.42891e-17
10.0767 2.16198e-20 2.16198e-20 6.64156e-29 3.07198e-09 2.85311e-08 1.044e-23 1.40601e-17
10.5939 3.23933e-20 3.23933e-20 5.4282e-29 1.67572e-09 2.16651e-08 5.47843e-23 1.90389e-17
11.1377 2.02199e-19 2.02199e-19 4.43313e-29 2.19246e-10 1.1064e-08 1.11287e-21 1.07272e-16
11.7094 1.00531e-19 1.00531e-19 3.65423e-29 3.63494e-10 1.40901e-08 1.6792e-21 4.80943e-17
12.3105 1.02774e-19 1.02774e-19 2.97127e-29 2.89106e-10 2.06058e-08 4.87508e-21 4.43025e-17
12.9424 8.06915e-20 8.06915e-20 2.42619e-29 3.00675e-10 -4.74244e-09 1.02041e-20 3.1324e-17
13.6067 5.64138e-20 5.64138e-20 1.98116e-29 3.51183e-10 1.74519e-09 1.79097e-20 1.97149e-17
14.3051 3.67805e-20 3.67805e-20 1.61647e-29 4.3949e-10 -2.01474e-09 2.76852e-20 1.15702e-17
15.0394 2.90582e-20 2.90582e-20 1.31813e-29 4.5362e-10 -4.21247e-09 4.91151e-20 8.22899e-18
15.8114 2.93534e-20 2.93534e-20 1.07483e-29 3.66169e-10 -1.59097e-08 1.05794e-19 7.48573e-18
16.623 4.0343e-20 4.0343e-20 8.76277e-30 2.17207e-10 -1.25478e-08 2.95166e-19 9.26981e-18
17.4762 3.44906e-20 3.44906e-20 7.14026e-30 2.0702e-10 -1.66229e-09 4.88845e-19 7.14577e-18
18.3733 2.26733e-20 2.26733e-20 5.81508e-30 2.56473e-10 -1.72417e-08 5.9543e-19 4.23941e-18
19.3164 1.899e-20 1.899e-20 4.74192e-30 2.49705e-10 -2.48512e-09 8.85734e-19 3.20802e-18
20.3079 1.61931e-20 1.61931e-20 3.86927e-30 2.38946e-10 1.23581e-08 1.28849e-18 2.47458e-18
21.3503 1.39799e-20 1.39799e-20 3.16059e-30 2.26081e-10 -2.12827e-08 1.82641e-18 1.93526e-18
22.4463 1.2119e-20 1.2119e-20 2.59006e-30 2.13719e-10 1.3498e-08 2.50659e-18 1.52199e-18
23.5984 1.05252e-20 1.05252e-20 2.1352e-30 2.02866e-10 1.53001e-08 3.32904e-18 1.20108e-18
24.8097 9.15303e-21 9.15303e-21 1.77544e-30 1.93972e-10 -1.40339e-08 4.28366e-18 9.50643e-19
26.0832 7.97281e-21 7.97281e-21 1.49539e-30 1.87562e-10 -5.09289e-08 5.35064e-18 7.54914e-19
27.4221 6.96065e-21 6.96065e-21 1.27694e-30 1.83451e-10 -9.88854e-09 6.50191e-18 6.01858e-19
28.8297 6.09092e-21 6.09092e-21 1.10877e-30 1.82036e-10 -2.61394e-08 7.69758e-18 4.81726e-19
30.3095 5.34161e-21 5.34161e-21 9.74621e-31 1.82458e-10 -3.07026e-08 8.89017e-18 3.87038e-19
31.8653 4.69491e-21 4.69491e-21 8.56317e-31 1.82393e-10 -3.6573e-08 1.00298e-17 3.12126e-19
33.5009 4.13742e-21 4.13742e-21 7.51087e-31 1.81535e-10 -1.16614e-08 1.1072e-17 2.52739e-19
35.2206 3.65362e-21 3.65362e-21 6.43225e-31 1.76051e-10 -2.74481e-08 1.19667e-17 2.05339e-19
37.0284 3.23269e-21 3.23269e-21 5.4408e-31 1.68306e-10 -3.68127e-08 1.26763e-17 1.67351e-19
38.9291 2.86593e-21 2.86593e-21 4.51985e-31 1.5771e-10 8.97605e-08 1.31754e-17 1.36803e-19
40.9273 2.54576e-21 2.54576e-21 3.71857e-31 1.46069e-10 -9.26052e-08 1.34502e-17 1.12151e-19
43.0282 2.26485e-21 2.26485e-21 3.03367e-31 1.33946e-10 -3.63898e-08 1.3494e-17 9.21512e-20
45.2368 2.01781e-21 2.01781e-21 2.4666e-31 1.22242e-10 5.52163e-09 1.33155e-17 7.58712e-20
47.5588 1.80054e-21 1.80054e-21 2.00054e-31 1.11108e-10 9.12144e-09 1.2937e-17 6.25932e-20
50 1.60875e-21 1.60875e-21 1.62282e-31 1.00875e-10 -2.48582e-08 1.23831e-17 5.17216e-20
52.5665 1.43891e-21 1.43891e-21 1.31563e-31 9.14326e-11 -4.16949e-09 1.16843e-17 4.27909e-20
55.2648 1.28827e-21 1.28827e-21 1.0668e-31 8.28087e-11 1.15738e-07 1.08758e-17 3.54384e-20
58.1015 1.15481e-21 1.15481e-21 8.66228e-32 7.50103e-11 8.13484e-08 9.99639e-18 2.93829e-20
61.0839 1.03599e-21 1.03599e-21 7.03648e-32 6.79204e-11 8.28284e-08 9.07555e-18 2.43765e-20
64.2193 9.3004e-22 9.3004e-22 5.71812e-32 6.14825e-11 1.01482e-07 8.14365e-18 2.02315e-20
67.5157 8.35572e-22 8.35572e-22 4.65042e-32 5.56555e-11 1.21107e-07 7.22777e-18 1.67979e-20
70.9813 7.51278e-22 7.51278e-22 3.78579e-32 5.03913e-11 7.98472e-08 6.34903e-18 1.39515e-20
74.6248 6.75829e-22 6.75829e-22 3.08277e-32 4.56146e-11 1.35396e-07 5.52178e-18 1.15871e-20
78.4553 6.08233e-22 6.08233e-22 2.51085e-32 4.12811e-11 1.73138e-07 4.75721e-18 9.62219e-21
82.4824 5.4775e-22 5.4775e-22 2.04688e-32 3.73688e-11 8.88991e-08 4.06308e-18 7.99051e-21
86.7162 4.93498e-22 4.93498e-22 1.6693e-32 3.38259e-11 5.50971e-08 3.44137e-18 6.63389e-21
91.1674 4.4476e-22 4.4476e-22 1.3615e-32 3.06121e-11 1.28709e-07 2.89167e-18 5.50536e-21
95.847 4.00955e-22 4.00955e-22 1.11058e-32 2.76984e-11 -3.29655e-07 2.41164e-18 4.56674e-21
100.767 3.6166e-22 3.6166e-22 9.06721e-33 2.50711e-11 3.56083e-07 1.99768e-18 3.78724e-21
105.939 3.26285e-22 3.26285e-22 7.40212e-33 2.26861e-11 8.80102e-08 1.64377e-18 3.13895e-21
111.377 2.94424e-22 2.94424e-22 6.04201e-33 2.05215e-11 1.974e-07 1.34407e-18 2.59998e-21
117.094 2.6575e-22 2.6575e-22 4.93394e-33 1.85661e-11 2.90382e-07 1.09267e-18 2.15238e-21
123.105 2.39947e-22 2.39947e-22 4.03237e-33 1.68052e-11 5.9743e-07 8.83521e-19 1.78091e-21
129.424 2.16674e-22 2.16674e-22 3.29843e-33 1.5223e-11 -2.38717e-07 7.1067e-19 1.47247e-21
136.067 1.95677e-22 1.95677e-22 2.70024e-33 1.37995e-11 1.14072e-07 5.68823e-19 1.21651e-21
143.051 1.76769e-22 1.76769e-22 2.21374e-33 1.25233e-11 2.69053e-07 4.53289e-19 1.00449e-21
150.394 1.59711e-22 1.59711e-22 1.81436e-33 1.13603e-11 -6.51037e-07 3.59678e-19 8.28815e-22
158.114 1.44307e-22 1.44307e-22 1.48485e-33 1.02895e-11 -8.17077e-07 2.84234e-19 6.83299e-22
166.23 1.30397e-22 1.30397e-22 1.2144e-33 9.31312e-12 5.88755e-07 2.23756e-19 5.62867e-22
174.763 1.17864e-22 1.17864e-22 9.93624e-34 8.43028e-12 6.43648e-07 1.7556e-19 4.63392e-22
183.733 1.06537e-22 1.06537e-22 8.12588e-34 7.62731e-12 9.39362e-07 1.37277e-19 3.81159e-22
193.164 9.62992e-23 9.62992e-23 6.64377e-34 6.89909e-12 -1.15196e-06 1.06999e-19 3.13239e-22
203.079 8.70561e-23 8.70561e-23 5.43312e-34 6.24095e-12 -1.36181e-06 8.31594e-20 2.57216e-22
213.503 7.87135e-23 7.87135e-23 4.44487e-34 5.64689e-12 8.52046e-07 6.44602e-20 2.11053e-22
224.463 7.11693e-23 7.11693e-23 3.63563e-34 5.10842e-12 2.13628e-06 4.98328e-20 1.7301e-22
235.984 6.43465e-23 6.43465e-23 2.97309e-34 4.62043e-12 -6.20956e-07 3.84282e-20 1.41686e-22
248.097 5.81898e-23 5.81898e-23 2.43262e-34 4.18049e-12 1.45598e-06 2.95705e-20 1.15944e-22
260.832 5.26242e-23 5.26242e-23 1.99051e-34 3.78251e-12 1.61283e-06 2.27057e-20 9.47891e-23
274.221 4.7589e-23 4.7589e-23 1.62838e-34 3.42175e-12 -7.62957e-07 1.73982e-20 7.74134e-23
288.297 4.30352e-23 4.30352e-23 1.33196e-34 3.09504e-12 1.93434e-06 1.33053e-20 6.31571e-23
303.095 3.89258e-23 3.89258e-23 1.09022e-34 2.80076e-12 -4.5484e-07 1.01592e-20 5.14838e-23
318.653 3.52072e-23 3.52072e-23 8.92156e-35 2.53402e-12 1.71575e-07 7.74335e-21 4.1921e-23
335.009 3.18421e-23 3.18421e-23 7.29894e-35 2.29223e-12 -2.19437e-06 5.89223e-21 3.40951e-23
352.206 2.88009e-23 2.88009e-23 5.97269e-35 2.07378e-12 5.28287e-06 4.47721e-21 2.77008e-23
370.284 2.6053e-23 2.6053e-23 4.8889e-35 1.87652e-12 2.40208e-08 3.39756e-21 2.24821e-23
389.291 2.35659e-23 2.35659e-23 4.00076e-35 1.69769e-12 -8.32908e-06 2.57466e-21 1.82237e-23
409.273 2.13149e-23 2.13149e-23 3.27322e-35 1.53564e-12 4.08427e-06 1.9485e-21 1.47528e-23
430.282 1.92822e-23 1.92822e-23 2.67932e-35 1.38953e-12 -6.95469e-06 1.47312e-21 1.19298e-23
452.368 1.74434e-23 1.74434e-23 2.19313e-35 1.25728e-12 -2.33473e-06 1.11248e-21 9.6345e-24
475.588 1.57788e-23 1.57788e-23 1.79468e-35 1.1374e-12 -7.15747e-06 8.39186e-22 7.76979e-24
500 1.42727e-23 1.42727e-23 1.46846e-35 1.02886e-12 7.54082e-06 6.32384e-22 6.25712e-24
525.665 1.29128e-23 1.29128e-23 1.20226e-35 9.31063e-13 -1.15797e-06 4.7619e-22 5.03273e-24
552.648 1.16816e-23 1.16816e-23 9.84055e-36 8.42397e-13 -5.39038e-06 3.58229e-22 4.04169e-24
581.015 1.05671e-23 1.05671e-23 8.0524e-36 7.62026e-13 -1.44296e-05 2.69248e-22 3.24072e-24
610.838 9.55956e-24 9.55956e-24 6.59066e-36 6.89432e-13 3.29363e-06 2.02223e-22 2.59465e-24
642.193 8.64883e-24 8.64883e-24 5.39555e-36 6.23848e-13 -2.40547e-07 1.51784e-22 2.07428e-24
675.157 7.82422e-24 7.82422e-24 4.41595e-36 5.64395e-13 -6.6498e-06 1.13835e-22 1.65545e-24
709.813 7.07778e-24 7.07778e-24 3.61332e-36 5.10517e-13 -1.03004e-05 8.53122e-23 1.31895e-24
746.247 6.40357e-24 6.40357e-24 2.95816e-36 4.61954e-13 -1.99056e-05 6.39064e-23 1.04925e-24
784.553 5.79347e-24 5.79347e-24 2.42162e-36 4.1799e-13 -8.82961e-06 4.78421e-23 8.33266e-25
824.824 5.24112e-24 5.24112e-24 1.9819e-36 3.78145e-13 1.44063e-05 3.57933e-23 6.60555e-25
867.162 4.74127e-24 4.74127e-24 1.62185e-36 3.42071e-13 4.17866e-05 2.67639e-23 5.22714e-25
911.674 4.28984e-24 4.28984e-24 1.32788e-36 3.0954e-13 6.56391e-07 2.00057e-23 4.12984e-25
958.471 3.88109e-24 3.88109e-24 1.08697e-36 2.80068e-13 3.33218e-05 1.49457e-23 3.25685e-25
1007.67 3.51102e-24 3.51102e-24 8.89464e-37 2.53335e-13 -7.74651e-06 1.11597e-23 2.56367e-25
1059.39 3.17645e-24 3.17645e-24 7.28035e-37 2.29198e-13 -4.01419e-05 8.32981e-24 2.01458e-25
1113.77 2.87397e-24 2.87397e-24 5.96079e-37 2.07406e-13 3.55895e-06 6.21545e-24 1.5804e-25
1170.94 2.60008e-24 2.60008e-24 4.87851e-37 1.87629e-13 -3.59329e-05 4.63562e-24 1.23751e-25
1231.05 2.35212e-24 2.35212e-24 3.99216e-37 1.69726e-13 -4.01373e-06 3.45585e-24 9.67243e-26
1294.24 2.12816e-24 2.12816e-24 3.26833e-37 1.53576e-13 -6.43352e-05 2.57588e-24 7.54814e-26
1360.67 1.92547e-24 1.92547e-24 2.67578e-37 1.38968e-13 2.37745e-05 1.9193e-24 5.88011e-26
1430.51 1.74194e-24 1.74194e-24 2.18998e-37 1.25721e-13 6.10521e-05 1.42952e-24 4.57254e-26
1503.94 1.57586e-24 1.57586e-24 1.792e-37 1.13716e-13 -2.9068e-05 1.06439e-24 3.54971e-26
1581.14 1.42586e-24 1.42586e-24 1.46736e-37 1.02911e-13 1.23476e-05 7.92432e-25 2.75163e-26
1662.3 1.29002e-24 1.29002e-24 1.20109e-37 9.31061e-14 -2.83663e-05 5.89759e-25 2.12937e-26
1747.63 1.16704e-24 1.16704e-24 9.82909e-38 8.42227e-14 -2.11734e-05 4.38777e-25 1.6451e-26
1837.33 1.05585e-24 1.05585e-24 8.04563e-38 7.62003e-14 -1.55154e-05 3.26395e-25 1.26911e-26
1931.64 9.55325e-25 9.55325e-25 6.58719e-38 6.89524e-14 -1.65743e-05 2.42759e-25 9.77636e-27
2030.79 8.64294e-25 8.64294e-25 5.39143e-38 6.23796e-14 -4.23297e-05 1.805e-25 7.51935e-27
2135.03 7.8188e-25 7.8188e-25 4.41221e-38 5.64308e-14 8.25678e-05 1.34171e-25 5.77467e-27
2244.63 7.07442e-25 7.07442e-25 3.61269e-38 5.10669e-14 0.0001175 9.97312e-26 4.42936e-27
2359.84 6.40072e-25 6.40072e-25 2.95734e-38 4.62033e-14 5.10052e-05 7.4116e-26 3.39274e-27
2480.97 5.79065e-25 5.79065e-25 2.42029e-38 4.17965e-14 2.82391e-05 5.50651e-26 2.59504e-27
