# 1.6563e-05 0 63 : grain size, compostion index, size index
# Heating and cooling timescale: 0.0209292 18877.7
# Ratio of heating to cooling to determine stochastic cutoff: 100
# Equilibrium emission is recorded even for those grains in the stochastic regime.
# Emission spectrum was computed for: 
# Type: ISRF
# Scales: 0.25 0.5 1 1.5 2 2.5 3 3.5 4 4.5 5 5.5 6 6.5 7 7.5 8 8.5 9 9.5 10
# StochasticallyHeated: 0 0 0 0 0 0 0 0 0 0 0 0 0 0 0 0 0 0 0 0 0
# Temperature: -1
# Wavelength  CExt  CAbs  CSca  Albedo G EqEm1 StEm1 EqEm2 StEm2 EqEm3 StEm3 EqEm4 StEm4 EqEm5 StEm5 EqEm6 StEm6 EqEm7 StEm7 EqEm8 StEm8 EqEm9 StEm9 EqEm10 StEm10 EqEm11 StEm11 EqEm12 StEm12 EqEm13 StEm13 EqEm14 StEm14 EqEm15 StEm15 EqEm16 StEm16 EqEm17 StEm17 EqEm18 StEm18 EqEm19 StEm19 EqEm20 StEm20 EqEm21 StEm21
0.05 1.71395e-09 7.67256e-10 9.46698e-10 0.552348 0.959122 0 0 0 0 0 0 0 0 0 0 0 0 0 0 0 0 0 0 0 0 0 0 0 0 0 0 0 0 0 0 0 0 0 0 0 0 0 0 0 0 0 0
0.0525665 1.72396e-09 7.71546e-10 9.52412e-10 0.552456 0.955433 0 0 0 0 0 0 0 0 0 0 0 0 0 0 0 0 0 0 0 0 0 0 0 0 0 0 0 0 0 0 0 0 0 0 0 0 0 0 0 0 0 0
0.0552647 1.73482e-09 7.76111e-10 9.58714e-10 0.552629 0.951239 0 0 0 0 0 0 0 0 0 0 0 0 0 0 0 0 0 0 0 0 0 0 0 0 0 0 0 0 0 0 0 0 0 0 0 0 0 0 0 0 0 0
0.0581015 1.7468e-09 7.81142e-10 9.65663e-10 0.552817 0.94652 0 0 0 0 0 0 0 0 0 0 0 0 0 0 0 0 0 0 0 0 0 0 0 0 0 0 0 0 0 0 0 0 0 0 0 0 0 0 0 0 0 0
0.0610839 1.75991e-09 7.86578e-10 9.73328e-10 0.553057 0.941226 0 0 0 0 0 0 0 0 0 0 0 0 0 0 0 0 0 0 0 0 0 0 0 0 0 0 0 0 0 0 0 0 0 0 0 0 0 0 0 0 0 0
0.0642193 1.77426e-09 7.92633e-10 9.81629e-10 0.55326 0.935376 0 0 0 0 0 0 0 0 0 0 0 0 0 0 0 0 0 0 0 0 0 0 0 0 0 0 0 0 0 0 0 0 0 0 0 0 0 0 0 0 0 0
0.0675157 1.7902e-09 7.99622e-10 9.90574e-10 0.553333 0.929037 0 0 0 0 0 0 0 0 0 0 0 0 0 0 0 0 0 0 0 0 0 0 0 0 0 0 0 0 0 0 0 0 0 0 0 0 0 0 0 0 0 0
0.0709813 1.8079e-09 8.07796e-10 1.0001e-09 0.553185 0.922304 0 0 0 0 0 0 0 0 0 0 0 0 0 0 0 0 0 0 0 0 0 0 0 0 0 0 0 0 0 0 0 0 0 0 0 0 0 0 0 0 0 0
0.0746248 1.8279e-09 8.18164e-10 1.00974e-09 0.552402 0.915495 0 0 0 0 0 0 0 0 0 0 0 0 0 0 0 0 0 0 0 0 0 0 0 0 0 0 0 0 0 0 0 0 0 0 0 0 0 0 0 0 0 0
0.0784553 1.8499e-09 8.32991e-10 1.01691e-09 0.54971 0.909835 0 0 0 0 0 0 0 0 0 0 0 0 0 0 0 0 0 0 0 0 0 0 0 0 0 0 0 0 0 0 0 0 0 0 0 0 0 0 0 0 0 0
0.0824824 1.87125e-09 8.51645e-10 1.01961e-09 0.54488 0.906332 0 0 0 0 0 0 0 0 0 0 0 0 0 0 0 0 0 0 0 0 0 0 0 0 0 0 0 0 0 0 0 0 0 0 0 0 0 0 0 0 0 0
0.0867162 1.89116e-09 8.72159e-10 1.019e-09 0.538824 0.904554 0 0 0 0 0 0 0 0 0 0 0 0 0 0 0 0 0 0 0 0 0 0 0 0 0 0 0 0 0 0 0 0 0 0 0 0 0 0 0 0 0 0
0.0911674 1.90955e-09 8.93384e-10 1.01616e-09 0.532148 0.903989 0 0 0 0 0 0 0 0 0 0 0 0 0 0 0 0 0 0 0 0 0 0 0 0 0 0 0 0 0 0 0 0 0 0 0 0 0 0 0 0 0 0
0.095847 1.92583e-09 9.14373e-10 1.01146e-09 0.525207 0.904339 0 0 0 0 0 0 0 0 0 0 0 0 0 0 0 0 0 0 0 0 0 0 0 0 0 0 0 0 0 0 0 0 0 0 0 0 0 0 0 0 0 0
0.100767 1.93998e-09 9.34489e-10 1.00549e-09 0.5183 0.905168 0 0 0 0 0 0 0 0 0 0 0 0 0 0 0 0 0 0 0 0 0 0 0 0 0 0 0 0 0 0 0 0 0 0 0 0 0 0 0 0 0 0
0.105939 1.95174e-09 9.52973e-10 9.98768e-10 0.511732 0.906096 0 0 0 0 0 0 0 0 0 0 0 0 0 0 0 0 0 0 0 0 0 0 0 0 0 0 0 0 0 0 0 0 0 0 0 0 0 0 0 0 0 0
0.111377 1.96156e-09 9.69446e-10 9.92111e-10 0.505777 0.90659 0 0 0 0 0 0 0 0 0 0 0 0 0 0 0 0 0 0 0 0 0 0 0 0 0 0 0 0 0 0 0 0 0 0 0 0 0 0 0 0 0 0
0.117094 1.96956e-09 9.83484e-10 9.86078e-10 0.500659 0.906179 0 0 0 0 0 0 0 0 0 0 0 0 0 0 0 0 0 0 0 0 0 0 0 0 0 0 0 0 0 0 0 0 0 0 0 0 0 0 0 0 0 0
0.123105 1.97603e-09 9.94644e-10 9.81384e-10 0.496645 0.904342 0 0 0 0 0 0 0 0 0 0 0 0 0 0 0 0 0 0 0 0 0 0 0 0 0 0 0 0 0 0 0 0 0 0 0 0 0 0 0 0 0 0
0.129424 1.98167e-09 1.00317e-09 9.78499e-10 0.493776 0.90084 0 0 0 0 0 0 0 0 0 0 0 0 0 0 0 0 0 0 0 0 0 0 0 0 0 0 0 0 0 0 0 0 0 0 0 0 0 0 0 0 0 0
0.136067 1.98688e-09 1.00918e-09 9.77699e-10 0.492078 0.895599 0 0 0 0 0 0 0 0 0 0 0 0 0 0 0 0 0 0 0 0 0 0 0 0 0 0 0 0 0 0 0 0 0 0 0 0 0 0 0 0 0 0
0.143051 1.9927e-09 1.01356e-09 9.79133e-10 0.491361 0.888828 0 0 0 0 0 0 0 0 0 0 0 0 0 0 0 0 0 0 0 0 0 0 0 0 0 0 0 0 0 0 0 0 0 0 0 0 0 0 0 0 0 0
0.150394 2.00023e-09 1.01743e-09 9.82797e-10 0.491343 0.88095 0 0 0 0 0 0 0 0 0 0 0 0 0 0 0 0 0 0 0 0 0 0 0 0 0 0 0 0 0 0 0 0 0 0 0 0 0 0 0 0 0 0
0.158114 2.0104e-09 1.02178e-09 9.88615e-10 0.491751 0.872284 0 0 0 0 0 0 0 0 0 0 0 0 0 0 0 0 0 0 0 0 0 0 0 0 0 0 0 0 0 0 0 0 0 0 0 0 0 0 0 0 0 0
0.16623 2.0235e-09 1.02756e-09 9.95941e-10 0.492188 0.863055 0 0 0 0 0 0 0 0 0 0 0 0 0 0 0 0 0 0 0 0 0 0 0 0 0 0 0 0 0 0 0 0 0 0 0 0 0 0 0 0 0 0
0.174762 2.03995e-09 1.03534e-09 1.00462e-09 0.492469 0.853382 0 0 0 0 0 0 0 0 0 0 0 0 0 0 0 0 0 0 0 0 0 0 0 0 0 0 0 0 0 0 0 0 0 0 0 0 0 0 0 0 0 0
0.183733 2.06017e-09 1.04579e-09 1.01438e-09 0.492377 0.843341 0 0 0 0 0 0 0 0 0 0 0 0 0 0 0 0 0 0 0 0 0 0 0 0 0 0 0 0 0 0 0 0 0 0 0 0 0 0 0 0 0 0
0.193164 2.08407e-09 1.05897e-09 1.02509e-09 0.491871 0.832846 0 0 0 0 0 0 0 0 0 0 0 0 0 0 0 0 0 0 0 0 0 0 0 0 0 0 0 0 0 0 0 0 0 0 0 0 0 0 0 0 0 0
0.203079 2.11107e-09 1.07426e-09 1.03681e-09 0.49113 0.821983 0 0 0 0 0 0 0 0 0 0 0 0 0 0 0 0 0 0 0 0 0 0 0 0 0 0 0 0 0 0 0 0 0 0 0 0 0 0 0 0 0 0
0.213503 2.14152e-09 1.09231e-09 1.04921e-09 0.489938 0.810986 0 0 0 0 0 0 0 0 0 0 0 0 0 0 0 0 0 0 0 0 0 0 0 0 0 0 0 0 0 0 0 0 0 0 0 0 0 0 0 0 0 0
0.224463 2.17549e-09 1.11332e-09 1.06217e-09 0.488245 0.799804 0 0 0 0 0 0 0 0 0 0 0 0 0 0 0 0 0 0 0 0 0 0 0 0 0 0 0 0 0 0 0 0 0 0 0 0 0 0 0 0 0 0
0.235984 2.21144e-09 1.13455e-09 1.0769e-09 0.486966 0.787906 0 0 0 0 0 0 0 0 0 0 0 0 0 0 0 0 0 0 0 0 0 0 0 0 0 0 0 0 0 0 0 0 0 0 0 0 0 0 0 0 0 0
0.248097 2.25079e-09 1.1533e-09 1.09749e-09 0.487601 0.775415 0 0 0 0 0 0 0 0 0 0 0 0 0 0 0 0 0 0 0 0 0 0 0 0 0 0 0 0 0 0 0 0 0 0 0 0 0 0 0 0 0 0
0.260832 2.3019e-09 1.17234e-09 1.12956e-09 0.490709 0.764414 0 0 0 0 0 0 0 0 0 0 0 0 0 0 0 0 0 0 0 0 0 0 0 0 0 0 0 0 0 0 0 0 0 0 0 0 0 0 0 0 0 0
0.274221 2.3709e-09 1.19358e-09 1.17731e-09 0.496569 0.756188 0 0 0 0 0 0 0 0 0 0 0 0 0 0 0 0 0 0 0 0 0 0 0 0 0 0 0 0 0 0 0 0 0 0 0 0 0 0 0 0 0 0
0.288297 2.45032e-09 1.20678e-09 1.24354e-09 0.507502 0.748209 0 0 0 0 0 0 0 0 0 0 0 0 0 0 0 0 0 0 0 0 0 0 0 0 0 0 0 0 0 0 0 0 0 0 0 0 0 0 0 0 0 0
0.303095 2.54129e-09 1.20294e-09 1.33835e-09 0.526641 0.73926 0 0 0 0 0 0 0 0 0 0 0 0 0 0 0 0 0 0 0 0 0 0 0 0 0 0 0 0 0 0 0 0 0 0 0 0 0 0 0 0 0 0
0.318653 2.66931e-09 1.19727e-09 1.47204e-09 0.551468 0.734279 0 0 0 0 0 0 0 0 0 0 0 0 0 0 0 0 0 0 0 0 0 0 0 0 0 0 0 0 0 0 0 0 0 0 0 0 0 0 0 0 0 0
0.335009 2.82668e-09 1.19962e-09 1.62707e-09 0.57561 0.734324 0 0 0 0 0 0 0 0 0 0 0 0 0 0 0 0 0 0 0 0 0 0 0 0 0 0 0 0 0 0 0 0 0 0 0 0 0 0 0 0 0 0
0.352205 2.96124e-09 1.19108e-09 1.77016e-09 0.597776 0.732851 0 0 0 0 0 0 0 0 0 0 0 0 0 0 0 0 0 0 0 0 0 0 0 0 0 0 0 0 0 0 0 0 0 0 0 0 0 0 0 0 0 0
0.370284 3.04779e-09 1.15716e-09 1.89062e-09 0.620326 0.725019 0 0 0 0 0 0 0 0 0 0 0 0 0 0 0 0 0 0 0 0 0 0 0 0 0 0 0 0 0 0 0 0 0 0 0 0 0 0 0 0 0 0
0.389291 3.11694e-09 1.11311e-09 2.00383e-09 0.642883 0.713426 0 0 0 0 0 0 0 0 0 0 0 0 0 0 0 0 0 0 0 0 0 0 0 0 0 0 0 0 0 0 0 0 0 0 0 0 0 0 0 0 0 0
0.409273 3.18816e-09 1.0803e-09 2.10786e-09 0.661151 0.703613 0 0 0 0 0 0 0 0 0 0 0 0 0 0 0 0 0 0 0 0 0 0 0 0 0 0 0 0 0 0 0 0 0 0 0 0 0 0 0 0 0 0
0.430281 3.23659e-09 1.06076e-09 2.17584e-09 0.672262 0.697052 0 0 0 0 0 0 0 0 0 0 0 0 0 0 0 0 0 0 0 0 0 0 0 0 0 0 0 0 0 0 0 0 0 0 0 0 0 0 0 0 0 0
0.452368 3.22767e-09 1.04123e-09 2.18643e-09 0.677404 0.690566 0 0 0 0 0 0 0 0 0 0 0 0 0 0 0 0 0 0 0 0 0 0 0 0 0 0 0 0 0 0 0 0 0 0 0 0 0 0 0 0 0 0
0.475588 3.153e-09 1.00971e-09 2.14328e-09 0.679761 0.679268 0 0 0 0 0 0 0 0 0 0 0 0 0 0 0 0 0 0 0 0 0 0 0 0 0 0 0 0 0 0 0 0 0 0 0 0 0 0 0 0 0 0
0.5 3.03436e-09 9.64348e-10 2.07001e-09 0.682191 0.660058 0 0 0 0 0 0 0 0 0 0 0 0 0 0 0 0 0 0 0 0 0 0 0 0 0 0 0 0 0 0 0 0 0 0 0 0 0 0 0 0 0 0
0.525665 2.90045e-09 9.14547e-10 1.9859e-09 0.684688 0.633952 0 0 0 0 0 0 0 0 0 0 0 0 0 0 0 0 0 0 0 0 0 0 0 0 0 0 0 0 0 0 0 0 0 0 0 0 0 0 0 0 0 0
0.552648 2.77042e-09 8.74003e-10 1.89641e-09 0.684523 0.605279 0 0 0 0 0 0 0 0 0 0 0 0 0 0 0 0 0 0 0 0 0 0 0 0 0 0 0 0 0 0 0 0 0 0 0 0 0 0 0 0 0 0
0.581015 2.65034e-09 8.47287e-10 1.80305e-09 0.680309 0.578289 0 0 0 0 0 0 0 0 0 0 0 0 0 0 0 0 0 0 0 0 0 0 0 0 0 0 0 0 0 0 0 0 0 0 0 0 0 0 0 0 0 0
0.610839 2.53391e-09 8.33983e-10 1.69993e-09 0.670871 0.55529 0 0 0 0 0 0 0 0 0 0 0 0 0 0 0 0 0 0 0 0 0 0 0 0 0 0 0 0 0 0 0 0 0 0 0 0 0 0 0 0 0 0
0.642193 2.41229e-09 8.28149e-10 1.58414e-09 0.656695 0.536096 0 0 0 0 0 0 0 0 0 0 0 0 0 0 0 0 0 0 0 0 0 0 0 0 0 0 0 0 0 0 0 0 0 0 0 0 0 0 0 0 0 0
0.675157 2.27799e-09 8.2164e-10 1.45635e-09 0.639313 0.518756 0 0 0 0 0 0 0 0 0 0 0 0 0 0 0 0 0 0 0 0 0 0 0 0 0 0 0 0 0 0 0 0 0 0 0 0 0 0 0 0 0 0
0.709813 2.12824e-09 8.07506e-10 1.32074e-09 0.620576 0.500664 0 0 0 0 0 0 0 0 0 0 0 0 0 0 0 0 0 0 0 0 0 0 0 0 0 0 0 0 0 0 0 0 0 0 0 0 0 0 0 0 0 0
0.746248 1.96526e-09 7.82316e-10 1.18295e-09 0.601928 0.479611 0 0 0 0 0 0 0 0 0 0 0 0 0 0 0 0 0 0 0 0 0 0 0 0 0 0 0 0 0 0 0 0 0 0 0 0 0 0 0 0 0 0
0.784553 1.79504e-09 7.46536e-10 1.0485e-09 0.584111 0.454572 0 0 0 0 0 0 0 0 0 0 0 0 0 0 0 0 0 0 0 0 0 0 0 0 0 0 0 0 0 0 0 0 0 0 0 0 0 0 0 0 0 0
0.824824 1.62452e-09 7.03218e-10 9.21304e-10 0.567123 0.425822 0 0 0 0 0 0 0 0 0 0 0 0 0 0 0 0 0 0 0 0 0 0 0 0 0 0 0 0 0 0 0 0 0 0 0 0 0 0 0 0 0 0
0.867162 1.45982e-09 6.56127e-10 8.03693e-10 0.550542 0.394582 0 0 0 0 0 0 0 0 0 0 0 0 0 0 0 0 0 0 0 0 0 0 0 0 0 0 0 0 0 0 0 0 0 0 0 0 0 0 0 0 0 0
0.911674 1.30501e-09 6.08478e-10 6.96529e-10 0.533736 0.362406 0 0 0 0 0 0 0 0 0 0 0 0 0 0 0 0 0 0 0 0 0 0 0 0 0 0 0 0 0 0 0 0 0 0 0 0 0 0 0 0 0 0
0.95847 1.16239e-09 5.62408e-10 5.99981e-10 0.516162 0.330714 0 0 0 0 0 0 0 0 0 0 0 0 0 0 0 0 0 0 0 0 0 0 0 0 0 0 0 0 0 0 0 0 0 0 0 0 0 0 0 0 0 0
1.00767 1.03291e-09 5.19052e-10 5.1386e-10 0.497487 0.30051 0 0 0 0 0 0 0 0 0 0 0 0 0 0 0 0 0 0 0 0 0 0 0 0 0 0 0 0 0 0 0 0 0 0 0 0 0 0 0 0 0 0
1.05939 9.16587e-10 4.78874e-10 4.37713e-10 0.477547 0.272404 0 0 0 0 0 0 0 0 0 0 0 0 0 0 0 0 0 0 0 0 0 0 0 0 0 0 0 0 0 0 0 0 0 0 0 0 0 0 0 0 0 0
1.11377 8.1283e-10 4.41884e-10 3.70946e-10 0.456364 0.246638 0 0 0 0 0 0 0 0 0 0 0 0 0 0 0 0 0 0 0 0 0 0 0 0 0 0 0 0 0 0 0 0 0 0 0 0 0 0 0 0 0 0
1.17094 7.20839e-10 4.07934e-10 3.12905e-10 0.434085 0.223248 0 0 0 0 0 0 0 0 0 0 0 0 0 0 0 0 0 0 0 0 0 0 0 0 0 0 0 0 0 0 0 0 0 0 0 0 0 0 0 0 0 0
1.23105 6.39649e-10 3.76782e-10 2.62867e-10 0.410955 0.20213 0 0 0 0 0 0 0 0 0 0 0 0 0 0 0 0 0 0 0 0 0 0 0 0 0 0 0 0 0 0 0 0 0 0 0 0 0 0 0 0 0 0
1.29424 5.68256e-10 3.48215e-10 2.20041e-10 0.387222 0.183118 0 0 0 0 0 0 0 0 0 0 0 0 0 0 0 0 0 0 0 0 0 0 0 0 0 0 0 0 0 0 0 0 0 0 0 0 0 0 0 0 0 0
1.36067 5.0565e-10 3.2201e-10 1.8364e-10 0.363176 0.16602 0 0 0 0 0 0 0 0 0 0 0 0 0 0 0 0 0 0 0 0 0 0 0 0 0 0 0 0 0 0 0 0 0 0 0 0 0 0 0 0 0 0
1.43051 4.50833e-10 2.97961e-10 1.52873e-10 0.339089 0.150633 0 0 0 0 0 0 0 0 0 0 0 0 0 0 0 0 0 0 0 0 0 0 0 0 0 0 0 0 0 0 0 0 0 0 0 0 0 0 0 0 0 0
1.50394 4.02873e-10 2.75881e-10 1.26991e-10 0.315214 0.13678 0 0 0 0 0 0 0 0 0 0 0 0 0 0 0 0 0 0 0 0 0 0 0 0 0 0 0 0 0 0 0 0 0 0 0 0 0 0 0 0 0 0
1.58114 3.60934e-10 2.55624e-10 1.0531e-10 0.29177 0.12429 0 0 0 0 0 0 0 0 0 0 0 0 0 0 0 0 0 0 0 0 0 0 0 0 0 0 0 0 0 0 0 0 0 0 0 0 0 0 0 0 0 0
1.6623 3.24239e-10 2.37026e-10 8.72128e-11 0.268977 0.113008 0 0 0 0 0 0 0 0 0 0 0 0 0 0 0 0 0 0 0 0 0 0 0 0 0 0 0 0 0 0 0 0 0 0 0 0 0 0 0 0 0 0
1.74763 2.9209e-10 2.19944e-10 7.21454e-11 0.246997 0.102808 0 0 0 0 0 0 0 0 0 0 0 0 0 0 0 0 0 0 0 0 0 0 0 0 0 0 0 0 0 0 0 0 0 0 0 0 0 0 0 0 0 0
1.83733 2.63896e-10 2.04268e-10 5.96276e-11 0.225951 0.0935688 0 0 0 0 0 0 0 0 0 0 0 0 0 0 0 0 0 0 0 0 0 0 0 0 0 0 0 0 0 0 0 0 0 0 0 0 0 0 0 0 0 0
1.93164 2.39104e-10 1.89857e-10 4.92477e-11 0.205967 0.0851946 0 0 0 0 0 0 0 0 0 0 0 0 0 0 0 0 0 0 0 0 0 0 0 0 0 0 0 0 0 0 0 0 0 0 0 0 0 0 0 0 0 0
2.03079 2.17289e-10 1.76626e-10 4.06629e-11 0.187138 0.077601 0 0 0 0 0 0 0 0 0 0 0 0 0 0 0 0 0 0 0 0 0 0 0 0 0 0 0 0 0 0 0 0 0 0 0 0 0 0 0 0 0 0
2.13503 1.98018e-10 1.64456e-10 3.35622e-11 0.169491 0.0707021 0 0 0 0 0 0 0 0 0 0 0 0 0 0 0 0 0 0 0 0 0 0 0 0 0 0 0 0 0 0 0 0 0 0 0 0 0 0 0 0 0 0
2.24463 1.80945e-10 1.53252e-10 2.76928e-11 0.153045 0.0644301 0 0 0 0 0 0 0 0 0 0 0 0 0 0 0 0 0 0 0 0 0 0 0 0 0 0 0 0 0 0 0 0 0 0 0 0 0 0 0 0 0 0
2.35984 1.65783e-10 1.42939e-10 2.2844e-11 0.137795 0.0587231 0 0 0 0 0 0 0 0 0 0 0 0 0 0 0 0 0 0 0 0 0 0 0 0 0 0 0 0 0 0 0 0 0 0 0 0 0 0 0 0 0 0
2.48097 1.52264e-10 1.33424e-10 1.88393e-11 0.123728 0.0535275 0 0 0 0 0 0 0 0 0 0 0 0 0 0 0 0 0 0 0 0 0 0 0 0 0 0 0 0 0 0 0 0 0 0 0 0 0 0 0 0 0 0
2.60832 1.40192e-10 1.24659e-10 1.55334e-11 0.110801 0.0487952 0 0 0 0 0 0 0 0 0 0 0 0 0 0 0 0 0 0 0 0 0 0 0 0 0 0 0 0 0 0 0 0 0 0 0 0 0 0 0 0 0 0
2.74221 1.29371e-10 1.16567e-10 1.2804e-11 0.0989707 0.0444837 0 0 0 0 0 0 0 0 0 0 0 0 0 0 0 0 0 0 0 0 0 0 0 0 0 0 0 0 0 0 0 0 0 0 0 0 0 0 0 0 0 0
2.88297 1.1966e-10 1.09109e-10 1.05514e-11 0.088178 0.0405538 0 0 0 0 0 0 0 0 0 0 0 0 0 0 0 0 0 0 0 0 0 0 0 0 0 0 0 0 0 0 0 0 0 0 0 0 0 0 0 0 0 0
3.03095 1.10945e-10 1.0226e-10 8.68539e-12 0.0782856 0.0369658 0 0 0 0 0 0 0 0 0 0 0 0 0 0 0 0 0 0 0 0 0 0 0 0 0 0 0 0 0 0 0 0 0 0 0 0 0 0 0 0 0 0
3.18653 1.03373e-10 9.62336e-11 7.13898e-12 0.0690607 0.0337005 0 0 0 0 0 0 0 0 0 0 0 0 0 0 0 0 0 0 0 0 0 0 0 0 0 0 0 0 0 0 0 0 0 0 0 0 0 0 0 0 0 0
3.35009 1.00101e-10 9.42293e-11 5.87213e-12 0.0586618 0.0307275 0 0 0 0 0 0 0 0 0 0 0 0 0 0 0 0 0 0 0 0 0 0 0 0 0 0 0 0 0 0 0 0 0 0 0 0 0 0 0 0 0 0
3.52205 9.14093e-11 8.64097e-11 4.99963e-12 0.054695 0.0280069 0 0 0 0 0 0 0 0 0 0 0 0 0 0 0 0 0 0 0 0 0 0 0 0 0 0 0 0 0 0 0 0 0 0 0 0 0 0 0 0 0 0
3.70284 8.24716e-11 7.84157e-11 4.05598e-12 0.0491803 0.0255315 0 0 0 0 0 0 0 0 0 0 0 0 0 0 0 0 0 0 0 0 0 0 0 0 0 0 0 0 0 0 0 0 0 0 0 0 0 0 0 0 0 0
3.89291 7.70222e-11 7.36874e-11 3.33474e-12 0.0432959 0.0232726 0 0 0 0 0 0 0 0 0 0 0 0 0 0 0 0 0 0 0 0 0 0 0 0 0 0 0 0 0 0 0 0 0 0 0 0 0 0 0 0 0 0
4.09273 7.2003e-11 6.92567e-11 2.74626e-12 0.038141 0.0212124 0 0 0 0 0 0 0 0 0 0 0 0 0 0 0 0 0 0 0 0 0 0 0 0 0 0 0 0 0 0 0 0 0 0 0 0 0 0 0 0 0 0
4.30281 6.73716e-11 6.51091e-11 2.26248e-12 0.0335822 0.0193334 0 0 0 0 0 0 0 0 0 0 0 0 0 0 0 0 0 0 0 0 0 0 0 0 0 0 0 0 0 0 0 0 0 0 0 0 0 0 0 0 0 0
4.52368 6.30963e-11 6.12318e-11 1.86449e-12 0.0295499 0.0176191 0 0 0 0 0 0 0 0 0 0 0 0 0 0 0 0 0 0 0 0 0 0 0 0 0 0 0 0 0 0 0 0 0 0 0 0 0 0 0 0 0 0
4.75588 5.91438e-11 5.76074e-11 1.53638e-12 0.025977 0.0160555 0 0 0 0 0 0 0 0 0 0 0 0 0 0 0 0 0 0 0 0 0 0 0 0 0 0 0 0 0 0 0 0 0 0 0 0 0 0 0 0 0 0
5 5.5487e-11 5.42208e-11 1.26614e-12 0.0228186 0.0146287 0 0 0 0 0 0 0 0 0 0 0 0 0 0 0 0 0 0 0 0 0 0 0 0 0 0 0 0 0 0 0 0 0 0 0 0 0 0 0 0 0 0
5.25665 5.21036e-11 5.10604e-11 1.04318e-12 0.0200214 0.0133256 0 0 0 0 0 0 0 0 0 0 0 0 0 0 0 0 0 0 0 0 0 0 0 0 0 0 0 0 0 0 0 0 1.4013e-45 0 2.8026e-45 0 9.80909e-45 0 2.8026e-44 0 7.56701e-44 0
5.52648 4.89826e-11 4.81233e-11 8.59259e-13 0.0175421 0.0121354 0 0 0 0 0 0 0 0 0 0 0 0 0 0 0 0 0 0 0 0 0 0 0 0 0 0 1.4013e-45 0 7.00649e-45 0 3.08286e-44 0 1.12104e-43 0 3.65739e-43 0 1.11263e-42 0 3.09547e-42 0 8.0925e-42 0
5.81015 4.61573e-11 4.545e-11 7.073e-13 0.0153237 0.0110433 0 0 0 0 0 0 0 0 0 0 0 0 0 0 0 0 0 0 0 0 1.4013e-45 0 8.40779e-45 0 4.62428e-44 0 2.18603e-43 0 9.05239e-43 0 3.44579e-42 0 1.1628e-41 0 3.57625e-41 0 1.02869e-40 0 2.7224e-40 0 6.79031e-40 0
6.10839 4.42157e-11 4.36341e-11 5.81586e-13 0.0131534 0.0100262 0 0 0 0 0 0 0 0 0 0 0 0 0 0 0 0 1.4013e-45 0 1.82169e-44 0 1.49939e-43 0 9.34666e-43 0 4.97041e-42 0 2.18883e-41 0 8.45908e-41 0 3.01903e-40 0 9.59969e-40 0 2.79468e-39 0 7.63472e-39 0 1.92674e-38 0 4.59602e-38 0
6.42193 4.13412e-11 4.08569e-11 4.84256e-13 0.0117137 0.00922201 0 0 0 0 0 0 0 0 0 0 0 0 0 0 1.54143e-44 0 2.14399e-43 0 2.00386e-42 0 1.47669e-41 0 8.39518e-41 0 4.1129e-40 0 1.68471e-39 0 6.09484e-39 0 2.04421e-38 0 6.14311e-38 0 1.69748e-37 0 4.41526e-37 0 1.06502e-36 0 2.43491e-36 0
6.75157 3.88743e-11 3.84772e-11 3.97072e-13 0.0102143 0.00837536 0 0 0 0 0 0 0 0 0 0 2.8026e-45 0 8.68805e-44 0 1.67455e-42 0 2.0487e-41 0 1.71653e-40 0 1.14743e-39 0 5.9927e-39 0 2.71673e-38 0 1.03878e-37 0 3.52936e-37 0 1.11584e-36 0 3.17783e-36 0 8.35597e-36 0 2.07433e-35 0 4.79302e-35 0 1.05245e-34 0
7.09813 3.69922e-11 3.66648e-11 3.2746e-13 0.00885213 0.00760602 0 0 0 0 0 0 0 0 2.8026e-45 0 2.77457e-43 0 8.60257e-42 0 1.44171e-40 0 1.56135e-39 0 1.17925e-38 0 7.18447e-38 0 3.46132e-37 0 1.45753e-36 0 5.21981e-36 0 1.67068e-35 0 4.99334e-35 0 1.35123e-34 0 3.38919e-34 0 8.04817e-34 0 1.78513e-33 0 3.77209e-33 0
7.46248 3.54189e-11 3.51494e-11 2.69455e-13 0.00760766 0.00690156 0 0 0 0 0 0 1.4013e-45 0 4.00771e-43 0 2.58329e-41 0 6.78157e-40 0 9.90433e-39 0 9.54849e-38 0 6.5338e-37 0 3.6445e-36 0 1.6261e-35 0 6.38318e-35 0 2.14795e-34 0 6.49526e-34 0 1.84025e-33 0 4.74359e-33 0 1.13756e-32 0 2.58963e-32 0 5.52483e-32 0 1.12556e-31 0
7.84553 3.42567e-11 3.40307e-11 2.26036e-13 0.0065983 0.00637581 0 0 0 0 0 0 1.68156e-43 0 3.65515e-41 0 1.92164e-39 0 4.3006e-38 0 5.51022e-37 0 4.75587e-36 0 2.96266e-35 0 1.51953e-34 0 6.3024e-34 0 2.31419e-33 0 7.33935e-33 0 2.10264e-32 0 5.66193e-32 0 1.39353e-31 0 3.20212e-31 0 7.00257e-31 0 1.4397e-30 0 2.8329e-30 0
8.24824 3.05875e-11 3.04019e-11 1.85604e-13 0.00606796 0.00581697 0 0 0 0 7.00649e-45 0 1.45245e-41 0 2.43288e-39 0 1.05407e-37 0 2.02686e-36 0 2.29289e-35 0 1.78132e-34 0 1.01486e-33 0 4.8058e-33 0 1.85951e-32 0 6.40785e-32 0 1.92087e-31 0 5.22742e-31 0 1.34117e-30 0 3.15891e-30 0 6.96974e-30 0 1.46705e-29 0 2.9119e-29 0 5.5435e-29 0
8.67162 2.91533e-11 2.89998e-11 1.53458e-13 0.00526384 0.00530986 0 0 0 0 6.93643e-43 0 1.06088e-39 0 1.38384e-37 0 4.98794e-36 0 8.30206e-35 0 8.3427e-34 0 5.86401e-33 0 3.06877e-32 0 1.34695e-31 0 4.87858e-31 0 1.58261e-30 0 4.49654e-30 0 1.16531e-29 0 2.85533e-29 0 6.4498e-29 0 1.36913e-28 0 2.77903e-28 0 5.33443e-28 0 9.84112e-28 0
9.11674 2.67391e-11 2.66131e-11 1.26008e-13 0.00471249 0.00483171 0 0 0 0 5.57114e-41 0 5.9583e-38 0 6.12716e-36 0 1.85389e-34 0 2.68982e-33 0 2.41499e-32 0 1.54332e-31 0 7.44957e-31 0 3.04196e-30 0 1.03468e-29 0 3.16908e-29 0 8.55653e-29 0 2.11674e-28 0 4.96456e-28 0 1.07769e-27 0 2.20512e-27 0 4.32382e-27 0 8.03963e-27 0 1.43949e-26 0
9.5847 2.51399e-11 2.50362e-11 1.03612e-13 0.00412141 0.00439354 0 0 1.26117e-44 0 3.64359e-39 0 2.77212e-36 0 2.27357e-34 0 5.82417e-33 0 7.41577e-32 0 5.98151e-31 0 3.49157e-30 0 1.56069e-29 0 5.94986e-29 0 1.90635e-28 0 5.52833e-28 0 1.42199e-27 0 3.36559e-27 0 7.5718e-27 0 1.58262e-26 0 3.12704e-26 0 5.93324e-26 0 1.07031e-25 0 1.86264e-25 0
10.0767 2.36901e-11 2.36048e-11 8.52919e-14 0.00360032 0.00399797 0 0 1.17149e-42 0 1.9179e-37 0 1.05544e-34 0 6.98046e-33 0 1.5263e-31 0 1.71639e-30 0 1.25027e-29 0 6.69582e-29 0 2.78195e-28 0 9.9349e-28 0 3.00725e-27 0 8.27914e-27 0 2.03355e-26 0 4.61479e-26 0 9.97922e-26 0 2.01206e-25 0 3.84555e-25 0 7.0719e-25 0 1.23949e-24 0 2.0995e-24 0
10.5939 2.23415e-11 2.22712e-11 7.02226e-14 0.00314315 0.00363881 0 0 9.00671e-41 0 8.20045e-36 0 3.31618e-33 0 1.78734e-31 0 3.36164e-30 0 3.35903e-29 0 2.22073e-28 0 1.09576e-27 0 4.24678e-27 0 1.42523e-26 0 4.087e-26 0 1.07089e-25 0 2.51746e-25 0 5.48886e-25 0 1.14307e-24 0 2.22715e-24 0 4.12413e-24 0 7.36193e-24 0 1.25545e-23 0 2.07252e-23 0
11.1377 2.11289e-11 2.10711e-11 5.78326e-14 0.00273713 0.00331179 2.24208e-44 0 5.53014e-39 0 2.8832e-34 0 8.69763e-32 0 3.85859e-30 0 6.2886e-29 0 5.61576e-28 0 3.38565e-27 0 1.5453e-26 0 5.60576e-26 0 1.77331e-25 0 4.83023e-25 0 1.2075e-24 0 2.72256e-24 0 5.71438e-24 0 1.14817e-23 0 2.1654e-23 0 3.89095e-23 0 6.75195e-23 0 1.12181e-22 0 1.80712e-22 0
11.7094 1.98901e-11 1.98424e-11 4.76715e-14 0.00239675 0.00301752 2.02908e-42 0 2.72323e-37 0 8.35437e-33 0 1.90712e-30 0 7.0306e-29 0 9.99854e-28 0 8.02355e-27 0 4.43104e-26 0 1.87795e-25 0 6.39709e-25 0 1.91299e-24 0 4.96191e-24 0 1.18615e-23 0 2.57034e-23 0 5.20309e-23 0 1.01042e-22 0 1.84749e-22 0 3.22607e-22 0 5.44954e-22 0 8.83253e-22 0 1.39009e-21 0
