# 0.00187657 1 104 : grain size, compostion index, size index
# Heating and cooling timescale: 9.93964e-07 1.73717e+28
# Ratio of heating to cooling to determine stochastic cutoff: 100
# Equilibrium emission is recorded even for those grains in the stochastic regime.
# Emission spectrum was computed for: 
# Type: IRSF
# Scales: 0.25 0.5 1 1.5 2 2.5 3 3.5 4 4.5 5 5.5 6 6.5 7 7.5 8 8.5 9 9.5 10
# StochasticallyHeated: 0 0 0 0 0 0 0 0 0 0 0 0 0 0 0 0 0 0 0 0 0
# Temperature: -1
# Wavelength  CExt  CAbs  CSca  Albedo G EqEm1 StEm1 EqEm2 StEm2 EqEm3 StEm3 EqEm4 StEm4 EqEm5 StEm5 EqEm6 StEm6 EqEm7 StEm7 EqEm8 StEm8 EqEm9 StEm9 EqEm10 StEm10 EqEm11 StEm11 EqEm12 StEm12 EqEm13 StEm13 EqEm14 StEm14 EqEm15 StEm15 EqEm16 StEm16 EqEm17 StEm17 EqEm18 StEm18 EqEm19 StEm19 EqEm20 StEm20 EqEm21 StEm21
0.05 2.22401e-05 7.84889e-06 1.43912e-05 0.647084 0.854376 0 0 0 0 0 0 0 0 0 0 0 0 0 0 0 0 0 0 0 0 0 0 0 0 0 0 0 0 0 0 0 0 0 0 0 0 0 0 0 0 0 0
0.0525665 2.22454e-05 7.72232e-06 1.45231e-05 0.652857 0.84193 0 0 0 0 0 0 0 0 0 0 0 0 0 0 0 0 0 0 0 0 0 0 0 0 0 0 0 0 0 0 0 0 0 0 0 0 0 0 0 0 0 0
0.0552647 2.22509e-05 7.6269e-06 1.4624e-05 0.657231 0.831601 0 0 0 0 0 0 0 0 0 0 0 0 0 0 0 0 0 0 0 0 0 0 0 0 0 0 0 0 0 0 0 0 0 0 0 0 0 0 0 0 0 0
0.0581015 2.22563e-05 7.58436e-06 1.4672e-05 0.659227 0.825268 0 0 0 0 0 0 0 0 0 0 0 0 0 0 0 0 0 0 0 0 0 0 0 0 0 0 0 0 0 0 0 0 0 0 0 0 0 0 0 0 0 0
0.0610839 2.22618e-05 7.47777e-06 1.4784e-05 0.664098 0.816544 0 0 0 0 0 0 0 0 0 0 0 0 0 0 0 0 0 0 0 0 0 0 0 0 0 0 0 0 0 0 0 0 0 0 0 0 0 0 0 0 0 0
0.0642193 2.22682e-05 7.21065e-06 1.50576e-05 0.676192 0.798331 0 0 0 0 0 0 0 0 0 0 0 0 0 0 0 0 0 0 0 0 0 0 0 0 0 0 0 0 0 0 0 0 0 0 0 0 0 0 0 0 0 0
0.0675157 2.22761e-05 6.94588e-06 1.53302e-05 0.688191 0.778438 0 0 0 0 0 0 0 0 0 0 0 0 0 0 0 0 0 0 0 0 0 0 0 0 0 0 0 0 0 0 0 0 0 0 0 0 0 0 0 0 0 0
0.0709813 2.22843e-05 6.92144e-06 1.53629e-05 0.689403 0.771361 0 0 0 0 0 0 0 0 0 0 0 0 0 0 0 0 0 0 0 0 0 0 0 0 0 0 0 0 0 0 0 0 0 0 0 0 0 0 0 0 0 0
0.0746248 2.22923e-05 7.02915e-06 1.52632e-05 0.684683 0.772731 0 0 0 0 0 0 0 0 0 0 0 0 0 0 0 0 0 0 0 0 0 0 0 0 0 0 0 0 0 0 0 0 0 0 0 0 0 0 0 0 0 0
0.0784553 2.23001e-05 7.17829e-06 1.51219e-05 0.678106 0.77764 0 0 0 0 0 0 0 0 0 0 0 0 0 0 0 0 0 0 0 0 0 0 0 0 0 0 0 0 0 0 0 0 0 0 0 0 0 0 0 0 0 0
0.0824824 2.23079e-05 7.34854e-06 1.49594e-05 0.670586 0.78352 0 0 0 0 0 0 0 0 0 0 0 0 0 0 0 0 0 0 0 0 0 0 0 0 0 0 0 0 0 0 0 0 0 0 0 0 0 0 0 0 0 0
0.0867162 2.2316e-05 7.39035e-06 1.49256e-05 0.668831 0.782418 0 0 0 0 0 0 0 0 0 0 0 0 0 0 0 0 0 0 0 0 0 0 0 0 0 0 0 0 0 0 0 0 0 0 0 0 0 0 0 0 0 0
0.0911674 2.23249e-05 7.35935e-06 1.49655e-05 0.670352 0.777302 0 0 0 0 0 0 0 0 0 0 0 0 0 0 0 0 0 0 0 0 0 0 0 0 0 0 0 0 0 0 0 0 0 0 0 0 0 0 0 0 0 0
0.095847 2.23341e-05 7.3945e-06 1.49396e-05 0.668914 0.775568 0 0 0 0 0 0 0 0 0 0 0 0 0 0 0 0 0 0 0 0 0 0 0 0 0 0 0 0 0 0 0 0 0 0 0 0 0 0 0 0 0 0
0.100767 2.23413e-05 7.65788e-06 1.46834e-05 0.657232 0.78699 0 0 0 0 0 0 0 0 0 0 0 0 0 0 0 0 0 0 0 0 0 0 0 0 0 0 0 0 0 0 0 0 0 0 0 0 0 0 0 0 0 0
0.105939 2.23468e-05 7.92174e-06 1.44251e-05 0.645509 0.801589 0 0 0 0 0 0 0 0 0 0 0 0 0 0 0 0 0 0 0 0 0 0 0 0 0 0 0 0 0 0 0 0 0 0 0 0 0 0 0 0 0 0
0.111377 2.23493e-05 8.39991e-06 1.39494e-05 0.624154 0.829484 0 0 0 0 0 0 0 0 0 0 0 0 0 0 0 0 0 0 0 0 0 0 0 0 0 0 0 0 0 0 0 0 0 0 0 0 0 0 0 0 0 0
0.117094 2.23506e-05 8.89055e-06 1.34601e-05 0.602224 0.861707 0 0 0 0 0 0 0 0 0 0 0 0 0 0 0 0 0 0 0 0 0 0 0 0 0 0 0 0 0 0 0 0 0 0 0 0 0 0 0 0 0 0
0.123105 2.23551e-05 9.20784e-06 1.31472e-05 0.58811 0.884264 0 0 0 0 0 0 0 0 0 0 0 0 0 0 0 0 0 0 0 0 0 0 0 0 0 0 0 0 0 0 0 0 0 0 0 0 0 0 0 0 0 0
0.129424 2.23606e-05 9.47773e-06 1.28829e-05 0.576142 0.904165 0 0 0 0 0 0 0 0 0 0 0 0 0 0 0 0 0 0 0 0 0 0 0 0 0 0 0 0 0 0 0 0 0 0 0 0 0 0 0 0 0 0
0.136067 2.23665e-05 9.694e-06 1.26725e-05 0.566585 0.920303 0 0 0 0 0 0 0 0 0 0 0 0 0 0 0 0 0 0 0 0 0 0 0 0 0 0 0 0 0 0 0 0 0 0 0 0 0 0 0 0 0 0
0.143051 2.23712e-05 9.86212e-06 1.25091e-05 0.559161 0.932894 0 0 0 0 0 0 0 0 0 0 0 0 0 0 0 0 0 0 0 0 0 0 0 0 0 0 0 0 0 0 0 0 0 0 0 0 0 0 0 0 0 0
0.150394 2.23738e-05 9.95716e-06 1.24166e-05 0.554963 0.941011 0 0 0 0 0 0 0 0 0 0 0 0 0 0 0 0 0 0 0 0 0 0 0 0 0 0 0 0 0 0 0 0 0 0 0 0 0 0 0 0 0 0
0.158114 2.23761e-05 9.92229e-06 1.24538e-05 0.556567 0.941899 0 0 0 0 0 0 0 0 0 0 0 0 0 0 0 0 0 0 0 0 0 0 0 0 0 0 0 0 0 0 0 0 0 0 0 0 0 0 0 0 0 0
0.16623 2.23826e-05 9.68599e-06 1.26966e-05 0.567254 0.931164 0 0 0 0 0 0 0 0 0 0 0 0 0 0 0 0 0 0 0 0 0 0 0 0 0 0 0 0 0 0 0 0 0 0 0 0 0 0 0 0 0 0
0.174762 2.23957e-05 9.2226e-06 1.31731e-05 0.588198 0.904826 0 0 0 0 0 0 0 0 0 0 0 0 0 0 0 0 0 0 0 0 0 0 0 0 0 0 0 0 0 0 0 0 0 0 0 0 0 0 0 0 0 0
0.183733 2.24118e-05 8.64039e-06 1.37715e-05 0.614472 0.869253 0 0 0 0 0 0 0 0 0 0 0 0 0 0 0 0 0 0 0 0 0 0 0 0 0 0 0 0 0 0 0 0 0 0 0 0 0 0 0 0 0 0
0.193164 2.24295e-05 8.03657e-06 1.43929e-05 0.641697 0.832641 0 0 0 0 0 0 0 0 0 0 0 0 0 0 0 0 0 0 0 0 0 0 0 0 0 0 0 0 0 0 0 0 0 0 0 0 0 0 0 0 0 0
0.203079 2.24484e-05 7.51297e-06 1.49354e-05 0.665322 0.802387 0 0 0 0 0 0 0 0 0 0 0 0 0 0 0 0 0 0 0 0 0 0 0 0 0 0 0 0 0 0 0 0 0 0 0 0 0 0 0 0 0 0
0.213503 2.24688e-05 7.0645e-06 1.54043e-05 0.685586 0.777781 0 0 0 0 0 0 0 0 0 0 0 0 0 0 0 0 0 0 0 0 0 0 0 0 0 0 0 0 0 0 0 0 0 0 0 0 0 0 0 0 0 0
0.224463 2.24921e-05 6.76854e-06 1.57236e-05 0.699071 0.760779 0 0 0 0 0 0 0 0 0 0 0 0 0 0 0 0 0 0 0 0 0 0 0 0 0 0 0 0 0 0 0 0 0 0 0 0 0 0 0 0 0 0
0.235984 2.25179e-05 6.60509e-06 1.59128e-05 0.706674 0.749343 0 0 0 0 0 0 0 0 0 0 0 0 0 0 0 0 0 0 0 0 0 0 0 0 0 0 0 0 0 0 0 0 0 0 0 0 0 0 0 0 0 0
0.248097 2.25454e-05 6.64566e-06 1.58997e-05 0.705232 0.745633 0 0 0 0 0 0 0 0 0 0 0 0 0 0 0 0 0 0 0 0 0 0 0 0 0 0 0 0 0 0 0 0 0 0 0 0 0 0 0 0 0 0
0.260832 2.25688e-05 6.81623e-06 1.57526e-05 0.69798 0.74776 0 0 0 0 0 0 0 0 0 0 0 0 0 0 0 0 0 0 0 0 0 0 0 0 0 0 0 0 0 0 0 0 0 0 0 0 0 0 0 0 0 0
0.274221 2.25864e-05 7.01917e-06 1.55672e-05 0.68923 0.751917 0 0 0 0 0 0 0 0 0 0 0 0 0 0 0 0 0 0 0 0 0 0 0 0 0 0 0 0 0 0 0 0 0 0 0 0 0 0 0 0 0 0
0.288297 2.25951e-05 7.28026e-06 1.53148e-05 0.677795 0.761294 0 0 0 0 0 0 0 0 0 0 0 0 0 0 0 0 0 0 0 0 0 0 0 0 0 0 0 0 0 0 0 0 0 0 0 0 0 0 0 0 0 0
0.303095 2.26045e-05 7.45966e-06 1.51448e-05 0.669992 0.76845 0 0 0 0 0 0 0 0 0 0 0 0 0 0 0 0 0 0 0 0 0 0 0 0 0 0 0 0 0 0 0 0 0 0 0 0 0 0 0 0 0 0
0.318653 2.26145e-05 7.6062e-06 1.50083e-05 0.663658 0.774747 0 0 0 0 0 0 0 0 0 0 0 0 0 0 0 0 0 0 0 0 0 0 0 0 0 0 0 0 0 0 0 0 0 0 0 0 0 0 0 0 0 0
0.335009 2.2626e-05 7.72297e-06 1.4903e-05 0.658668 0.780163 0 0 0 0 0 0 0 0 0 0 0 0 0 0 0 0 0 0 0 0 0 0 0 0 0 0 0 0 0 0 0 0 0 0 0 0 0 0 0 0 0 0
0.352205 2.26393e-05 7.80456e-06 1.48347e-05 0.655265 0.783988 0 0 0 0 0 0 0 0 0 0 0 0 0 0 0 0 0 0 0 0 0 0 0 0 0 0 0 0 0 0 0 0 0 0 0 0 0 0 0 0 0 0
0.370284 2.26544e-05 7.85886e-06 1.47955e-05 0.653097 0.786351 0 0 0 0 0 0 0 0 0 0 0 0 0 0 0 0 0 0 0 0 0 0 0 0 0 0 0 0 0 0 0 0 0 0 0 0 0 0 0 0 0 0
0.389291 2.26705e-05 7.88943e-06 1.47811e-05 0.651996 0.78726 0 0 0 0 0 0 0 0 0 0 0 0 0 0 0 0 0 0 0 0 0 0 0 0 0 0 0 0 0 0 0 0 0 0 0 0 0 0 0 0 0 0
0.409273 2.26874e-05 7.9131e-06 1.47743e-05 0.651211 0.787804 0 0 0 0 0 0 0 0 0 0 0 0 0 0 0 0 0 0 0 0 0 0 0 0 0 0 0 0 0 0 0 0 0 0 0 0 0 0 0 0 0 0
0.430281 2.27046e-05 7.93369e-06 1.47709e-05 0.650569 0.788188 0 0 0 0 0 0 0 0 0 0 0 0 0 0 0 0 0 0 0 0 0 0 0 0 0 0 0 0 0 0 0 0 0 0 0 0 0 0 0 0 0 0
0.452368 2.27228e-05 7.95468e-06 1.47681e-05 0.649925 0.788757 0 0 0 0 0 0 0 0 0 0 0 0 0 0 0 0 0 0 0 0 0 0 0 0 0 0 0 0 0 0 0 0 0 0 0 0 0 0 0 0 0 0
0.475588 2.27418e-05 7.97403e-06 1.47678e-05 0.649367 0.78927 0 0 0 0 0 0 0 0 0 0 0 0 0 0 0 0 0 0 0 0 0 0 0 0 0 0 0 0 0 0 0 0 0 0 0 0 0 0 0 0 0 0
0.5 2.27619e-05 7.98847e-06 1.47734e-05 0.649041 0.789521 0 0 0 0 0 0 0 0 0 0 0 0 0 0 0 0 0 0 0 0 0 0 0 0 0 0 0 0 0 0 0 0 0 0 0 0 0 0 0 0 0 0
0.525665 2.27831e-05 7.99982e-06 1.47833e-05 0.64887 0.789612 0 0 0 0 0 0 0 0 0 0 0 0 0 0 0 0 0 0 0 0 0 0 0 0 0 0 0 0 0 0 0 0 0 0 0 0 0 0 0 0 0 0
0.552648 2.2805e-05 8.00955e-06 1.47954e-05 0.64878 0.789582 0 0 0 0 0 0 0 0 0 0 0 0 0 0 0 0 0 0 0 0 0 0 0 0 0 0 0 0 0 0 0 0 0 0 0 0 0 0 0 0 0 0
0.581015 2.28287e-05 8.0063e-06 1.48224e-05 0.649288 0.788756 0 0 0 0 0 0 0 0 0 0 0 0 0 0 0 0 0 0 0 0 0 0 0 0 0 0 0 0 0 0 0 0 0 0 0 0 0 0 0 0 0 0
0.610839 2.28531e-05 8.00269e-06 1.48504e-05 0.649821 0.787891 0 0 0 0 0 0 0 0 0 0 0 0 0 0 0 0 0 0 0 0 0 0 0 0 0 0 0 0 0 0 0 0 0 0 0 0 0 0 0 0 0 0
0.642193 2.28784e-05 7.99868e-06 1.48797e-05 0.650383 0.786985 0 0 0 0 0 0 0 0 0 0 0 0 0 0 0 0 0 0 0 0 0 0 0 0 0 0 0 0 0 0 0 0 0 0 0 0 0 0 0 0 0 0
0.675157 2.29047e-05 7.98983e-06 1.49149e-05 0.651171 0.785762 0 0 0 0 0 0 0 0 0 0 0 0 0 0 0 0 0 0 0 0 0 0 0 0 0 0 0 0 0 0 0 0 0 0 0 0 0 0 0 0 0 0
0.709813 2.29323e-05 7.9765e-06 1.49558e-05 0.652172 0.784244 0 0 0 0 0 0 0 0 0 0 0 0 0 0 0 0 0 0 0 0 0 0 0 0 0 0 0 0 0 0 0 0 0 0 0 0 0 0 0 0 0 0
0.746248 2.29606e-05 7.96117e-06 1.49995e-05 0.653269 0.782571 0 0 0 0 0 0 0 0 0 0 0 0 0 0 0 0 0 0 0 0 0 0 0 0 0 0 0 0 0 0 0 0 0 0 0 0 0 0 0 0 0 0
0.784553 2.29899e-05 7.94527e-06 1.50446e-05 0.654402 0.780857 0 0 0 0 0 0 0 0 0 0 0 0 0 0 0 0 0 0 0 0 0 0 0 0 0 0 0 0 0 0 0 0 0 0 0 0 0 0 0 0 0 0
0.824824 2.30199e-05 7.92898e-06 1.50909e-05 0.65556 0.779091 0 0 0 0 0 0 0 0 0 0 0 0 0 0 0 0 0 0 0 0 0 0 0 0 0 0 0 0 0 0 0 0 0 0 0 0 0 0 0 0 0 0
0.867162 2.30508e-05 7.91222e-06 1.51386e-05 0.656749 0.777281 0 0 0 0 0 0 0 0 0 0 0 0 0 0 0 0 0 0 0 0 0 0 0 0 0 0 0 0 0 0 0 0 0 0 0 0 0 0 0 0 0 0
0.911674 2.30823e-05 7.89556e-06 1.51868e-05 0.657939 0.775462 0 0 0 0 0 0 0 0 0 0 0 0 0 0 0 0 0 0 0 0 0 0 0 0 0 0 0 0 0 0 0 0 0 0 0 0 0 0 0 0 0 0
0.95847 2.31144e-05 7.8803e-06 1.52341e-05 0.659074 0.773691 0 0 0 0 0 0 0 0 0 0 0 0 0 0 0 0 0 0 0 0 0 0 0 0 0 0 0 0 0 0 0 0 0 0 0 0 0 0 0 0 0 0
1.00767 2.31472e-05 7.86498e-06 1.52823e-05 0.66022 0.771909 0 0 0 0 0 0 0 0 0 0 0 0 0 0 0 0 0 0 0 0 0 0 0 0 0 0 0 0 0 0 0 0 0 0 0 0 0 0 0 0 0 0
1.05939 2.31806e-05 7.85205e-06 1.53285e-05 0.661266 0.770234 0 0 0 0 0 0 0 0 0 0 0 0 0 0 0 0 0 0 0 0 0 0 0 0 0 0 0 0 0 0 0 0 0 0 0 0 0 0 0 0 0 0
1.11377 2.32146e-05 7.83846e-06 1.53762e-05 0.662348 0.768518 0 0 0 0 0 0 0 0 0 0 0 0 0 0 0 0 0 0 0 0 0 0 0 0 0 0 0 0 0 0 0 0 0 0 0 0 0 0 0 0 0 0
1.17094 2.32496e-05 7.82705e-06 1.54226e-05 0.663348 0.766904 0 0 0 0 0 0 0 0 0 0 0 0 0 0 0 0 0 0 0 0 0 0 0 0 0 0 0 0 0 0 0 0 0 0 0 0 0 0 0 0 0 0
1.23105 2.32854e-05 7.81586e-06 1.54695e-05 0.664345 0.765294 0 0 0 0 0 0 0 0 0 0 0 0 0 0 0 0 0 0 0 0 0 0 0 0 0 0 0 0 0 0 0 0 0 0 0 0 0 0 0 0 0 0
1.29424 2.33222e-05 7.80233e-06 1.55198e-05 0.665454 0.763554 0 0 0 0 0 0 0 0 0 0 0 0 0 0 0 0 0 0 0 0 0 0 0 0 0 0 0 0 0 0 0 0 0 0 0 0 0 0 0 0 0 0
1.36067 2.33595e-05 7.78984e-06 1.55697e-05 0.666524 0.761857 0 0 0 0 0 0 0 0 0 0 0 0 0 0 0 0 0 0 0 0 0 0 0 0 0 0 0 0 0 0 0 0 0 0 0 0 0 0 0 0 0 0
1.43051 2.33975e-05 7.77898e-06 1.56185e-05 0.66753 0.760235 0 0 0 0 0 0 0 0 0 0 0 0 0 0 0 0 0 0 0 0 0 0 0 0 0 0 0 0 0 0 0 0 0 0 0 0 0 0 0 0 0 0
1.50394 2.34365e-05 7.76926e-06 1.56673e-05 0.668497 0.758659 0 0 0 0 0 0 0 0 0 0 0 0 0 0 0 0 0 0 0 0 0 0 0 0 0 0 0 0 0 0 0 0 0 0 0 0 0 0 0 0 0 0
1.58114 2.34762e-05 7.75871e-06 1.57175e-05 0.669507 0.757029 0 0 0 0 0 0 0 0 0 0 0 0 0 0 0 0 0 0 0 0 0 0 0 0 0 0 0 0 0 0 0 0 0 0 0 0 0 0 0 0 0 0
1.6623 2.35176e-05 7.74601e-06 1.57716e-05 0.67063 0.755299 0 0 0 0 0 0 0 0 0 0 0 0 0 0 0 0 0 0 0 0 0 0 0 0 0 0 0 0 0 0 0 0 0 0 0 0 0 0 0 0 0 0
1.74763 2.35595e-05 7.73264e-06 1.58268e-05 0.671782 0.753535 0 0 0 0 0 0 0 0 0 0 0 0 0 0 0 0 0 0 0 0 0 0 0 0 0 0 0 0 0 0 0 0 0 0 0 0 0 0 0 0 0 0
1.83733 2.35994e-05 7.71989e-06 1.58795e-05 0.672877 0.751779 0 0 0 0 0 0 0 0 0 0 0 0 0 0 0 0 0 0 0 0 0 0 0 0 0 0 0 0 0 0 0 0 0 0 0 0 0 0 0 0 0 0
1.93164 2.3643e-05 7.70657e-06 1.59365e-05 0.674045 0.75003 0 0 0 0 0 0 0 0 0 0 0 0 0 0 0 0 0 0 0 0 0 0 0 0 0 0 0 0 0 0 0 0 0 0 0 0 0 0 0 0 0 0
2.03079 2.36935e-05 7.69232e-06 1.60012e-05 0.675341 0.748308 0 0 0 0 0 0 0 0 0 0 0 0 0 0 0 0 0 0 0 0 0 0 0 0 0 0 0 0 0 0 0 0 0 0 0 0 0 0 0 0 0 0
2.13503 2.3741e-05 7.67498e-06 1.60661e-05 0.676721 0.746416 0 0 0 0 0 0 0 0 0 0 0 0 0 0 0 0 0 0 0 0 0 0 0 0 0 0 0 0 0 0 0 0 0 0 0 0 0 0 0 0 0 0
2.24463 2.37873e-05 7.65622e-06 1.61311e-05 0.678139 0.744477 0 0 0 0 0 0 0 0 0 0 0 0 0 0 0 0 0 0 0 0 0 0 0 0 0 0 0 0 0 0 0 0 0 0 0 0 0 0 0 0 0 0
2.35984 2.38393e-05 7.63654e-06 1.62027e-05 0.679666 0.74257 0 0 0 0 0 0 0 0 0 0 0 0 0 0 0 0 0 0 0 0 0 0 0 0 0 0 0 0 0 0 0 0 0 0 0 0 0 0 0 0 0 0
2.48097 2.3894e-05 7.61452e-06 1.62795e-05 0.681321 0.740637 0 0 0 0 0 0 0 0 0 0 0 0 0 0 0 0 0 0 0 0 0 0 0 0 0 0 0 0 0 0 0 0 0 0 0 0 0 0 0 0 0 0
2.60832 2.39343e-05 7.58691e-06 1.63474e-05 0.683011 0.73828 0 0 0 0 0 0 0 0 0 0 0 0 0 0 0 0 0 0 0 0 0 0 0 0 0 0 0 0 0 0 0 0 0 0 0 0 0 0 0 0 0 0
2.74221 2.39597e-05 7.5552e-06 1.64045e-05 0.684671 0.735762 0 0 0 0 0 0 0 0 0 0 0 0 0 0 0 0 0 0 0 0 0 0 0 0 0 0 0 0 0 0 0 0 0 0 0 0 0 0 0 0 0 0
2.88297 2.39776e-05 7.52382e-06 1.64538e-05 0.686215 0.733142 0 0 0 0 0 0 0 0 0 0 0 0 0 0 0 0 0 0 0 0 0 0 0 0 0 0 0 0 0 0 0 0 0 0 0 0 0 0 0 0 0 0
3.03095 2.40561e-05 7.48791e-06 1.65682e-05 0.688731 0.730965 0 0 0 0 0 0 0 0 0 0 0 0 0 0 0 0 0 0 0 0 0 0 0 0 0 0 0 0 0 0 0 0 0 0 0 0 0 0 0 0 0 0
3.18653 2.41657e-05 7.44891e-06 1.67168e-05 0.691757 0.728979 0 0 0 0 0 0 0 0 0 0 0 0 0 0 0 0 0 0 0 0 0 0 0 0 0 0 0 0 0 0 0 0 0 0 0 0 0 0 0 0 0 0
3.35009 2.4144e-05 7.40844e-06 1.67356e-05 0.693157 0.725699 0 0 0 0 0 0 0 0 0 0 0 0 0 0 0 0 0 0 0 0 0 0 0 0 0 0 0 0 0 0 0 0 0 0 0 0 0 0 0 0 0 0
3.52205 2.41638e-05 7.36291e-06 1.68009e-05 0.695292 0.722465 0 0 0 0 0 0 0 0 0 0 0 0 0 0 0 0 0 0 0 0 0 0 0 0 0 0 0 0 0 0 0 0 0 0 0 0 0 0 0 0 0 0
3.70284 2.43582e-05 7.31868e-06 1.70395e-05 0.699539 0.721391 0 0 0 0 0 0 0 0 0 0 0 0 0 0 0 0 0 0 0 0 0 0 0 0 0 0 0 0 0 0 0 0 0 0 0 0 0 0 0 0 0 0
3.89291 2.42453e-05 7.27359e-06 1.69717e-05 0.7 0.716792 0 0 0 0 0 0 0 0 0 0 0 0 0 0 0 0 0 0 0 0 0 0 0 0 0 0 0 0 0 0 0 0 0 0 0 0 0 0 0 0 0 0
4.09273 2.44508e-05 7.22386e-06 1.72269e-05 0.704555 0.715736 0 0 0 0 0 0 0 0 0 0 0 0 0 0 0 0 0 0 0 0 0 0 0 0 0 0 0 0 0 0 0 0 0 0 0 0 0 0 0 0 0 0
4.30281 2.43882e-05 7.17655e-06 1.72117e-05 0.705737 0.711544 0 0 0 0 0 0 0 0 0 0 0 0 0 0 0 0 0 0 0 0 0 0 0 0 0 0 0 0 0 0 0 0 0 0 0 0 0 0 0 0 0 0
4.52368 2.45167e-05 7.12791e-06 1.73888e-05 0.709263 0.709201 0 0 0 0 0 0 0 0 0 0 0 0 0 0 0 0 0 0 0 0 0 0 0 0 0 0 0 0 0 0 0 0 0 0 0 0 0 0 0 0 0 0
4.75588 2.44819e-05 7.07456e-06 1.74073e-05 0.711028 0.705311 0 0 0 0 0 0 0 0 0 0 0 0 0 0 0 0 0 0 0 0 0 0 0 0 0 0 0 0 0 0 0 0 0 0 0 0 0 0 0 0 0 0
5 2.46963e-05 7.02279e-06 1.76735e-05 0.715634 0.703522 0 0 0 0 0 0 0 0 0 0 0 0 0 0 0 0 0 0 0 0 0 0 0 0 0 0 0 0 0 0 0 0 0 0 0 0 0 0 0 0 0 0
5.25665 2.45141e-05 6.95937e-06 1.75547e-05 0.716107 0.698096 0 0 0 0 0 0 0 0 0 0 0 0 0 0 0 0 0 0 0 0 0 0 0 0 0 0 0 0 0 0 0 0 0 0 0 0 0 0 0 0 0 0
5.52648 2.49137e-05 6.90777e-06 1.8006e-05 0.722733 0.698756 0 0 0 0 0 0 0 0 0 0 0 0 0 0 0 0 0 0 0 0 0 0 0 0 0 0 0 0 0 0 0 0 0 0 0 0 0 0 0 0 0 0
5.81015 2.45642e-05 6.86373e-06 1.77005e-05 0.72058 0.691468 0 0 0 0 0 0 0 0 0 0 0 0 0 0 0 0 0 0 0 0 0 0 0 0 0 0 0 0 0 0 0 0 0 0 0 0 0 0 0 0 0 0
6.10839 2.49292e-05 6.79493e-06 1.81343e-05 0.727431 0.69073 0 0 0 0 0 0 0 0 0 0 0 0 0 0 0 0 0 0 0 0 0 0 0 0 0 0 0 0 0 0 0 0 0 0 0 0 0 0 0 0 0 0
6.42193 2.4971e-05 6.7683e-06 1.82027e-05 0.728953 0.688554 0 0 0 0 0 0 0 0 0 0 0 0 0 0 0 0 0 0 0 0 0 0 0 0 0 0 0 0 0 0 0 0 0 0 0 0 0 0 0 0 0 0
6.75157 2.46645e-05 6.6976e-06 1.79669e-05 0.728451 0.681524 0 0 0 0 0 0 0 0 0 0 0 0 0 0 0 0 0 0 0 0 0 0 0 0 0 0 0 0 0 0 0 0 0 0 0 0 0 0 0 0 0 0
7.09813 2.5249e-05 6.68088e-06 1.85681e-05 0.7354 0.683753 0 0 0 0 0 0 0 0 0 0 0 0 0 0 0 0 0 0 0 0 0 0 0 0 0 0 0 0 0 0 0 0 0 0 0 0 0 0 0 0 0 0
7.46248 2.51495e-05 6.64482e-06 1.85047e-05 0.735788 0.678733 0 0 0 0 0 0 0 0 0 0 0 0 0 0 0 0 0 0 0 0 0 0 0 0 0 0 0 0 0 0 0 0 0 0 0 0 0 0 0 0 0 0
7.84553 2.4772e-05 6.60029e-06 1.81717e-05 0.733558 0.671418 0 0 0 0 0 0 0 0 0 0 0 0 0 0 0 0 0 0 0 0 0 0 0 0 0 0 0 0 0 0 0 0 0 0 0 0 0 0 0 0 0 0
8.24824 2.53789e-05 6.58055e-06 1.87983e-05 0.740707 0.67682 0 0 0 0 0 0 0 0 0 0 0 0 0 0 0 0 0 0 0 0 0 0 0 0 0 0 0 0 0 0 0 0 0 0 0 0 0 0 0 0 0 0
8.67162 2.55674e-05 6.64002e-06 1.89274e-05 0.740294 0.677036 0 0 0 0 0 0 0 0 0 0 0 0 0 0 0 0 0 0 0 0 0 0 0 0 0 0 0 0 0 0 0 0 0 0 0 0 0 0 0 0 0 0
9.11674 2.50451e-05 6.6542e-06 1.83909e-05 0.734311 0.668204 0 0 0 0 0 0 0 0 0 0 0 0 0 0 0 0 0 0 0 0 0 0 0 0 0 0 0 0 0 0 0 0 0 0 0 0 0 0 0 0 0 0
9.5847 2.52072e-05 6.65578e-06 1.85515e-05 0.735958 0.66661 0 0 0 0 0 0 0 0 0 0 0 0 0 0 0 0 0 0 0 0 0 0 0 0 0 0 0 0 0 0 0 0 0 0 0 0 0 0 0 0 0 0
10.0767 2.58771e-05 6.67729e-06 1.91998e-05 0.741961 0.671205 0 0 0 0 0 0 0 0 0 0 0 0 0 0 0 0 0 0 0 0 0 0 0 0 0 0 0 0 0 0 0 0 0 0 0 0 0 0 0 0 0 0
10.5939 2.57931e-05 6.72989e-06 1.90632e-05 0.739082 0.669263 0 0 0 0 0 0 0 0 0 0 0 0 0 0 0 0 0 0 0 0 0 0 0 0 0 0 0 0 0 0 0 0 0 0 0 0 0 0 0 0 0 0
11.1377 2.52377e-05 6.82439e-06 1.84133e-05 0.729595 0.664544 0 0 0 0 0 0 0 0 0 0 0 0 0 0 0 0 0 0 0 0 0 0 0 0 0 0 0 0 0 0 0 0 0 0 0 0 0 0 0 0 0 0
11.7094 2.5318e-05 6.84737e-06 1.84707e-05 0.729546 0.662849 0 0 0 0 0 0 0 0 0 0 0 0 0 0 0 0 0 0 0 0 0 0 0 0 0 0 0 0 0 0 0 0 0 0 0 0 0 0 0 0 0 0
12.3105 2.59314e-05 6.92785e-06 1.90036e-05 0.73284 0.669198 0 0 0 0 0 0 0 0 0 0 0 0 0 0 0 0 0 0 0 0 0 0 0 0 0 0 0 0 0 0 0 0 0 0 0 0 0 0 0 0 0 0
12.9424 2.62807e-05 7.00294e-06 1.92778e-05 0.733533 0.668508 0 0 0 0 0 0 0 0 0 0 0 0 0 0 0 0 0 0 0 0 0 0 0 0 0 0 0 0 0 0 0 0 0 0 0 0 0 0 0 0 0 0
13.6067 2.59854e-05 7.04543e-06 1.89399e-05 0.728869 0.663497 0 0 0 0 0 0 0 0 0 0 0 0 0 0 0 0 0 0 0 0 0 0 0 0 0 0 0 0 0 0 0 0 0 0 0 0 0 0 0 0 0 0
14.3051 2.56823e-05 7.07014e-06 1.86121e-05 0.724707 0.658563 0 0 0 0 0 0 0 0 0 0 0 0 0 0 0 0 0 0 0 0 0 0 0 0 0 0 0 0 0 0 0 0 0 0 1.4013e-45 0 2.8026e-45 0 8.40779e-45 0 2.38221e-44 0
15.0394 2.59084e-05 7.12996e-06 1.87784e-05 0.724801 0.660313 0 0 0 0 0 0 0 0 0 0 0 0 0 0 0 0 0 0 0 0 0 0 0 0 0 0 0 0 2.8026e-45 0 1.12104e-44 0 4.2039e-44 0 1.49939e-43 0 4.84849e-43 0 1.42512e-42 0 4.103e-42 0
15.8114 2.63615e-05 7.2117e-06 1.91498e-05 0.726431 0.665303 0 0 0 0 0 0 0 0 0 0 0 0 0 0 0 0 0 0 0 0 0 0 2.8026e-45 0 1.82169e-44 0 9.94922e-44 0 4.56823e-43 0 1.86653e-42 0 6.87757e-42 0 2.29743e-41 0 6.99696e-41 0 1.95271e-40 0 5.33882e-40 0
16.623 2.65372e-05 7.27144e-06 1.92657e-05 0.72599 0.665419 0 0 0 0 0 0 0 0 0 0 0 0 0 0 0 0 0 0 7.00649e-45 0 7.14662e-44 0 5.15678e-43 0 3.10668e-42 0 1.53288e-41 0 6.51029e-41 0 2.48635e-40 0 8.59711e-40 0 2.70769e-39 0 7.81006e-39 0 2.0731e-38 0 5.39635e-38 0
17.4762 2.64295e-05 7.34484e-06 1.90847e-05 0.722097 0.661793 0 0 0 0 0 0 0 0 0 0 0 0 0 0 7.00649e-45 0 1.14906e-43 0 1.30461e-42 0 1.10871e-41 0 7.2478e-41 0 3.99754e-40 0 1.8243e-39 0 7.21964e-39 0 2.58266e-38 0 8.40525e-38 0 2.50306e-37 0 6.85591e-37 0 1.73512e-36 0 4.31048e-36 0
18.3733 2.62749e-05 7.37328e-06 1.89016e-05 0.719379 0.655791 0 0 0 0 0 0 0 0 0 0 1.4013e-45 0 4.48416e-44 0 1.14206e-42 0 1.70314e-41 0 1.7199e-40 0 1.3167e-39 0 7.85381e-39 0 3.98532e-38 0 1.68879e-37 0 6.24924e-37 0 2.10064e-36 0 6.45378e-36 0 1.8222e-35 0 4.75143e-35 0 1.14921e-34 0 2.73087e-34 0
19.3164 2.63253e-05 7.3493e-06 1.89759e-05 0.720827 0.650694 0 0 0 0 0 0 0 0 1.4013e-45 0 1.61149e-43 0 6.86776e-42 0 1.48627e-40 0 1.9432e-39 0 1.75278e-38 0 1.21493e-37 0 6.64167e-37 0 3.1133e-36 0 1.22946e-35 0 4.26798e-35 0 1.3522e-34 0 3.9328e-34 0 1.05554e-33 0 2.62652e-33 0 6.08457e-33 0 1.38604e-32 0
20.3079 2.64777e-05 7.27135e-06 1.92064e-05 0.725379 0.647974 0 0 0 0 0 0 0 0 2.38221e-43 0 2.27179e-41 0 8.02968e-40 0 1.49563e-38 0 1.72479e-37 0 1.39736e-36 0 8.81211e-36 0 4.43391e-35 0 1.9274e-34 0 7.11778e-34 0 2.3252e-33 0 6.96348e-33 0 1.92243e-32 0 4.91688e-32 0 1.17022e-31 0 2.60197e-31 0 5.69366e-31 0
21.3503 2.64825e-05 7.16078e-06 1.93217e-05 0.729604 0.644187 0 0 0 0 0 0 8.96831e-44 0 3.23364e-41 0 2.46247e-39 0 7.31313e-38 0 1.18091e-36 0 1.2086e-35 0 8.84086e-35 0 5.09586e-34 0 2.36954e-33 0 9.58717e-33 0 3.32171e-32 0 1.02418e-31 0 2.90726e-31 0 7.63794e-31 0 1.86596e-30 0 4.25689e-30 0 9.103e-30 0 1.91721e-29 0
