# 4.85817e-08 0 3 : grain size, compostion index, size index
# Heating and cooling timescale: 358171 0.117151
# Ratio of heating to cooling to determine stochastic cutoff: 100
# Equilibrium emission is recorded even for those grains in the stochastic regime.
# Emission spectrum was computed for: 
# Type: ISRF
# Scales: 0.25 0.5 1 1.5 2 2.5 3 3.5 4 4.5 5 5.5 6 6.5 7 7.5 8 8.5 9 9.5 10
# StochasticallyHeated: 1 1 1 1 1 1 1 1 1 1 1 1 1 1 1 1 1 1 1 1 1
# Temperature: -1
# Wavelength  CExt  CAbs  CSca  Albedo G EqEm1 StEm1 EqEm2 StEm2 EqEm3 StEm3 EqEm4 StEm4 EqEm5 StEm5 EqEm6 StEm6 EqEm7 StEm7 EqEm8 StEm8 EqEm9 StEm9 EqEm10 StEm10 EqEm11 StEm11 EqEm12 StEm12 EqEm13 StEm13 EqEm14 StEm14 EqEm15 StEm15 EqEm16 StEm16 EqEm17 StEm17 EqEm18 StEm18 EqEm19 StEm19 EqEm20 StEm20 EqEm21 StEm21
0.05 9.2046e-17 9.20449e-17 1.07588e-21 1.16885e-05 0.00058411 0 0 0 0 0 0 0 0 0 0 0 0 0 0 0 0 0 0 0 0 0 0 0 0 0 0 0 0 0 0 0 0 0 0 0 0 0 0 0 0 0 0
0.0525665 1.22684e-16 1.22682e-16 1.72956e-21 1.40977e-05 0.000523832 0 0 0 0 0 0 0 0 0 0 0 0 0 0 0 0 0 0 0 0 0 0 0 0 0 0 0 0 0 0 0 0 0 0 0 0 0 0 0 0 0 0
0.0552647 1.46567e-16 1.46565e-16 2.00881e-21 1.37058e-05 0.000472496 0 0 0 0 0 0 0 0 0 0 0 0 0 0 0 0 0 0 0 0 0 0 0 0 0 0 0 0 0 0 0 0 0 0 0 0 0 0 0 0 0 0
0.0581015 1.64343e-16 1.64341e-16 2.09141e-21 1.27259e-05 0.000427026 0 0 0 0 0 0 0 0 0 0 0 0 0 0 0 0 0 0 0 0 0 0 0 0 0 0 0 0 0 0 0 0 0 0 0 0 0 0 0 0 0 0
0.0610839 1.7643e-16 1.76428e-16 2.04371e-21 1.15837e-05 0.000386335 0 0 0 0 0 0 0 0 0 0 0 0 0 0 0 0 0 0 0 0 0 0 0 0 0 0 0 0 0 0 0 0 0 0 0 0 0 0 0 0 0 0
0.0642193 1.84281e-16 1.84279e-16 1.92997e-21 1.0473e-05 0.000349616 0 0 0 0 0 0 0 0 0 0 0 0 0 0 0 0 0 0 0 0 0 0 0 0 0 0 0 0 0 0 0 0 0 0 0 0 0 0 0 0 0 0
0.0675157 1.89719e-16 1.89717e-16 1.79773e-21 9.47575e-06 0.000316294 0 0 0 0 0 0 0 0 0 0 0 0 0 0 0 0 0 0 0 0 0 0 0 0 0 0 0 0 0 0 0 0 0 0 0 0 0 0 0 0 0 0
0.0709813 1.94543e-16 1.94542e-16 1.67485e-21 8.60914e-06 0.00028604 0 0 0 0 0 0 0 0 0 0 0 0 0 0 0 0 0 0 0 0 0 0 0 0 0 0 0 0 0 0 0 0 0 0 0 0 0 0 0 0 0 0
0.0746248 1.99551e-16 1.99549e-16 1.56701e-21 7.85269e-06 0.000258642 0 0 0 0 0 0 0 0 0 0 0 0 0 0 0 0 0 0 0 0 0 0 0 0 0 0 0 0 0 0 0 0 0 0 0 0 0 0 0 0 0 0
0.0784553 2.04216e-16 2.04215e-16 1.46291e-21 7.16351e-06 0.000233905 0 0 0 0 0 0 0 0 0 0 0 0 0 0 0 0 0 0 0 0 0 0 0 0 0 0 0 0 0 0 0 0 0 0 0 0 0 0 0 0 0 0
0.0824824 2.08227e-16 2.08226e-16 1.35937e-21 6.52831e-06 0.000211586 0 0 0 0 0 0 0 0 0 0 0 0 0 0 0 0 0 0 0 0 0 0 0 0 0 0 0 0 0 0 0 0 0 0 0 0 0 0 0 0 0 0
0.0867162 2.11523e-16 2.11521e-16 1.25751e-21 5.94505e-06 0.000191435 0 0 0 0 0 0 0 0 0 0 0 0 0 0 0 0 0 0 0 0 0 0 0 0 0 0 0 0 0 0 0 0 0 0 0 0 0 0 0 0 0 0
0.0911674 2.14186e-16 2.14185e-16 1.15937e-21 5.41289e-06 0.000173247 0 0 0 0 0 0 0 0 0 0 0 0 0 0 0 0 0 0 0 0 0 0 0 0 0 0 0 0 0 0 0 0 0 0 0 0 0 0 0 0 0 0
0.095847 2.16218e-16 2.16217e-16 1.06568e-21 4.92872e-06 0.000156847 0 0 0 0 0 0 0 0 0 0 0 0 0 0 0 0 0 0 0 0 0 0 0 0 0 0 0 0 0 0 0 0 0 0 0 0 0 0 0 0 0 0
0.100767 2.17435e-16 2.17434e-16 9.75634e-22 4.48702e-06 0.000142088 0 0 0 0 0 0 0 0 0 0 0 0 0 0 0 0 0 0 0 0 0 0 0 0 0 0 0 0 0 0 0 0 0 0 0 0 0 0 0 0 0 0
0.105939 2.17297e-16 2.17296e-16 8.86609e-22 4.08018e-06 0.000128901 0 0 0 0 0 0 0 0 0 0 0 0 0 0 0 0 0 1.4013e-45 0 1.4013e-45 0 1.4013e-45 0 1.4013e-45 0 2.8026e-45 0 2.8026e-45 0 2.8026e-45 0 4.2039e-45 0 4.2039e-45 0 4.2039e-45 0 5.60519e-45 0 5.60519e-45 0 7.00649e-45
0.111377 2.14222e-16 2.14221e-16 7.88724e-22 3.68181e-06 0.000117109 0 0 0 0 0 0 0 1.4013e-45 0 2.8026e-45 0 5.60519e-45 0 7.00649e-45 0 9.80909e-45 0 1.4013e-44 0 1.82169e-44 0 2.24208e-44 0 2.8026e-44 0 3.36312e-44 0 3.92364e-44 0 4.62428e-44 0 5.46506e-44 0 6.16571e-44 0 7.14662e-44 0 7.9874e-44 0 9.10844e-44 0 9.94922e-44
0.117094 2.08401e-16 2.084e-16 6.85583e-22 3.28973e-06 0.000106441 0 0 0 0 0 1.4013e-45 0 2.52234e-44 0 4.48416e-44 0 7.14662e-44 0 1.03696e-43 0 1.44334e-43 0 1.91978e-43 0 2.45227e-43 0 3.04082e-43 0 3.72745e-43 0 4.47014e-43 0 5.31092e-43 0 6.22177e-43 0 7.2307e-43 0 8.21161e-43 0 9.37469e-43 0 1.04957e-42 0 1.1841e-42 0 1.31162e-42
0.123105 2.02634e-16 2.02634e-16 5.96638e-22 2.94441e-06 9.67084e-05 0 1.4013e-45 0 1.12104e-44 0 5.46506e-44 0 4.16186e-43 0 6.86636e-43 0 1.04116e-42 0 1.45735e-42 0 1.95481e-42 0 2.54055e-42 0 3.18655e-42 0 3.91243e-42 0 4.72097e-42 0 5.6164e-42 0 6.59731e-42 0 7.67491e-42 0 8.8478e-42 0 1.00025e-41 0 1.13575e-41 0 1.26705e-41 0 1.42162e-41 0 1.56889e-41
0.129424 1.95561e-16 1.95561e-16 5.15379e-22 2.63539e-06 8.80257e-05 0 8.40779e-44 0 4.4281e-43 0 1.9422e-42 0 8.39238e-42 0 1.25192e-41 0 1.7463e-41 0 2.30401e-41 0 2.94259e-41 0 3.6658e-41 0 4.4508e-41 0 5.31372e-41 0 6.2582e-41 0 7.28871e-41 0 8.40148e-41 0 9.60744e-41 0 1.09059e-40 0 1.21975e-40 0 1.36718e-40 0 1.51182e-40 0 1.67773e-40 0 1.83817e-40
0.136067 1.85027e-16 1.85027e-16 4.28829e-22 2.31765e-06 8.02071e-05 0 2.76476e-42 0 1.35842e-41 0 5.66937e-41 0 1.84848e-40 0 2.58163e-40 0 3.38489e-40 0 4.24415e-40 0 5.17298e-40 0 6.17362e-40 0 7.22976e-40 0 8.35234e-40 0 9.54483e-40 0 1.08115e-39 0 1.21479e-39 0 1.35622e-39 0 1.50565e-39 0 1.65521e-39 0 1.81951e-39 0 1.98239e-39 0 2.16218e-39 0 2.33864e-39
0.143051 1.75967e-16 1.75967e-16 3.58282e-22 2.03607e-06 7.29131e-05 0 7.65796e-41 0 3.51214e-40 0 1.39736e-39 0 3.96706e-39 0 5.38228e-39 0 6.85153e-39 0 8.36568e-39 0 9.9338e-39 0 1.15565e-38 0 1.32247e-38 0 1.49433e-38 0 1.67158e-38 0 1.85472e-38 0 2.0431e-38 0 2.23731e-38 0 2.43793e-38 0 2.63906e-38 0 2.85096e-38 0 3.06246e-38 0 3.28592e-38 0 3.50793e-38
0.150394 1.64165e-16 1.64165e-16 2.93654e-22 1.78877e-06 6.65955e-05 0 1.75108e-39 0 7.52613e-39 0 2.86203e-38 0 7.48933e-38 0 1.00513e-37 0 1.26497e-37 0 1.52805e-37 0 1.79484e-37 0 2.06521e-37 0 2.33902e-37 0 2.61609e-37 0 2.89683e-37 0 3.18189e-37 0 3.4703e-37 0 3.76242e-37 0 4.05945e-37 0 4.35689e-37 0 4.66136e-37 0 4.96593e-37 0 5.27779e-37 0 5.58957e-37
0.158114 1.45296e-16 1.45295e-16 2.11407e-22 1.45502e-06 6.06289e-05 0 3.22378e-38 0 1.30351e-37 0 4.74978e-37 0 1.17184e-36 0 1.56647e-36 0 1.96319e-36 0 2.36196e-36 0 2.76294e-36 0 3.16584e-36 0 3.57113e-36 0 3.97808e-36 0 4.38716e-36 0 4.79921e-36 0 5.21289e-36 0 5.62844e-36 0 6.04762e-36 0 6.46681e-36 0 6.89006e-36 0 7.3135e-36 0 7.74045e-36 0 8.16813e-36
0.16623 1.3706e-16 1.3706e-16 1.60454e-22 1.17068e-06 5.42416e-05 0 5.41207e-37 0 2.06634e-36 0 7.23195e-36 0 1.69978e-35 0 2.26883e-35 0 2.83899e-35 0 3.41048e-35 0 3.98327e-35 0 4.55692e-35 0 5.13237e-35 0 5.70841e-35 0 6.28565e-35 0 6.86513e-35 0 7.44512e-35 0 8.02578e-35 0 8.6095e-35 0 9.19278e-35 0 9.77845e-35 0 1.03642e-34 0 1.09512e-34 0 1.15393e-34
0.174762 1.38283e-16 1.38283e-16 1.40271e-22 1.01437e-06 4.83234e-05 0 8.37855e-36 0 3.03132e-35 0 1.02133e-34 0 2.30065e-34 0 3.06906e-34 0 3.83801e-34 0 4.60786e-34 0 5.37849e-34 0 6.14932e-34 0 6.92165e-34 0 7.69388e-34 0 8.46677e-34 0 9.24156e-34 0 1.00161e-33 0 1.07906e-33 0 1.1568e-33 0 1.23445e-33 0 1.31225e-33 0 1.39004e-33 0 1.46783e-33 0 1.54575e-33
0.183733 1.43189e-16 1.43189e-16 1.31846e-22 9.20781e-07 4.30248e-05 0 1.15625e-34 0 3.97747e-34 0 1.2929e-33 0 2.80311e-33 0 3.73846e-33 0 4.67398e-33 0 5.61014e-33 0 6.54678e-33 0 7.48321e-33 0 8.42096e-33 0 9.35819e-33 0 1.02958e-32 0 1.1235e-32 0 1.21736e-32 0 1.31117e-32 0 1.40525e-32 0 1.49922e-32 0 1.5933e-32 0 1.68735e-32 0 1.78131e-32 0 1.87543e-32
0.193164 1.52953e-16 1.52953e-16 1.3366e-22 8.73865e-07 3.81833e-05 0 1.4397e-33 0 4.72409e-33 0 1.48455e-32 0 3.10863e-32 0 4.14549e-32 0 5.18235e-32 0 6.21967e-32 0 7.25729e-32 0 8.29452e-32 0 9.3329e-32 0 1.03706e-31 0 1.14084e-31 0 1.24478e-31 0 1.34862e-31 0 1.4524e-31 0 1.55644e-31 0 1.66035e-31 0 1.76434e-31 0 1.86829e-31 0 1.97212e-31 0 2.07611e-31
0.203079 1.65149e-16 1.65148e-16 1.41043e-22 8.54037e-07 3.39986e-05 0 1.59542e-32 0 5.009e-32 0 1.52475e-31 0 3.09307e-31 0 4.12454e-31 0 5.15592e-31 0 6.18764e-31 0 7.21957e-31 0 8.25105e-31 0 9.28351e-31 0 1.03152e-30 0 1.1347e-30 0 1.23802e-30 0 1.34123e-30 0 1.44438e-30 0 1.54776e-30 0 1.65102e-30 0 1.75434e-30 0 1.85761e-30 0 1.96077e-30 0 2.06406e-30
0.213503 1.7312e-16 1.7312e-16 1.41353e-22 8.16505e-07 3.04095e-05 0 1.52089e-31 0 4.58227e-31 0 1.35367e-30 0 2.66751e-30 0 3.55698e-30 0 4.44635e-30 0 5.33595e-30 0 6.22569e-30 0 7.11504e-30 0 8.00513e-30 0 8.89461e-30 0 9.78411e-30 0 1.06746e-29 0 1.15644e-29 0 1.24535e-29 0 1.33445e-29 0 1.42344e-29 0 1.51249e-29 0 1.60149e-29 0 1.6904e-29 0 1.77941e-29
0.224463 1.78359e-16 1.78359e-16 1.37487e-22 7.70845e-07 2.72439e-05 0 1.2702e-30 0 3.68284e-30 0 1.05773e-29 0 2.02981e-29 0 2.70661e-29 0 3.38333e-29 0 4.06019e-29 0 4.73714e-29 0 5.41381e-29 0 6.09099e-29 0 6.76771e-29 0 7.44445e-29 0 8.1219e-29 0 8.79879e-29 0 9.47524e-29 0 1.01529e-28 0 1.08299e-28 0 1.15073e-28 0 1.21843e-28 0 1.28606e-28 0 1.35377e-28
0.235984 1.82489e-16 1.82489e-16 1.32082e-22 7.23783e-07 2.43719e-05 0 9.4451e-30 0 2.64245e-29 0 7.39092e-29 0 1.38441e-28 0 1.846e-28 0 2.30754e-28 0 2.76915e-28 0 3.23083e-28 0 3.69232e-28 0 4.15413e-28 0 4.61565e-28 0 5.07717e-28 0 5.53914e-28 0 6.00075e-28 0 6.46208e-28 0 6.92419e-28 0 7.38585e-28 0 7.84773e-28 0 8.30943e-28 0 8.77064e-28 0 9.23234e-28
0.248097 1.87579e-16 1.87579e-16 1.29135e-22 6.8843e-07 2.17409e-05 0 6.36036e-29 0 1.7214e-28 0 4.69651e-28 0 8.60502e-28 0 1.1474e-27 0 1.43427e-27 0 1.72118e-27 0 2.00813e-27 0 2.29497e-27 0 2.58199e-27 0 2.86884e-27 0 3.1557e-27 0 3.44281e-27 0 3.72971e-27 0 4.01645e-27 0 4.30363e-27 0 4.59056e-27 0 4.87762e-27 0 5.16456e-27 0 5.45123e-27 0 5.73817e-27
0.260832 1.88266e-16 1.88266e-16 1.22499e-22 6.5067e-07 1.95061e-05 0 3.7895e-28 0 9.94574e-28 0 2.65097e-27 0 4.76037e-27 0 6.34749e-27 0 7.93447e-27 0 9.52164e-27 0 1.1109e-26 0 1.26958e-26 0 1.42835e-26 0 1.58704e-26 0 1.74573e-26 0 1.90454e-26 0 2.06325e-26 0 2.22188e-26 0 2.38073e-26 0 2.53946e-26 0 2.69825e-26 0 2.85698e-26 0 3.01556e-26 0 3.17429e-26
0.274221 1.84848e-16 1.84848e-16 1.12736e-22 6.09884e-07 1.7585e-05 0 2.01122e-27 0 5.13071e-27 0 1.338e-26 0 2.35905e-26 0 3.14556e-26 0 3.932e-26 0 4.71852e-26 0 5.50513e-26 0 6.29151e-26 0 7.07827e-26 0 7.86465e-26 0 8.65105e-26 0 9.43803e-26 0 1.02245e-25 0 1.10106e-25 0 1.17978e-25 0 1.25843e-25 0 1.33712e-25 0 1.41577e-25 0 1.49437e-25 0 1.57302e-25
0.288297 1.78439e-16 1.78439e-16 1.00903e-22 5.65475e-07 1.5908e-05 0 9.60148e-27 0 2.38602e-26 0 6.09643e-26 0 1.05712e-25 0 1.40956e-25 0 1.76198e-25 0 2.11442e-25 0 2.4669e-25 0 2.81929e-25 0 3.17183e-25 0 3.52422e-25 0 3.87661e-25 0 4.22924e-25 0 4.58167e-25 0 4.93395e-25 0 5.28665e-25 0 5.6391e-25 0 5.99168e-25 0 6.34415e-25 0 6.69634e-25 0 7.0488e-25
0.303095 1.69847e-16 1.69847e-16 8.8799e-23 5.22817e-07 1.4452e-05 0 4.15346e-26 0 1.00756e-25 0 2.52567e-25 0 4.31383e-25 0 5.75203e-25 0 7.19013e-25 0 8.62833e-25 0 1.00667e-24 0 1.15047e-24 0 1.29433e-24 0 1.43813e-24 0 1.58193e-24 0 1.72582e-24 0 1.86963e-24 0 2.01339e-24 0 2.15731e-24 0 2.30113e-24 0 2.44501e-24 0 2.58884e-24 0 2.73256e-24 0 2.87639e-24
0.318653 1.60108e-16 1.60108e-16 7.68976e-23 4.80285e-07 1.31666e-05 0 1.64216e-25 0 3.89639e-25 0 9.59447e-25 0 1.61645e-24 0 2.15535e-24 0 2.69423e-24 0 3.23313e-24 0 3.77209e-24 0 4.31093e-24 0 4.84997e-24 0 5.3888e-24 0 5.92764e-24 0 6.4668e-24 0 7.00568e-24 0 7.54438e-24 0 8.08362e-24 0 8.62253e-24 0 9.16163e-24 0 9.70057e-24 0 1.02391e-23 0 1.07781e-23
0.335009 1.49846e-16 1.49845e-16 6.59032e-23 4.39807e-07 1.20268e-05 0 5.97297e-25 0 1.38879e-24 0 3.36337e-24 0 5.59674e-24 0 7.46261e-24 0 9.32839e-24 0 1.11943e-23 0 1.30603e-23 0 1.4926e-23 0 1.67923e-23 0 1.86579e-23 0 2.05236e-23 0 2.23903e-23 0 2.42561e-23 0 2.61213e-23 0 2.79882e-23 0 2.98541e-23 0 3.17206e-23 0 3.35866e-23 0 3.54514e-23 0 3.73174e-23
0.352205 1.39386e-16 1.39386e-16 5.59919e-23 4.01703e-07 1.10161e-05 0 2.0085e-24 0 4.58443e-24 0 1.09321e-23 0 1.79888e-23 0 2.3986e-23 0 2.99829e-23 0 3.59801e-23 0 4.19778e-23 0 4.79743e-23 0 5.39728e-23 0 5.99692e-23 0 6.59659e-23 0 7.19655e-23 0 7.79624e-23 0 8.39577e-23 0 8.9958e-23 0 9.59552e-23 0 1.01954e-22 0 1.07952e-22 0 1.13946e-22 0 1.19943e-22
0.370284 1.29269e-16 1.29269e-16 4.73647e-23 3.66404e-07 1.01036e-05 0 6.28631e-24 0 1.41092e-23 0 3.31644e-23 0 5.40245e-23 0 7.20352e-23 0 9.00452e-23 0 1.08056e-22 0 1.26068e-22 0 1.44077e-22 0 1.62091e-22 0 1.801e-22 0 1.98109e-22 0 2.16127e-22 0 2.34137e-22 0 2.52142e-22 0 2.70161e-22 0 2.88172e-22 0 3.06189e-22 0 3.242e-22 0 3.42202e-22 0 3.60213e-22
0.389291 1.19504e-16 1.19504e-16 3.98869e-23 3.3377e-07 9.28334e-06 0 1.8373e-23 0 4.06121e-23 0 9.41953e-23 0 1.52056e-22 0 2.02748e-22 0 2.53439e-22 0 3.0413e-22 0 3.54826e-22 0 4.05514e-22 0 4.56216e-22 0 5.06902e-22 0 5.57591e-22 0 6.08301e-22 0 6.58991e-22 0 7.0967e-22 0 7.60385e-22 0 8.11078e-22 0 8.61784e-22 0 9.12479e-22 0 9.63149e-22 0 1.01384e-21
0.409273 1.10293e-16 1.10293e-16 3.35248e-23 3.03961e-07 8.53775e-06 0 5.03863e-23 0 1.09849e-22 0 2.51651e-22 0 4.02929e-22 0 5.37256e-22 0 6.71579e-22 0 8.05904e-22 0 9.40241e-22 0 1.07456e-21 0 1.20891e-21 0 1.34322e-21 0 1.47754e-21 0 1.61191e-21 0 1.74623e-21 0 1.88053e-21 0 2.01491e-21 0 2.14924e-21 0 2.2836e-21 0 2.41793e-21 0 2.55221e-21 0 2.68654e-21
0.430281 1.01504e-16 1.01504e-16 2.81134e-23 2.76969e-07 7.86701e-06 0 1.2991e-22 0 2.79722e-22 0 6.33519e-22 0 1.00696e-21 0 1.34265e-21 0 1.67834e-21 0 2.01403e-21 0 2.34975e-21 0 2.68542e-21 0 3.02116e-21 0 3.35683e-21 0 3.6925e-21 0 4.0283e-21 0 4.36398e-21 0 4.6996e-21 0 5.03542e-21 0 5.37112e-21 0 5.7069e-21 0 6.04261e-21 0 6.37818e-21 0 6.71388e-21
0.452368 9.30084e-17 9.30084e-17 2.3485e-23 2.52504e-07 7.27338e-06 0 3.1535e-22 0 6.71483e-22 0 1.5048e-21 0 2.37621e-21 0 3.16837e-21 0 3.96051e-21 0 4.75266e-21 0 5.54488e-21 0 6.33699e-21 0 7.12926e-21 0 7.92136e-21 0 8.71348e-21 0 9.50586e-21 0 1.0298e-20 0 1.109e-20 0 1.18824e-20 0 1.26746e-20 0 1.3467e-20 0 1.42592e-20 0 1.50511e-20 0 1.58432e-20
0.475588 8.49554e-17 8.49554e-17 1.95699e-23 2.30356e-07 6.74315e-06 0 7.23618e-22 0 1.52553e-21 0 3.38557e-21 0 5.31491e-21 0 7.08673e-21 0 8.85853e-21 0 1.06303e-20 0 1.24023e-20 0 1.4174e-20 0 1.59461e-20 0 1.77178e-20 0 1.94895e-20 0 2.12618e-20 0 2.30336e-20 0 2.48051e-20 0 2.65775e-20 0 2.83493e-20 0 3.01216e-20 0 3.18935e-20 0 3.36648e-20 0 3.54366e-20
0.5 7.72247e-17 7.72247e-17 1.62209e-23 2.10048e-07 6.28113e-06 0 1.57115e-21 0 3.28302e-21 0 7.22083e-21 0 1.12767e-20 0 1.5036e-20 0 1.87953e-20 0 2.25545e-20 0 2.6314e-20 0 3.00732e-20 0 3.38329e-20 0 3.75919e-20 0 4.13511e-20 0 4.51113e-20 0 4.88705e-20 0 5.26293e-20 0 5.63897e-20 0 6.0149e-20 0 6.39091e-20 0 6.76685e-20 0 7.14268e-20 0 7.51862e-20
0.525665 7.00232e-17 7.00232e-17 1.33874e-23 1.91185e-07 5.86999e-06 0 3.2437e-21 0 6.72477e-21 0 1.46693e-20 0 2.28027e-20 0 3.04043e-20 0 3.80059e-20 0 4.56074e-20 0 5.32095e-20 0 6.08108e-20 0 6.84133e-20 0 7.60144e-20 0 8.36158e-20 0 9.12191e-20 0 9.88207e-20 0 1.06421e-19 0 1.14025e-19 0 1.21627e-19 0 1.2923e-19 0 1.36832e-19 0 1.44431e-19 0 1.52033e-19
0.552648 6.34414e-17 6.34414e-17 1.10129e-23 1.73591e-07 5.49691e-06 0 6.39363e-21 0 1.31634e-20 0 2.84979e-20 0 4.41157e-20 0 5.88222e-20 0 7.35287e-20 0 8.8235e-20 0 1.02942e-19 0 1.17648e-19 0 1.32356e-19 0 1.47062e-19 0 1.61768e-19 0 1.76478e-19 0 1.91184e-19 0 2.05889e-19 0 2.20599e-19 0 2.35306e-19 0 2.50016e-19 0 2.64723e-19 0 2.79426e-19 0 2.94133e-19
0.581015 5.74882e-17 5.74882e-17 9.0429e-24 1.573e-07 5.15261e-06 0 1.20714e-20 0 2.47017e-20 0 5.3108e-20 0 8.19118e-20 0 1.09218e-19 0 1.36524e-19 0 1.6383e-19 0 1.91138e-19 0 2.18443e-19 0 2.45752e-19 0 2.73057e-19 0 3.00363e-19 0 3.27674e-19 0 3.5498e-19 0 3.82284e-19 0 4.09596e-19 0 4.36903e-19 0 4.64214e-19 0 4.91521e-19 0 5.18822e-19 0 5.46129e-19
0.610839 5.21203e-17 5.21203e-17 7.42183e-24 1.42398e-07 4.83172e-06 0 2.18858e-20 0 4.45465e-20 0 9.51674e-20 0 1.46306e-19 0 1.95078e-19 0 2.43851e-19 0 2.92623e-19 0 3.41398e-19 0 3.90169e-19 0 4.38946e-19 0 4.87716e-19 0 5.36488e-19 0 5.85269e-19 0 6.34041e-19 0 6.82809e-19 0 7.31593e-19 0 7.80366e-19 0 8.29147e-19 0 8.77921e-19 0 9.26684e-19 0 9.75458e-19
0.642193 4.7295e-17 4.7295e-17 6.08909e-24 1.28747e-07 4.53061e-06 0 3.8195e-20 0 7.73824e-20 0 1.6436e-19 0 2.51953e-19 0 3.35944e-19 0 4.19935e-19 0 5.03924e-19 0 5.87919e-19 0 6.71908e-19 0 7.55906e-19 0 8.39893e-19 0 9.23883e-19 0 1.00789e-18 0 1.09188e-18 0 1.17586e-18 0 1.25987e-18 0 1.34386e-18 0 1.42787e-18 0 1.51186e-18 0 1.59584e-18 0 1.67983e-18
0.675157 4.29649e-17 4.29649e-17 4.9973e-24 1.16311e-07 4.24643e-06 0 6.43061e-20 0 1.29761e-19 0 2.74157e-19 0 4.19195e-19 0 5.58937e-19 0 6.98679e-19 0 8.38419e-19 0 9.78167e-19 0 1.11791e-18 0 1.25766e-18 0 1.3974e-18 0 1.53714e-18 0 1.6769e-18 0 1.81664e-18 0 1.95637e-18 0 2.09614e-18 0 2.23588e-18 0 2.37565e-18 0 2.51539e-18 0 2.65511e-18 0 2.79486e-18
0.709813 3.90196e-17 3.90196e-17 4.10142e-24 1.05112e-07 3.9822e-06 0 1.04492e-19 0 2.10126e-19 0 4.4181e-19 0 6.74026e-19 0 8.98717e-19 0 1.12341e-18 0 1.3481e-18 0 1.5728e-18 0 1.79748e-18 0 2.02219e-18 0 2.24687e-18 0 2.47156e-18 0 2.69629e-18 0 2.92098e-18 0 3.14565e-18 0 3.37038e-18 0 3.59508e-18 0 3.8198e-18 0 4.0445e-18 0 4.26916e-18 0 4.49385e-18
0.746248 3.54235e-17 3.54235e-17 3.36465e-24 9.49835e-08 3.73639e-06 0 1.6415e-19 0 3.29123e-19 0 6.88972e-19 0 1.04901e-18 0 1.39871e-18 0 1.7484e-18 0 2.09809e-18 0 2.4478e-18 0 2.79749e-18 0 3.14721e-18 0 3.49689e-18 0 3.84658e-18 0 4.19632e-18 0 4.54602e-18 0 4.89569e-18 0 5.24544e-18 0 5.59514e-18 0 5.94488e-18 0 6.29459e-18 0 6.64423e-18 0 6.99394e-18
0.784553 3.20849e-17 3.20849e-17 2.75742e-24 8.59412e-08 3.51253e-06 0 2.49238e-19 0 4.98481e-19 0 1.03932e-18 0 1.57969e-18 0 2.10628e-18 0 2.63288e-18 0 3.15947e-18 0 3.68608e-18 0 4.21267e-18 0 4.7393e-18 0 5.26588e-18 0 5.79247e-18 0 6.31913e-18 0 6.84573e-18 0 7.3723e-18 0 7.89898e-18 0 8.42558e-18 0 8.95224e-18 0 9.47885e-18 0 1.00054e-17 0 1.0532e-17
0.824824 2.90163e-17 2.90163e-17 2.253e-24 7.76462e-08 3.30573e-06 0 3.66631e-19 0 7.31737e-19 0 1.5201e-18 0 2.30688e-18 0 3.07589e-18 0 3.84489e-18 0 4.61389e-18 0 5.38292e-18 0 6.15193e-18 0 6.92097e-18 0 7.68996e-18 0 8.45896e-18 0 9.22806e-18 0 9.99706e-18 0 1.0766e-17 0 1.15352e-17 0 1.23042e-17 0 1.30733e-17 0 1.38423e-17 0 1.46112e-17 0 1.53802e-17
0.867162 2.63442e-17 2.63442e-17 1.83708e-24 6.97336e-08 3.09977e-06 0 5.26172e-19 0 1.04833e-18 0 2.17057e-18 0 3.28956e-18 0 4.38615e-18 0 5.48273e-18 0 6.57931e-18 0 7.67593e-18 0 8.7725e-18 0 9.86914e-18 0 1.09657e-17 0 1.20623e-17 0 1.3159e-17 0 1.42556e-17 0 1.53521e-17 0 1.64488e-17 0 1.75454e-17 0 1.86421e-17 0 1.97387e-17 0 2.08352e-17 0 2.19318e-17
0.911674 2.40531e-17 2.40531e-17 1.49904e-24 6.2322e-08 2.89229e-06 0 7.39068e-19 0 1.47039e-18 0 3.03529e-18 0 4.59458e-18 0 6.12619e-18 0 7.65781e-18 0 9.1894e-18 0 1.07211e-17 0 1.22527e-17 0 1.37843e-17 0 1.53159e-17 0 1.68475e-17 0 1.83793e-17 0 1.99109e-17 0 2.14425e-17 0 2.29743e-17 0 2.45059e-17 0 2.60377e-17 0 2.75693e-17 0 2.91008e-17 0 3.06324e-17
0.95847 2.20762e-17 2.20762e-17 1.22744e-24 5.56002e-08 2.6876e-06 0 1.01703e-18 0 2.02107e-18 0 4.16061e-18 0 6.29142e-18 0 8.38866e-18 0 1.04859e-17 0 1.25831e-17 0 1.46804e-17 0 1.67777e-17 0 1.8875e-17 0 2.09722e-17 0 2.30695e-17 0 2.51669e-17 0 2.72642e-17 0 2.93614e-17 0 3.14588e-17 0 3.35561e-17 0 3.56536e-17 0 3.77509e-17 0 3.98479e-17 0 4.19452e-17
1.00767 2.02472e-17 2.02472e-17 1.00669e-24 4.97196e-08 2.4983e-06 0 1.36487e-18 0 2.70981e-18 0 5.56456e-18 0 8.40664e-18 0 1.1209e-17 0 1.40113e-17 0 1.68137e-17 0 1.96161e-17 0 2.24184e-17 0 2.52209e-17 0 2.80232e-17 0 3.08255e-17 0 3.36281e-17 0 3.64305e-17 0 3.92328e-17 0 4.20354e-17 0 4.48378e-17 0 4.76404e-17 0 5.04428e-17 0 5.3245e-17 0 5.60474e-17
1.05939 1.8578e-17 1.8578e-17 8.25507e-25 4.44346e-08 2.32084e-06 0 1.7907e-18 0 3.55272e-18 0 7.27894e-18 0 1.09877e-17 0 1.46504e-17 0 1.83132e-17 0 2.19759e-17 0 2.56387e-17 0 2.93015e-17 0 3.29644e-17 0 3.6627e-17 0 4.02898e-17 0 4.39528e-17 0 4.76156e-17 0 5.12782e-17 0 5.49413e-17 0 5.86041e-17 0 6.22672e-17 0 6.593e-17 0 6.95925e-17 0 7.32553e-17
