# 1.3768e-05 2 57 : grain size, compostion index, size index
# Heating and cooling timescale: 0.155855 2.2378e+06
# Ratio of heating to cooling to determine stochastic cutoff: 100
# Equilibrium emission is recorded even for those grains in the stochastic regime.
# Emission spectrum was computed for: 
# Type: IRSF
# Scales: 0.25 0.5 1 1.5 2 2.5 3 3.5 4 4.5 5 5.5 6 6.5 7 7.5 8 8.5 9 9.5 10
# StochasticallyHeated: 0 0 0 0 0 0 0 0 0 0 0 0 0 0 0 0 0 0 0 0 0
# Temperature: -1
# Wavelength  CExt  CAbs  CSca  Albedo G EqEm1 StEm1 EqEm2 StEm2 EqEm3 StEm3 EqEm4 StEm4 EqEm5 StEm5 EqEm6 StEm6 EqEm7 StEm7 EqEm8 StEm8 EqEm9 StEm9 EqEm10 StEm10 EqEm11 StEm11 EqEm12 StEm12 EqEm13 StEm13 EqEm14 StEm14 EqEm15 StEm15 EqEm16 StEm16 EqEm17 StEm17 EqEm18 StEm18 EqEm19 StEm19 EqEm20 StEm20 EqEm21 StEm21
0.05 1.26063e-09 5.65391e-10 6.95242e-10 0.551503 0.922254 0 0 0 0 0 0 0 0 0 0 0 0 0 0 0 0 0 0 0 0 0 0 0 0 0 0 0 0 0 0 0 0 0 0 0 0 0 0 0 0 0 0
0.0525665 1.26851e-09 5.66163e-10 7.02346e-10 0.553679 0.916029 0 0 0 0 0 0 0 0 0 0 0 0 0 0 0 0 0 0 0 0 0 0 0 0 0 0 0 0 0 0 0 0 0 0 0 0 0 0 0 0 0 0
0.0552647 1.278e-09 5.63719e-10 7.14283e-10 0.558906 0.906943 0 0 0 0 0 0 0 0 0 0 0 0 0 0 0 0 0 0 0 0 0 0 0 0 0 0 0 0 0 0 0 0 0 0 0 0 0 0 0 0 0 0
0.0581015 1.29226e-09 5.59155e-10 7.331e-10 0.567303 0.893358 0 0 0 0 0 0 0 0 0 0 0 0 0 0 0 0 0 0 0 0 0 0 0 0 0 0 0 0 0 0 0 0 0 0 0 0 0 0 0 0 0 0
0.0610839 1.31142e-09 5.58149e-10 7.53275e-10 0.574395 0.878355 0 0 0 0 0 0 0 0 0 0 0 0 0 0 0 0 0 0 0 0 0 0 0 0 0 0 0 0 0 0 0 0 0 0 0 0 0 0 0 0 0 0
0.0642193 1.3322e-09 5.6315e-10 7.69049e-10 0.577278 0.866111 0 0 0 0 0 0 0 0 0 0 0 0 0 0 0 0 0 0 0 0 0 0 0 0 0 0 0 0 0 0 0 0 0 0 0 0 0 0 0 0 0 0
0.0675157 1.35283e-09 5.72781e-10 7.80045e-10 0.576604 0.857299 0 0 0 0 0 0 0 0 0 0 0 0 0 0 0 0 0 0 0 0 0 0 0 0 0 0 0 0 0 0 0 0 0 0 0 0 0 0 0 0 0 0
0.0709813 1.37249e-09 5.8555e-10 7.86943e-10 0.573368 0.851443 0 0 0 0 0 0 0 0 0 0 0 0 0 0 0 0 0 0 0 0 0 0 0 0 0 0 0 0 0 0 0 0 0 0 0 0 0 0 0 0 0 0
0.0746248 1.39036e-09 6.00221e-10 7.90143e-10 0.568299 0.848076 0 0 0 0 0 0 0 0 0 0 0 0 0 0 0 0 0 0 0 0 0 0 0 0 0 0 0 0 0 0 0 0 0 0 0 0 0 0 0 0 0 0
0.0784553 1.40501e-09 6.16246e-10 7.88762e-10 0.561393 0.847535 0 0 0 0 0 0 0 0 0 0 0 0 0 0 0 0 0 0 0 0 0 0 0 0 0 0 0 0 0 0 0 0 0 0 0 0 0 0 0 0 0 0
0.0824824 1.41469e-09 6.34007e-10 7.80688e-10 0.551842 0.85112 0 0 0 0 0 0 0 0 0 0 0 0 0 0 0 0 0 0 0 0 0 0 0 0 0 0 0 0 0 0 0 0 0 0 0 0 0 0 0 0 0 0
0.0867162 1.42017e-09 6.4382e-10 7.76352e-10 0.546661 0.852322 0 0 0 0 0 0 0 0 0 0 0 0 0 0 0 0 0 0 0 0 0 0 0 0 0 0 0 0 0 0 0 0 0 0 0 0 0 0 0 0 0 0
0.0911674 1.43397e-09 6.48881e-10 7.85092e-10 0.547494 0.845036 0 0 0 0 0 0 0 0 0 0 0 0 0 0 0 0 0 0 0 0 0 0 0 0 0 0 0 0 0 0 0 0 0 0 0 0 0 0 0 0 0 0
0.095847 1.44754e-09 6.58405e-10 7.8913e-10 0.545154 0.84035 0 0 0 0 0 0 0 0 0 0 0 0 0 0 0 0 0 0 0 0 0 0 0 0 0 0 0 0 0 0 0 0 0 0 0 0 0 0 0 0 0 0
0.100767 1.45749e-09 6.68345e-10 7.89144e-10 0.541441 0.837924 0 0 0 0 0 0 0 0 0 0 0 0 0 0 0 0 0 0 0 0 0 0 0 0 0 0 0 0 0 0 0 0 0 0 0 0 0 0 0 0 0 0
0.105939 1.46417e-09 6.80789e-10 7.83384e-10 0.535035 0.839195 0 0 0 0 0 0 0 0 0 0 0 0 0 0 0 0 0 0 0 0 0 0 0 0 0 0 0 0 0 0 0 0 0 0 0 0 0 0 0 0 0 0
0.111377 1.47008e-09 6.93301e-10 7.76779e-10 0.528393 0.841484 0 0 0 0 0 0 0 0 0 0 0 0 0 0 0 0 0 0 0 0 0 0 0 0 0 0 0 0 0 0 0 0 0 0 0 0 0 0 0 0 0 0
0.117094 1.47739e-09 7.04515e-10 7.72871e-10 0.523134 0.842014 0 0 0 0 0 0 0 0 0 0 0 0 0 0 0 0 0 0 0 0 0 0 0 0 0 0 0 0 0 0 0 0 0 0 0 0 0 0 0 0 0 0
0.123105 1.48556e-09 7.14993e-10 7.70569e-10 0.518705 0.84132 0 0 0 0 0 0 0 0 0 0 0 0 0 0 0 0 0 0 0 0 0 0 0 0 0 0 0 0 0 0 0 0 0 0 0 0 0 0 0 0 0 0
0.129424 1.49453e-09 7.24844e-10 7.69689e-10 0.515003 0.839566 0 0 0 0 0 0 0 0 0 0 0 0 0 0 0 0 0 0 0 0 0 0 0 0 0 0 0 0 0 0 0 0 0 0 0 0 0 0 0 0 0 0
0.136067 1.50431e-09 7.33999e-10 7.7031e-10 0.512069 0.836525 0 0 0 0 0 0 0 0 0 0 0 0 0 0 0 0 0 0 0 0 0 0 0 0 0 0 0 0 0 0 0 0 0 0 0 0 0 0 0 0 0 0
0.143051 1.51448e-09 7.41177e-10 7.73298e-10 0.510605 0.831194 0 0 0 0 0 0 0 0 0 0 0 0 0 0 0 0 0 0 0 0 0 0 0 0 0 0 0 0 0 0 0 0 0 0 0 0 0 0 0 0 0 0
0.150394 1.52518e-09 7.52127e-10 7.73053e-10 0.50686 0.828715 0 0 0 0 0 0 0 0 0 0 0 0 0 0 0 0 0 0 0 0 0 0 0 0 0 0 0 0 0 0 0 0 0 0 0 0 0 0 0 0 0 0
0.158114 1.54689e-09 7.66791e-10 7.80101e-10 0.504302 0.831645 0 0 0 0 0 0 0 0 0 0 0 0 0 0 0 0 0 0 0 0 0 0 0 0 0 0 0 0 0 0 0 0 0 0 0 0 0 0 0 0 0 0
0.16623 1.60647e-09 7.70008e-10 8.36463e-10 0.520683 0.842136 0 0 0 0 0 0 0 0 0 0 0 0 0 0 0 0 0 0 0 0 0 0 0 0 0 0 0 0 0 0 0 0 0 0 0 0 0 0 0 0 0 0
0.174762 1.64203e-09 7.65188e-10 8.76842e-10 0.533999 0.832137 0 0 0 0 0 0 0 0 0 0 0 0 0 0 0 0 0 0 0 0 0 0 0 0 0 0 0 0 0 0 0 0 0 0 0 0 0 0 0 0 0 0
0.183733 1.48926e-09 6.89399e-10 7.99858e-10 0.537085 0.768403 0 0 0 0 0 0 0 0 0 0 0 0 0 0 0 0 0 0 0 0 0 0 0 0 0 0 0 0 0 0 0 0 0 0 0 0 0 0 0 0 0 0
0.193164 1.34977e-09 6.22999e-10 7.26768e-10 0.53844 0.570576 0 0 0 0 0 0 0 0 0 0 0 0 0 0 0 0 0 0 0 0 0 0 0 0 0 0 0 0 0 0 0 0 0 0 0 0 0 0 0 0 0 0
0.203079 1.28066e-09 5.1057e-10 7.70088e-10 0.601323 0.425683 0 0 0 0 0 0 0 0 0 0 0 0 0 0 0 0 0 0 0 0 0 0 0 0 0 0 0 0 0 0 0 0 0 0 0 0 0 0 0 0 0 0
0.213503 1.30593e-09 3.99744e-10 9.06185e-10 0.693901 0.39808 0 0 0 0 0 0 0 0 0 0 0 0 0 0 0 0 0 0 0 0 0 0 0 0 0 0 0 0 0 0 0 0 0 0 0 0 0 0 0 0 0 0
0.224463 1.70193e-09 3.29757e-10 1.37218e-09 0.806246 0.504372 0 0 0 0 0 0 0 0 0 0 0 0 0 0 0 0 0 0 0 0 0 0 0 0 0 0 0 0 0 0 0 0 0 0 0 0 0 0 0 0 0 0
0.235984 2.07321e-09 3.8312e-10 1.69009e-09 0.815204 0.51837 0 0 0 0 0 0 0 0 0 0 0 0 0 0 0 0 0 0 0 0 0 0 0 0 0 0 0 0 0 0 0 0 0 0 0 0 0 0 0 0 0 0
0.248097 2.00424e-09 3.01553e-10 1.70269e-09 0.849543 0.571456 0 0 0 0 0 0 0 0 0 0 0 0 0 0 0 0 0 0 0 0 0 0 0 0 0 0 0 0 0 0 0 0 0 0 0 0 0 0 0 0 0 0
0.260832 2.30474e-09 2.80382e-10 2.02436e-09 0.878346 0.651338 0 0 0 0 0 0 0 0 0 0 0 0 0 0 0 0 0 0 0 0 0 0 0 0 0 0 0 0 0 0 0 0 0 0 0 0 0 0 0 0 0 0
0.274221 2.64004e-09 3.09865e-10 2.33018e-09 0.882629 0.666161 0 0 0 0 0 0 0 0 0 0 0 0 0 0 0 0 0 0 0 0 0 0 0 0 0 0 0 0 0 0 0 0 0 0 0 0 0 0 0 0 0 0
0.288297 2.60388e-09 3.0692e-10 2.29696e-09 0.88213 0.638369 0 0 0 0 0 0 0 0 0 0 0 0 0 0 0 0 0 0 0 0 0 0 0 0 0 0 0 0 0 0 0 0 0 0 0 0 0 0 0 0 0 0
0.303095 2.38335e-09 2.45995e-10 2.13735e-09 0.896786 0.629415 0 0 0 0 0 0 0 0 0 0 0 0 0 0 0 0 0 0 0 0 0 0 0 0 0 0 0 0 0 0 0 0 0 0 0 0 0 0 0 0 0 0
0.318653 2.40235e-09 2.22651e-10 2.1797e-09 0.907319 0.653921 0 0 0 0 0 0 0 0 0 0 0 0 0 0 0 0 0 0 0 0 0 0 0 0 0 0 0 0 0 0 0 0 0 0 0 0 0 0 0 0 0 0
0.335009 2.52216e-09 2.30858e-10 2.2913e-09 0.908468 0.67945 0 0 0 0 0 0 0 0 0 0 0 0 0 0 0 0 0 0 0 0 0 0 0 0 0 0 0 0 0 0 0 0 0 0 0 0 0 0 0 0 0 0
0.352205 2.54627e-09 2.44796e-10 2.30148e-09 0.903861 0.68792 0 0 0 0 0 0 0 0 0 0 0 0 0 0 0 0 0 0 0 0 0 0 0 0 0 0 0 0 0 0 0 0 0 0 0 0 0 0 0 0 0 0
0.370284 2.34167e-09 2.33501e-10 2.10817e-09 0.900284 0.67065 0 0 0 0 0 0 0 0 0 0 0 0 0 0 0 0 0 0 0 0 0 0 0 0 0 0 0 0 0 0 0 0 0 0 0 0 0 0 0 0 0 0
0.389291 2.04989e-09 1.98588e-10 1.85131e-09 0.903123 0.632637 0 0 0 0 0 0 0 0 0 0 0 0 0 0 0 0 0 0 0 0 0 0 0 0 0 0 0 0 0 0 0 0 0 0 0 0 0 0 0 0 0 0
0.409273 1.85547e-09 1.69184e-10 1.68629e-09 0.908819 0.59495 0 0 0 0 0 0 0 0 0 0 0 0 0 0 0 0 0 0 0 0 0 0 0 0 0 0 0 0 0 0 0 0 0 0 0 0 0 0 0 0 0 0
0.430281 1.75997e-09 1.54801e-10 1.60517e-09 0.912044 0.571357 0 0 0 0 0 0 0 0 0 0 0 0 0 0 0 0 0 0 0 0 0 0 0 0 0 0 0 0 0 0 0 0 0 0 0 0 0 0 0 0 0 0
0.452368 1.71164e-09 1.52258e-10 1.55939e-09 0.911046 0.564366 0 0 0 0 0 0 0 0 0 0 0 0 0 0 0 0 0 0 0 0 0 0 0 0 0 0 0 0 0 0 0 0 0 0 0 0 0 0 0 0 0 0
0.475588 1.65397e-09 1.5546e-10 1.49851e-09 0.906008 0.571599 0 0 0 0 0 0 0 0 0 0 0 0 0 0 0 0 0 0 0 0 0 0 0 0 0 0 0 0 0 0 0 0 0 0 0 0 0 0 0 0 0 0
0.5 1.54031e-09 1.56999e-10 1.38331e-09 0.898073 0.585817 0 0 0 0 0 0 0 0 0 0 0 0 0 0 0 0 0 0 0 0 0 0 0 0 0 0 0 0 0 0 0 0 0 0 0 0 0 0 0 0 0 0
0.525665 1.36353e-09 1.51158e-10 1.21237e-09 0.889142 0.595111 0 0 0 0 0 0 0 0 0 0 0 0 0 0 0 0 0 0 0 0 0 0 0 0 0 0 0 0 0 0 0 0 0 0 0 0 0 0 0 0 0 0
0.552648 1.15957e-09 1.37874e-10 1.02169e-09 0.881098 0.5878 0 0 0 0 0 0 0 0 0 0 0 0 0 0 0 0 0 0 0 0 0 0 0 0 0 0 0 0 0 0 0 0 0 0 0 0 0 0 0 0 0 0
0.581015 9.74538e-10 1.21625e-10 8.52913e-10 0.875198 0.559058 0 0 0 0 0 0 0 0 0 0 0 0 0 0 0 0 0 0 0 0 0 0 0 0 0 0 0 0 0 0 0 0 0 0 0 0 0 0 0 0 0 0
0.610839 8.2311e-10 1.06238e-10 7.16872e-10 0.87093 0.513744 0 0 0 0 0 0 0 0 0 0 0 0 0 0 0 0 0 0 0 0 0 0 0 0 0 0 0 0 0 0 0 0 0 0 0 0 0 0 0 0 0 0
0.642193 7.02303e-10 9.33047e-11 6.08999e-10 0.867145 0.460961 0 0 0 0 0 0 0 0 0 0 0 0 0 0 0 0 0 0 0 0 0 0 0 0 0 0 0 0 0 0 0 0 0 0 0 0 0 0 0 0 0 0
0.675157 6.04157e-10 8.29239e-11 5.21233e-10 0.862745 0.408307 0 0 0 0 0 0 0 0 0 0 0 0 0 0 0 0 0 0 0 0 0 0 0 0 0 0 0 0 0 0 0 0 0 0 0 0 0 0 0 0 0 0
0.709813 5.21613e-10 7.4608e-11 4.47004e-10 0.856967 0.36008 0 0 0 0 0 0 0 0 0 0 0 0 0 0 0 0 0 0 0 0 0 0 0 0 0 0 0 0 0 0 0 0 0 0 0 0 0 0 0 0 0 0
0.746248 4.49781e-10 6.77496e-11 3.82032e-10 0.849372 0.317585 0 0 0 0 0 0 0 0 0 0 0 0 0 0 0 0 0 0 0 0 0 0 0 0 0 0 0 0 0 0 0 0 0 0 0 0 0 0 0 0 0 0
0.784553 3.86448e-10 6.1924e-11 3.24524e-10 0.839761 0.280771 0 0 0 0 0 0 0 0 0 0 0 0 0 0 0 0 0 0 0 0 0 0 0 0 0 0 0 0 0 0 0 0 0 0 0 0 0 0 0 0 0 0
0.824824 3.30786e-10 5.6838e-11 2.73948e-10 0.828173 0.249103 0 0 0 0 0 0 0 0 0 0 0 0 0 0 0 0 0 0 0 0 0 0 0 0 0 0 0 0 0 0 0 0 0 0 0 0 0 0 0 0 0 0
0.867162 2.82201e-10 5.23228e-11 2.29879e-10 0.81459 0.221859 0 0 0 0 0 0 0 0 0 0 0 0 0 0 0 0 0 0 0 0 0 0 0 0 0 0 0 0 0 0 0 0 0 0 0 0 0 0 0 0 0 0
0.911674 2.39972e-10 4.8257e-11 1.91715e-10 0.798906 0.198211 0 0 0 0 0 0 0 0 0 0 0 0 0 0 0 0 0 0 0 0 0 0 0 0 0 0 0 0 0 0 0 0 0 0 0 0 0 0 0 0 0 0
0.95847 2.03621e-10 4.45613e-11 1.5906e-10 0.781156 0.17757 0 0 0 0 0 0 0 0 0 0 0 0 0 0 0 0 0 0 0 0 0 0 0 0 0 0 0 0 0 0 0 0 0 0 0 0 0 0 0 0 0 0
1.00767 1.72643e-10 4.12114e-11 1.31432e-10 0.761291 0.159471 0 0 0 0 0 0 0 0 0 0 0 0 0 0 0 0 0 0 0 0 0 0 0 0 0 0 0 0 0 0 0 0 0 0 0 0 0 0 0 0 0 0
1.05939 1.4642e-10 3.81776e-11 1.08243e-10 0.73926 0.143499 0 0 0 0 0 0 0 0 0 0 0 0 0 0 0 0 0 0 0 0 0 0 0 0 0 0 0 0 0 0 0 0 0 0 0 0 0 0 0 0 0 0
1.11377 1.24305e-10 3.5416e-11 8.88887e-11 0.715087 0.129314 0 0 0 0 0 0 0 0 0 0 0 0 0 0 0 0 0 0 0 0 0 0 0 0 0 0 0 0 0 0 0 0 0 0 0 0 0 0 0 0 0 0
1.17094 1.05713e-10 3.28937e-11 7.28192e-11 0.688839 0.116664 0 0 0 0 0 0 0 0 0 0 0 0 0 0 0 0 0 0 0 0 0 0 0 0 0 0 0 0 0 0 0 0 0 0 0 0 0 0 0 0 0 0
1.23105 9.0194e-11 3.05996e-11 5.95944e-11 0.660735 0.10537 0 0 0 0 0 0 0 0 0 0 0 0 0 0 0 0 0 0 0 0 0 0 0 0 0 0 0 0 0 0 0 0 0 0 0 0 0 0 0 0 0 0
1.29424 7.72784e-11 2.85791e-11 4.86993e-11 0.63018 0.0952324 0 0 0 0 0 0 0 0 0 0 0 0 0 0 0 0 0 0 0 0 0 0 0 0 0 0 0 0 0 0 0 0 0 0 0 0 0 0 0 0 0 0
1.36067 6.65414e-11 2.67562e-11 3.97851e-11 0.597901 0.0861246 0 0 0 0 0 0 0 0 0 0 0 0 0 0 0 0 0 0 0 0 0 0 0 0 0 0 0 0 0 0 0 0 0 0 0 0 0 0 0 0 0 0
1.43051 5.7549e-11 2.50895e-11 3.24595e-11 0.564032 0.0779086 0 0 0 0 0 0 0 0 0 0 0 0 0 0 0 0 0 0 0 0 0 0 0 0 0 0 0 0 0 0 0 0 0 0 0 0 0 0 0 0 0 0
1.50394 5.00633e-11 2.35689e-11 2.64944e-11 0.529218 0.0705126 0 0 0 0 0 0 0 0 0 0 0 0 0 0 0 0 0 0 0 0 0 0 0 0 0 0 0 0 0 0 0 0 0 0 0 0 0 0 0 0 0 0
1.58114 4.37868e-11 2.21713e-11 2.16155e-11 0.493654 0.063828 0 0 0 0 0 0 0 0 0 0 0 0 0 0 0 0 0 0 0 0 0 0 0 0 0 0 0 0 0 0 0 0 0 0 0 0 0 0 0 0 0 0
1.6623 3.85009e-11 2.08825e-11 1.76184e-11 0.45761 0.0577746 0 0 0 0 0 0 0 0 0 0 0 0 0 0 0 0 0 0 0 0 0 0 0 0 0 0 0 0 0 0 0 0 0 0 0 0 0 0 0 0 0 0
1.74763 3.40734e-11 1.97091e-11 1.43643e-11 0.421569 0.0523046 0 0 0 0 0 0 0 0 0 0 0 0 0 0 0 0 0 0 0 0 0 0 0 0 0 0 0 0 0 0 0 0 0 0 0 0 0 0 0 0 0 0
1.83733 3.03713e-11 1.86621e-11 1.17092e-11 0.385536 0.0473538 0 0 0 0 0 0 0 0 0 0 0 0 0 0 0 0 0 0 0 0 0 0 0 0 0 0 0 0 0 0 0 0 0 0 0 0 0 0 0 0 0 0
1.93164 2.72523e-11 1.77105e-11 9.54184e-12 0.35013 0.042868 0 0 0 0 0 0 0 0 0 0 0 0 0 0 0 0 0 0 0 0 0 0 0 0 0 0 0 0 0 0 0 0 0 0 0 0 0 0 0 0 0 0
2.03079 2.46136e-11 1.6838e-11 7.77559e-12 0.315906 0.0388054 0 0 0 0 0 0 0 0 0 0 0 0 0 0 0 0 0 0 0 0 0 0 0 0 0 0 0 0 0 0 0 0 0 0 0 0 0 0 0 0 0 0
2.13503 2.23721e-11 1.60346e-11 6.33746e-12 0.283275 0.0351293 0 0 0 0 0 0 0 0 0 0 0 0 0 0 0 0 0 0 0 0 0 0 0 0 0 0 0 0 0 0 0 0 0 0 0 0 0 0 0 0 0 0
2.24463 2.04656e-11 1.53029e-11 5.16277e-12 0.252265 0.0317958 0 0 0 0 0 0 0 0 0 0 0 0 0 0 0 0 0 0 0 0 0 0 0 0 0 0 0 0 0 0 0 0 0 0 0 0 0 0 0 0 0 0
2.35984 1.88267e-11 1.46223e-11 4.20437e-12 0.22332 0.0287738 0 0 0 0 0 0 0 0 0 0 0 0 0 0 0 0 0 0 0 0 0 0 0 0 0 0 0 0 0 0 0 0 0 0 0 0 0 0 0 0 0 0
2.48097 1.74144e-11 1.39933e-11 3.42107e-12 0.19645 0.0260326 0 0 0 0 0 0 0 0 0 0 0 0 0 0 0 0 0 0 0 0 0 0 0 0 0 0 0 0 0 0 0 0 0 0 0 0 0 0 0 0 0 0
2.60832 1.62071e-11 1.34221e-11 2.78505e-12 0.171841 0.023554 0 0 0 0 0 0 0 0 0 0 0 0 0 0 0 0 0 0 0 0 0 0 0 0 0 0 0 0 0 0 0 0 0 0 0 0 0 0 0 0 0 0
2.74221 1.51576e-11 1.28912e-11 2.26649e-12 0.149528 0.0213076 0 0 0 0 0 0 0 0 0 0 0 0 0 0 0 0 0 0 0 0 0 0 0 0 0 0 0 0 0 0 0 0 0 0 0 0 0 0 0 0 0 0
2.88297 1.42471e-11 1.24055e-11 1.84154e-12 0.129257 0.0192671 0 0 0 0 0 0 0 0 0 0 0 0 0 0 0 0 0 0 0 0 0 0 0 0 0 0 0 0 0 0 0 0 0 0 0 0 0 0 0 0 0 0
3.03095 1.34512e-11 1.19549e-11 1.49626e-12 0.111237 0.0174211 0 0 0 0 0 0 0 0 0 0 0 0 0 0 0 0 0 0 0 0 0 0 0 0 0 0 0 0 0 0 0 0 0 0 0 0 0 0 0 0 0 0
3.18653 1.27782e-11 1.1563e-11 1.21528e-12 0.0951052 0.0157498 0 0 0 0 0 0 0 0 0 0 0 0 0 0 0 0 0 0 0 0 0 0 0 0 0 0 0 0 0 0 0 0 0 0 0 0 0 0 0 0 0 0
3.35009 1.21839e-11 1.11981e-11 9.8587e-13 0.0809155 0.0142339 0 0 0 0 0 0 0 0 0 0 0 0 0 0 0 0 0 0 0 0 0 0 0 0 0 0 0 0 0 0 0 0 0 0 0 0 0 0 0 0 0 0
3.52205 1.16138e-11 1.08153e-11 7.98433e-13 0.0687488 0.0128587 0 0 0 0 0 0 0 0 0 0 0 0 0 0 0 0 0 0 0 0 0 0 0 0 0 0 0 0 0 0 0 0 0 0 0 0 0 0 0 0 0 0
3.70284 1.10916e-11 1.04453e-11 6.46317e-13 0.058271 0.0116151 0 0 0 0 0 0 0 0 0 0 0 0 0 0 0 0 0 0 0 0 0 0 0 0 0 0 0 0 0 0 0 0 0 0 0 0 0 0 0 0 0 0
3.89291 1.06149e-11 1.00927e-11 5.22185e-13 0.0491936 0.0104872 0 0 0 0 0 0 0 0 0 0 0 0 0 0 0 0 0 0 0 0 0 0 0 0 0 0 0 0 0 0 0 0 0 0 0 0 0 0 0 0 0 0
4.09273 1.01831e-11 9.76228e-12 4.20781e-13 0.0413217 0.00946337 0 0 0 0 0 0 0 0 0 0 0 0 0 0 0 0 0 0 0 0 0 0 0 0 0 0 0 0 0 0 0 0 0 0 0 0 0 0 0 0 0 0
4.30281 9.76124e-12 9.4231e-12 3.38137e-13 0.0346408 0.00853476 0 0 0 0 0 0 0 0 0 0 0 0 0 0 0 0 0 0 0 0 0 0 0 0 0 0 0 0 0 0 0 0 0 0 0 0 0 0 0 0 0 0
4.52368 9.38395e-12 9.11294e-12 2.71018e-13 0.028881 0.00769373 0 0 0 0 0 0 0 0 0 0 0 0 0 0 0 0 0 0 0 0 0 0 0 0 0 0 0 0 0 0 0 0 0 0 0 0 0 0 0 0 0 0
4.75588 9.06039e-12 8.84405e-12 2.16336e-13 0.0238771 0.00693016 0 0 0 0 0 0 0 0 0 0 0 0 0 0 0 0 0 0 0 0 0 0 0 0 0 0 0 0 0 0 0 0 0 0 0 0 0 0 0 0 0 0
5 8.81079e-12 8.63917e-12 1.71623e-13 0.0194787 0.0062354 0 0 0 0 0 0 0 0 0 0 0 0 0 0 0 0 0 0 0 0 0 0 0 0 0 0 0 0 0 0 0 0 0 0 0 0 0 0 0 0 0 0
5.25665 8.65565e-12 8.52036e-12 1.35285e-13 0.0156297 0.00560452 0 0 0 0 0 0 0 0 0 0 0 0 0 0 0 0 0 0 0 0 0 0 0 0 0 0 0 0 0 0 0 0 0 0 0 0 0 0 0 0 0 0
5.52648 8.58125e-12 8.47531e-12 1.05936e-13 0.012345 0.00503251 0 0 0 0 0 0 0 0 0 0 0 0 0 0 0 0 0 0 0 0 0 0 0 0 0 0 0 0 0 0 0 0 0 0 0 0 0 0 0 0 0 0
5.81015 8.62728e-12 8.54531e-12 8.19651e-14 0.0095007 0.00451074 0 0 0 0 0 0 0 0 0 0 0 0 0 0 0 0 0 0 0 0 0 0 0 0 0 0 0 0 0 0 0 0 0 0 0 0 0 0 0 0 0 0
6.10839 8.75611e-12 8.6935e-12 6.26101e-14 0.00715045 0.00403629 0 0 0 0 0 0 0 0 0 0 0 0 0 0 0 0 0 0 0 0 0 0 0 0 0 0 0 0 0 0 0 0 0 0 0 0 0 0 0 0 0 0
6.42193 8.85499e-12 8.80803e-12 4.69599e-14 0.00530322 0.00360443 0 0 0 0 0 0 0 0 0 0 0 0 0 0 0 0 0 0 0 0 0 0 0 0 0 0 0 0 0 0 0 0 0 0 1.4013e-45 0 2.8026e-45 0 7.00649e-45 0 1.68156e-44 0
6.75157 8.85084e-12 8.81692e-12 3.39164e-14 0.003832 0.0032055 0 0 0 0 0 0 0 0 0 0 0 0 0 0 0 0 0 0 0 0 0 0 0 0 0 0 1.4013e-45 0 5.60519e-45 0 1.82169e-44 0 5.1848e-44 0 1.4013e-43 0 3.46121e-43 0 8.18358e-43 0 1.85812e-42 0
7.09813 8.96623e-12 8.94353e-12 2.26978e-14 0.00253147 0.00282994 0 0 0 0 0 0 0 0 0 0 0 0 0 0 0 0 0 0 0 0 2.8026e-45 0 1.26117e-44 0 5.46506e-44 0 1.96182e-43 0 6.33387e-43 0 1.89315e-42 0 5.24646e-42 0 1.35478e-41 0 3.19188e-41 0 7.22958e-41 0 1.5769e-40 0
7.46248 1.10121e-11 1.09994e-11 1.2777e-14 0.00116027 0.00246396 0 0 0 0 0 0 0 0 0 0 0 0 0 0 1.4013e-45 0 9.80909e-45 0 6.86636e-44 0 3.68541e-43 0 1.67455e-42 0 6.54967e-42 0 2.22498e-41 0 6.7949e-41 0 1.92424e-40 0 5.07444e-40 0 1.2509e-39 0 2.82636e-39 0 6.15129e-39 0 1.29158e-38 0
7.84553 2.13399e-11 2.13335e-11 6.37821e-15 0.000298887 0.00211545 0 0 0 0 0 0 0 0 0 0 1.4013e-45 0 1.96182e-44 0 2.45227e-43 0 2.01787e-42 0 1.28919e-41 0 6.37423e-41 0 2.69499e-40 0 9.86153e-40 0 3.15572e-39 0 9.12583e-39 0 2.45627e-38 0 6.17797e-38 0 1.4573e-37 0 3.16425e-37 0 6.63008e-37 0 1.3426e-36 0
8.24824 4.43248e-11 4.4317e-11 7.78817e-15 0.000175707 0.00181866 0 0 0 0 0 0 0 0 5.60519e-45 0 2.29813e-43 0 4.316e-42 0 4.7312e-41 0 3.51582e-40 0 2.05206e-39 0 9.38472e-39 0 3.69815e-38 0 1.27018e-37 0 3.8402e-37 0 1.05442e-36 0 2.70409e-36 0 6.5018e-36 0 1.47075e-35 0 3.07483e-35 0 6.2142e-35 0 1.21577e-34 0
8.67162 6.7628e-11 6.76139e-11 1.40102e-14 0.000207166 0.00158351 0 0 0 0 0 0 9.80909e-45 0 1.02715e-42 0 3.34826e-41 0 5.44874e-40 0 5.31423e-39 0 3.58071e-38 0 1.91746e-37 0 8.14182e-37 0 3.00059e-36 0 9.70337e-36 0 2.77942e-35 0 7.26431e-35 0 1.77924e-34 0 4.09868e-34 0 8.90926e-34 0 1.79674e-33 0 3.50857e-33 0 6.64303e-33 0
9.11674 9.974e-11 9.97127e-11 2.73405e-14 0.000274118 0.0013495 0 0 0 0 1.4013e-45 0 1.53582e-42 0 1.35577e-40 0 3.72835e-39 0 5.29475e-38 0 4.62057e-37 0 2.83644e-36 0 1.39942e-35 0 5.53711e-35 0 1.91474e-34 0 5.84709e-34 0 1.59095e-33 0 3.96758e-33 0 9.30189e-33 0 2.05725e-32 0 4.30547e-32 0 8.39057e-32 0 1.58579e-31 0 2.91035e-31 0
9.5847 1.12477e-10 1.12438e-10 3.89833e-14 0.000346588 0.00120771 0 0 0 0 2.62043e-43 0 1.52994e-40 0 1.08546e-38 0 2.53904e-37 0 3.16766e-36 0 2.48687e-35 0 1.39718e-34 0 6.37653e-34 0 2.35914e-33 0 7.67846e-33 0 2.2204e-32 0 5.75339e-32 0 1.3722e-31 0 3.08599e-31 0 6.56568e-31 0 1.32542e-30 0 2.50021e-30 0 4.58072e-30 0 8.16129e-30 0
10.0767 1.00929e-10 1.00891e-10 3.75415e-14 0.000371961 0.00114625 0 0 0 0 2.25035e-41 0 9.62832e-39 0 5.54781e-37 0 1.11259e-35 0 1.22712e-34 0 8.71181e-34 0 4.49894e-33 0 1.90656e-32 0 6.61729e-32 0 2.03318e-31 0 5.58237e-31 0 1.38077e-30 0 3.15634e-30 0 6.82304e-30 0 1.39912e-29 0 2.72919e-29 0 4.99114e-29 0 8.87805e-29 0 1.53779e-28 0
10.5939 8.47617e-11 8.47276e-11 3.40715e-14 0.000401968 0.00112582 0 0 2.94273e-44 0 1.43024e-39 0 4.55227e-37 0 2.152e-35 0 3.72799e-34 0 3.65701e-33 0 2.35932e-32 0 1.12454e-31 0 4.44118e-31 0 1.45058e-30 0 4.21926e-30 0 1.10271e-29 0 2.60954e-29 0 5.72921e-29 0 1.19273e-28 0 2.36152e-28 0 4.45865e-28 0 7.91715e-28 0 1.36923e-27 0 2.3089e-27 0
11.1377 6.66541e-11 6.66272e-11 2.69709e-14 0.00040464 0.00115376 0 0 2.41864e-42 0 6.80711e-38 0 1.63525e-35 0 6.40379e-34 0 9.65151e-33 0 8.46897e-32 0 4.98839e-31 0 2.20312e-30 0 8.13645e-30 0 2.50831e-29 0 6.92527e-29 0 1.727e-28 0 3.91857e-28 0 8.27911e-28 0 1.66297e-27 0 3.18456e-27 0 5.82888e-27 0 1.00641e-26 0 1.6946e-26 0 2.78559e-26 0
11.7094 5.32172e-11 5.3196e-11 2.11928e-14 0.000398233 0.00116077 2.8026e-45 0 1.55831e-40 0 2.65957e-36 0 4.8888e-34 0 1.60061e-32 0 2.1131e-31 0 1.66765e-30 0 9.00809e-30 0 3.70012e-29 0 1.28206e-28 0 3.74096e-28 0 9.82889e-28 0 2.34414e-27 0 5.1103e-27 0 1.04098e-26 0 2.02094e-26 0 3.74923e-26 0 6.66284e-26 0 1.12013e-25 0 1.8387e-25 0 2.95001e-25 0
12.3105 4.15425e-11 4.15262e-11 1.62424e-14 0.000390984 0.00115513 2.46629e-43 0 7.82617e-39 0 8.29997e-35 0 1.1828e-32 0 3.26603e-31 0 3.80139e-30 0 2.7122e-29 0 1.34923e-28 0 5.17261e-28 0 1.68676e-27 0 4.67112e-27 0 1.17074e-26 0 2.67614e-26 0 5.61625e-26 0 1.10498e-25 0 2.07682e-25 0 3.73839e-25 0 6.45967e-25 0 1.05878e-24 0 1.69644e-24 0 2.65966e-24 0
12.9424 3.24026e-11 3.23905e-11 1.20996e-14 0.000373415 0.00110595 1.65816e-41 0 3.16589e-37 0 2.13541e-33 0 2.38867e-31 0 5.60925e-30 0 5.7914e-29 0 3.75403e-28 0 1.7268e-27 0 6.19972e-27 0 1.90833e-26 0 5.02831e-26 0 1.20497e-25 0 2.64543e-25 0 5.35446e-25 0 1.01924e-24 0 1.85754e-24 0 3.24908e-24 0 5.46624e-24 0 8.74594e-24 0 1.36944e-23 0 2.10038e-23 0
