# 1.11922e-06 2 33 : grain size, compostion index, size index
# This grain was stochastically heated: Yes
# Heating and cooling timescale: 508.98 1078.31
# Ratio of heating to cooling to determine stochastic cutoff: 100
# Equilibrium emission is recorded even for those grains in the stochastic regime.
# Emission spectrum was computed for: 
# Type: IRSF
# Scale: 1
# Temperature: -1
# Wavelength  CExt  CAbs  CSca  Albedo G EqEmission StEmission
0.05 4.3388e-12 2.95443e-12 1.38437e-12 0.319068 0.34475 0 0
0.0525665 4.791e-12 3.29735e-12 1.49366e-12 0.311763 0.318161 0 0
0.0552647 5.28845e-12 3.68307e-12 1.60538e-12 0.303564 0.293023 0 0
0.0581015 5.74621e-12 4.05486e-12 1.69135e-12 0.294342 0.268403 0 0
0.0610839 6.20687e-12 4.40986e-12 1.79701e-12 0.289519 0.243578 0 0
0.0642193 6.93425e-12 4.91401e-12 2.02024e-12 0.291342 0.21986 0 0
0.0675157 8.17555e-12 5.76428e-12 2.41128e-12 0.294938 0.196947 0 0
0.0709813 9.49664e-12 6.72258e-12 2.77406e-12 0.29211 0.170788 0 0
0.0746248 1.03664e-11 7.38743e-12 2.97898e-12 0.287369 0.14336 0 0
0.0784553 1.07166e-11 7.7076e-12 3.009e-12 0.280779 0.120066 0 0
0.0824824 1.05781e-11 7.74482e-12 2.83328e-12 0.267844 0.103084 0 0
0.0867162 1.03461e-11 7.73483e-12 2.6113e-12 0.252394 0.0912357 0 0
0.0911674 1.01508e-11 7.6563e-12 2.49445e-12 0.245741 0.0811837 0 0
0.095847 9.48169e-12 7.14952e-12 2.33218e-12 0.245966 0.0764466 0 0
0.100767 7.81504e-12 5.93952e-12 1.87552e-12 0.239989 0.0827751 0 0
0.105939 5.83026e-12 4.38979e-12 1.44047e-12 0.247068 0.090403 0 0
0.111377 3.86564e-12 2.93791e-12 9.27727e-13 0.239993 0.0958756 0 0
0.117094 2.58993e-12 2.02921e-12 5.60716e-13 0.216499 0.096517 0 0
0.123105 1.79016e-12 1.43486e-12 3.55294e-13 0.198471 0.0838553 0 0
0.129424 1.32998e-12 1.10771e-12 2.22265e-13 0.167119 0.0701129 0 0
0.136067 1.12527e-12 9.84306e-13 1.40962e-13 0.125269 0.0591632 0 0
0.143051 1.05804e-12 9.66887e-13 9.11567e-14 0.0861559 0.0505054 0 0
0.150394 1.12494e-12 1.06387e-12 6.10717e-14 0.0542887 0.043235 0 0
0.158114 1.29035e-12 1.24516e-12 4.51851e-14 0.0350178 0.0371724 0 0
0.16623 1.55158e-12 1.51104e-12 4.05351e-14 0.0261251 0.0321184 0 0
0.174762 1.9634e-12 1.91645e-12 4.69594e-14 0.0239173 0.0277746 0 0
0.183733 2.56448e-12 2.49996e-12 6.4526e-14 0.0251614 0.0238028 0 0
0.193164 3.51081e-12 3.41059e-12 1.00223e-13 0.0285469 0.0199276 0 0
0.203079 4.75521e-12 4.59886e-12 1.56354e-13 0.0328806 0.0160217 0 0
0.213503 5.55949e-12 5.35138e-12 2.08109e-13 0.0374331 0.0123183 0 0
0.224463 4.67117e-12 4.48149e-12 1.89682e-13 0.040607 0.0091759 0 0
0.235984 3.26114e-12 3.12893e-12 1.32209e-13 0.0405407 0.00664824 0 0
0.248097 2.29451e-12 2.2097e-12 8.48067e-14 0.0369608 0.00504836 0 0
0.260832 1.79397e-12 1.7366e-12 5.73715e-14 0.0319801 0.00492416 0 0
0.274221 1.47272e-12 1.43186e-12 4.08616e-14 0.0277457 0.00621851 0 0
0.288297 1.26259e-12 1.23244e-12 3.01563e-14 0.0238844 0.0083796 0 0
0.303095 1.10003e-12 1.07695e-12 2.30774e-14 0.0209789 0.00954319 0 0
0.318653 9.61615e-13 9.43745e-13 1.78693e-14 0.0185826 0.0100963 0 0
0.335009 8.53279e-13 8.39269e-13 1.401e-14 0.0164191 0.0100317 0 0
0.352205 7.69602e-13 7.58474e-13 1.11286e-14 0.0144602 0.00958364 0 0
0.370284 7.00507e-13 6.91584e-13 8.92319e-15 0.0127382 0.00900166 0 0
0.389291 6.37159e-13 6.29946e-13 7.21325e-15 0.0113209 0.00842189 0 1.48988e-318
0.409273 5.77785e-13 5.71934e-13 5.8504e-15 0.0101256 0.00785059 0 9.00597e-304
0.430281 5.21845e-13 5.17094e-13 4.75091e-15 0.00910408 0.00730266 0 1.01245e-289
0.452368 4.73969e-13 4.70111e-13 3.85828e-15 0.00814036 0.00672937 0 2.32703e-276
0.475588 4.31046e-13 4.2791e-13 3.13602e-15 0.00727538 0.00617669 0 1.1769e-263
0.5 3.94892e-13 3.92335e-13 2.55617e-15 0.00647308 0.00564338 0 1.41903e-251
0.525665 3.63841e-13 3.61755e-13 2.08607e-15 0.00573347 0.00513711 0 4.37003e-240
0.552647 3.34844e-13 3.33141e-13 1.70329e-15 0.00508681 0.00467504 0 3.65008e-229
0.581015 3.10847e-13 3.09449e-13 1.39774e-15 0.00449656 0.00424415 0 8.90236e-219
0.610839 2.88154e-13 2.87007e-13 1.14746e-15 0.0039821 0.00385347 0 6.66847e-209
0.642193 2.6665e-13 2.65708e-13 9.41917e-16 0.00353241 0.00349874 0 1.62475e-199
0.675157 2.46867e-13 2.46093e-13 7.7415e-16 0.0031359 0.00317794 0 1.36349e-190
0.709813 2.28689e-13 2.28051e-13 6.37399e-16 0.00278719 0.00288994 0 4.15317e-182
0.746248 2.117e-13 2.11175e-13 5.24928e-16 0.00247959 0.0026325 0 4.82033e-174
0.784553 1.95648e-13 1.95216e-13 4.32198e-16 0.00220906 0.00239858 0 2.23263e-166
0.824824 1.80705e-13 1.80349e-13 3.55786e-16 0.00196888 0.00218858 0 4.32185e-159
0.867162 1.66778e-13 1.66485e-13 2.93007e-16 0.00175687 0.00199957 0 3.64959e-152
0.911674 1.53739e-13 1.53498e-13 2.41189e-16 0.00156882 0.00182851 3.6929e-302 1.39987e-145
0.95847 1.41691e-13 1.41493e-13 1.98377e-16 0.00140007 0.0016752 1.82268e-287 2.53849e-139
1.00767 1.30461e-13 1.30298e-13 1.63183e-16 0.00125081 0.00153593 1.69508e-273 2.25675e-133
1.05939 1.20253e-13 1.20119e-13 1.34181e-16 0.00111582 0.00140959 3.22923e-260 1.02114e-127
1.11377 1.10686e-13 1.10575e-13 1.10303e-16 0.000996542 0.00129453 1.35818e-247 2.42631e-122
1.17094 1.022e-13 1.0211e-13 9.06373e-17 0.000886858 0.00118707 1.36385e-235 3.14091e-117
1.23105 9.43928e-14 9.43183e-14 7.45148e-17 0.000789412 0.00108866 3.49744e-224 2.27799e-112
1.29424 8.71676e-14 8.71063e-14 6.12812e-17 0.000703027 0.000998072 2.44691e-213 9.52828e-108
1.36067 8.0497e-14 8.04466e-14 5.03696e-17 0.000625733 0.000915537 4.97732e-203 2.36469e-103
1.43051 7.43489e-14 7.43075e-14 4.13826e-17 0.000556601 0.000840328 3.12723e-193 3.57808e-99
1.50394 6.87718e-14 6.87377e-14 3.40122e-17 0.000494567 0.000770791 6.4357e-184 3.39231e-95
1.58114 6.36864e-14 6.36584e-14 2.79554e-17 0.000438955 0.000705931 4.57967e-175 2.06545e-91
1.6623 5.89895e-14 5.89665e-14 2.29799e-17 0.00038956 0.000645743 1.18586e-166 8.26556e-88
1.74762 5.45748e-14 5.45559e-14 1.88924e-17 0.000346174 0.000591498 1.17228e-158 2.22205e-84
1.83733 5.05031e-14 5.04875e-14 1.55304e-17 0.000307514 0.000541908 4.64313e-151 4.10955e-81
1.93164 4.6734e-14 4.67213e-14 1.2762e-17 0.000273077 0.000496369 7.70352e-144 5.34144e-78
2.03079 4.32827e-14 4.32722e-14 1.04848e-17 0.00024224 0.000454099 5.59084e-137 4.98528e-75
2.13503 4.00731e-14 4.00644e-14 8.62074e-18 0.000215126 0.000415424 1.84607e-130 3.40363e-72
2.24463 3.70807e-14 3.70736e-14 7.08492e-18 0.000191068 0.000380176 2.88088e-124 1.73121e-69
2.35984 3.43396e-14 3.43338e-14 5.82055e-18 0.0001695 0.000347679 2.2071e-118 6.68412e-67
2.48097 3.18125e-14 3.18077e-14 4.78103e-18 0.000150288 0.000317658 8.59115e-113 1.98956e-64
2.60832 2.94565e-14 2.94526e-14 3.93051e-18 0.000133434 0.000289952 1.75463e-107 4.62826e-62
2.74221 2.72412e-14 2.72379e-14 3.2302e-18 0.000118578 0.000264733 1.93904e-102 8.51944e-60
2.88297 2.51943e-14 2.51917e-14 2.65264e-18 0.000105287 0.000241913 1.19623e-97 1.25725e-57
3.03095 2.32798e-14 2.32776e-14 2.17873e-18 9.35889e-05 0.000221187 4.23442e-93 1.50179e-55
3.18653 2.15175e-14 2.15157e-14 1.78981e-18 8.3179e-05 0.000201954 8.84756e-89 1.46777e-53
3.35009 1.98875e-14 1.9886e-14 1.46983e-18 7.39071e-05 0.000184269 1.11929e-84 1.18351e-51
3.52205 1.83745e-14 1.83733e-14 1.20648e-18 6.56607e-05 0.000168175 8.78305e-81 7.93376e-50
3.70284 1.69774e-14 1.69764e-14 9.9076e-19 5.83576e-05 0.000153459 4.37747e-77 4.45624e-48
3.89291 1.56965e-14 1.56957e-14 8.13313e-19 5.1815e-05 0.000139876 1.41764e-73 2.11319e-46
4.09273 1.45151e-14 1.45144e-14 6.67557e-19 4.59906e-05 0.000127051 3.04534e-70 8.51306e-45
4.30281 1.34108e-14 1.34103e-14 5.47812e-19 4.08485e-05 0.000115456 4.42251e-67 2.92894e-43
4.52368 1.23868e-14 1.23863e-14 4.49685e-19 3.63036e-05 0.000104904 4.428e-64 8.6642e-42
4.75588 1.14398e-14 1.14394e-14 3.68992e-19 3.22551e-05 9.52294e-05 3.11323e-61 2.21705e-40
5 1.05799e-14 1.05796e-14 3.02692e-19 2.861e-05 8.5973e-05 1.56612e-58 4.94249e-39
5.25665 9.75886e-15 9.75861e-15 2.48362e-19 2.54499e-05 7.76723e-05 5.70735e-56 9.61225e-38
5.52648 8.99089e-15 8.99069e-15 2.03771e-19 2.26641e-05 7.02464e-05 1.53256e-53 1.64156e-36
5.81015 8.28671e-15 8.28655e-15 1.67079e-19 2.01623e-05 6.34667e-05 3.08291e-51 2.4779e-35
6.10839 7.64488e-15 7.64474e-15 1.36958e-19 1.7915e-05 5.71113e-05 4.71399e-49 3.32314e-34
6.42193 7.03464e-15 7.03453e-15 1.12267e-19 1.59591e-05 5.19091e-05 5.53419e-47 3.96383e-33
6.75157 6.49686e-15 6.49677e-15 9.20398e-20 1.41668e-05 4.63466e-05 5.08349e-45 4.24967e-32
7.09813 5.99392e-15 5.99385e-15 7.54145e-20 1.25818e-05 4.14972e-05 3.6813e-43 4.09352e-31
7.46248 5.53563e-15 5.53556e-15 6.17738e-20 1.11593e-05 3.70317e-05 2.13033e-41 3.56457e-30
7.84553 5.12229e-15 5.12224e-15 5.06192e-20 9.88215e-06 3.27324e-05 9.97037e-40 2.81994e-29
8.24824 4.73391e-15 4.73387e-15 4.14651e-20 8.75916e-06 2.8726e-05 3.80113e-38 2.02806e-28
8.67162 4.37419e-15 4.37416e-15 3.39437e-20 7.75998e-06 2.52546e-05 1.19364e-36 1.33242e-27
9.11674 4.04967e-15 4.04964e-15 2.77865e-20 6.86141e-06 2.21544e-05 3.12315e-35 8.04242e-27
9.5847 3.76136e-15 3.76134e-15 2.27369e-20 6.04487e-06 1.93619e-05 6.87973e-34 4.4812e-26
10.0767 3.50718e-15 3.50716e-15 1.85969e-20 5.30252e-06 1.67534e-05 1.28759e-32 2.31392e-25
10.5939 3.28302e-15 3.28301e-15 1.51993e-20 4.62966e-06 1.42538e-05 2.06443e-31 1.11079e-24
11.1377 3.09592e-15 3.09591e-15 1.2413e-20 4.00946e-06 1.19369e-05 2.86732e-30 4.98894e-24
11.7094 2.89839e-15 2.89838e-15 1.0232e-20 3.53024e-06 9.88449e-06 3.42493e-29 2.07174e-23
12.3105 2.76378e-15 2.76377e-15 8.31962e-21 3.01023e-06 7.72767e-06 3.63516e-28 8.18289e-23
12.9424 2.64179e-15 2.64178e-15 6.79338e-21 2.57151e-06 5.62783e-06 3.39648e-27 3.033e-22
13.6067 2.54425e-15 2.54425e-15 5.54728e-21 2.18032e-06 3.87543e-06 2.82594e-26 1.06296e-21
14.3051 2.47807e-15 2.47806e-15 4.52612e-21 1.82647e-06 2.35641e-06 2.11421e-25 3.54382e-21
15.0394 2.44418e-15 2.44418e-15 3.69077e-21 1.51002e-06 9.89853e-07 1.43243e-24 1.12799e-20
15.8114 2.44959e-15 2.44958e-15 3.00952e-21 1.22858e-06 -2.91726e-07 8.86667e-24 3.44696e-20
16.623 2.49349e-15 2.49349e-15 2.45356e-21 9.83987e-07 -1.58202e-06 5.03845e-23 1.01304e-19
17.4762 2.58105e-15 2.58105e-15 1.99927e-21 7.74594e-07 -2.82227e-06 2.64443e-22 2.87274e-19
18.3733 2.72466e-15 2.72466e-15 1.62821e-21 5.97582e-07 -3.99673e-06 1.29173e-21 7.89951e-19
19.3164 2.92819e-15 2.92819e-15 1.32772e-21 4.53428e-07 -5.19492e-06 5.8882e-21 2.1069e-18
20.3079 3.20111e-15 3.20111e-15 1.08338e-21 3.3844e-07 -6.5537e-06 2.51344e-20 5.45668e-18
21.3503 3.5658e-15 3.5658e-15 8.84952e-22 2.48178e-07 -7.54786e-06 1.01045e-19 1.37725e-17
22.4463 4.04433e-15 4.04433e-15 7.25205e-22 1.79314e-07 -8.34031e-06 3.83778e-19 3.39145e-17
23.5984 4.65418e-15 4.65418e-15 5.97848e-22 1.28454e-07 -9.06502e-06 1.37725e-18 8.13365e-17
24.8097 5.40083e-15 5.40083e-15 4.97115e-22 9.20442e-08 -1.00588e-05 4.65743e-18 1.8914e-16
26.0832 6.2769e-15 6.2769e-15 4.18703e-22 6.67054e-08 -1.07175e-05 1.47896e-17 4.24268e-16
27.4221 7.21913e-15 7.21913e-15 3.57536e-22 4.95261e-08 -1.12405e-05 4.37128e-17 9.08529e-16
28.8297 8.08609e-15 8.08609e-15 3.10449e-22 3.83929e-08 -1.14454e-05 1.18699e-16 1.83059e-15
30.3095 8.77801e-15 8.77801e-15 2.72888e-22 3.10877e-08 -1.15352e-05 2.95537e-16 3.45881e-15
31.8653 8.97981e-15 8.97981e-15 2.39764e-22 2.67003e-08 -1.13452e-05 6.57779e-16 5.96689e-15
33.5009 8.80295e-15 8.80295e-15 2.103e-22 2.38897e-08 -1.11376e-05 1.33428e-15 9.56974e-15
35.2206 8.07854e-15 8.07854e-15 1.80099e-22 2.22935e-08 -1.0506e-05 2.41564e-15 1.39567e-14
37.0284 7.15011e-15 7.15011e-15 1.52339e-22 2.13058e-08 -9.87808e-06 4.03067e-15 1.90913e-14
38.9291 6.13116e-15 6.13116e-15 1.26553e-22 2.0641e-08 -9.02544e-06 6.24054e-15 2.46331e-14
40.9273 5.16477e-15 5.16477e-15 1.04118e-22 2.01592e-08 -8.1145e-06 9.10981e-15 3.04316e-14
43.0282 4.32095e-15 4.32095e-15 8.49408e-23 1.96579e-08 -6.90382e-06 1.27014e-14 3.64272e-14
45.2368 3.6017e-15 3.6017e-15 6.90632e-23 1.91752e-08 -5.59475e-06 1.70003e-14 4.24245e-14
47.5588 3.02113e-15 3.02113e-15 5.6014e-23 1.85408e-08 -3.35274e-06 2.21028e-14 4.85985e-14
50 2.53407e-15 2.53407e-15 4.54381e-23 1.79309e-08 -1.20717e-06 2.77859e-14 5.44588e-14
52.5665 2.14193e-15 2.14193e-15 3.68369e-23 1.7198e-08 1.15963e-06 3.40922e-14 6.02086e-14
55.2648 1.82081e-15 1.82081e-15 2.98698e-23 1.64047e-08 3.29656e-06 4.08084e-14 6.55943e-14
58.1015 1.55734e-15 1.55734e-15 2.42539e-23 1.55739e-08 5.16075e-06 4.77464e-14 7.05015e-14
61.0839 1.33898e-15 1.33898e-15 1.97016e-23 1.47139e-08 6.66974e-06 5.46328e-14 7.47437e-14
64.2193 1.15652e-15 1.15652e-15 1.60104e-23 1.38436e-08 7.84535e-06 6.11779e-14 7.81652e-14
67.5157 1.00409e-15 1.00409e-15 1.30209e-23 1.29679e-08 8.62876e-06 6.71686e-14 8.07321e-14
70.9813 8.75546e-16 8.75546e-16 1.06e-23 1.21067e-08 9.09488e-06 7.23352e-14 8.23374e-14
74.6248 7.6638e-16 7.6638e-16 8.63153e-24 1.12627e-08 9.27485e-06 7.64572e-14 8.29279e-14
78.4553 6.73139e-16 6.73139e-16 7.03022e-24 1.04439e-08 9.20436e-06 7.93766e-14 8.24996e-14
82.4824 5.93328e-16 5.93328e-16 5.73111e-24 9.65927e-09 8.87722e-06 8.10334e-14 8.11209e-14
86.7162 5.24942e-16 5.24942e-16 4.67392e-24 8.9037e-09 8.24505e-06 8.14458e-14 7.89012e-14
91.1674 4.65847e-16 4.65847e-16 3.81211e-24 8.18317e-09 7.45237e-06 8.0615e-14 7.58978e-14
95.847 4.14565e-16 4.14565e-16 3.10954e-24 7.50072e-09 6.63407e-06 7.8633e-14 7.2227e-14
100.767 3.70125e-16 3.70125e-16 2.53875e-24 6.85917e-09 5.81051e-06 7.5685e-14 6.80628e-14
105.939 3.32448e-16 3.32448e-16 2.07254e-24 6.23419e-09 4.82857e-06 7.21455e-14 6.37222e-14
111.377 2.99979e-16 2.99979e-16 1.69173e-24 5.63949e-09 3.86786e-06 6.80654e-14 5.92146e-14
117.094 2.73226e-16 2.73226e-16 1.38147e-24 5.05613e-09 2.92732e-06 6.39104e-14 5.49045e-14
123.105 2.52015e-16 2.52015e-16 1.12903e-24 4.48002e-09 2.05104e-06 5.99618e-14 5.09846e-14
129.424 2.34875e-16 2.34875e-16 9.23536e-25 3.93203e-09 1.26504e-06 5.61276e-14 4.7332e-14
136.067 2.1863e-16 2.1863e-16 7.56046e-25 3.45811e-09 6.01698e-07 5.18479e-14 4.34419e-14
143.051 1.98315e-16 1.98315e-16 6.19831e-25 3.12549e-09 4.16388e-08 4.61459e-14 3.84773e-14
150.394 1.76313e-16 1.76313e-16 5.0801e-25 2.8813e-09 -4.57163e-07 3.98258e-14 3.3093e-14
158.114 1.54401e-16 1.54401e-16 4.15747e-25 2.69266e-09 -8.11247e-07 3.35149e-14 2.77869e-14
166.23 1.35015e-16 1.35015e-16 3.40024e-25 2.51842e-09 -1.1515e-06 2.78953e-14 2.31007e-14
174.763 1.18238e-16 1.18238e-16 2.78207e-25 2.35295e-09 -1.48357e-06 2.30441e-14 1.90782e-14
183.733 1.04716e-16 1.04716e-16 2.27518e-25 2.17272e-09 -1.69246e-06 1.90893e-14 1.5812e-14
193.164 9.29107e-17 9.29107e-17 1.86021e-25 2.00215e-09 -1.88851e-06 1.57162e-14 1.30332e-14
203.079 8.27525e-17 8.27525e-17 1.52124e-25 1.8383e-09 -2.04833e-06 1.28916e-14 1.07091e-14
213.503 7.42109e-17 7.42109e-17 1.24453e-25 1.67702e-09 -2.13315e-06 1.05724e-14 8.80139e-15
224.463 6.65144e-17 6.65144e-17 1.01795e-25 1.53042e-09 -2.21797e-06 8.60827e-15 7.18434e-15
235.984 5.95764e-17 5.95764e-17 8.32443e-26 1.39727e-09 -2.29302e-06 6.96087e-15 5.82574e-15
248.097 5.33347e-17 5.33347e-17 6.81116e-26 1.27706e-09 -2.37651e-06 5.593e-15 4.69509e-15
260.832 4.80334e-17 4.80334e-17 5.57329e-26 1.1603e-09 -2.38025e-06 4.49614e-15 3.78634e-15
274.221 4.32625e-17 4.32625e-17 4.55934e-26 1.05388e-09 -2.37949e-06 3.5961e-15 3.03837e-15
288.297 3.89199e-17 3.89199e-17 3.72938e-26 9.5822e-10 -2.37356e-06 2.85899e-15 2.42372e-15
303.095 3.50232e-17 3.50232e-17 3.05254e-26 8.71575e-10 -2.36459e-06 2.26335e-15 1.92529e-15
318.653 3.16259e-17 3.16259e-17 2.49798e-26 7.89852e-10 -2.30201e-06 1.79038e-15 1.52814e-15
335.009 2.85202e-17 2.85202e-17 2.04365e-26 7.16563e-10 -2.25614e-06 1.40874e-15 1.20646e-15
352.206 2.56889e-17 2.56889e-17 1.6723e-26 6.50981e-10 -2.2129e-06 1.103e-15 9.47769e-16
370.284 2.32148e-17 2.32148e-17 1.36886e-26 5.89648e-10 -2.13785e-06 8.63417e-16 7.44335e-16
389.291 2.09627e-17 2.09627e-17 1.12019e-26 5.34373e-10 -2.0593e-06 6.73136e-16 5.82153e-16
409.273 1.89037e-17 1.89037e-17 9.16472e-27 4.84811e-10 -1.99518e-06 5.22473e-16 4.53261e-16
430.282 1.70972e-17 1.70972e-17 7.50195e-27 4.38782e-10 -1.89079e-06 4.05551e-16 3.5289e-16
452.368 1.54589e-17 1.54589e-17 6.1406e-27 3.97222e-10 -1.81356e-06 3.13851e-16 2.73894e-16
475.588 1.39584e-17 1.39584e-17 5.02504e-27 3.6e-10 -1.7283e-06 2.41937e-16 2.1173e-16
500 1.25879e-17 1.25879e-17 4.11156e-27 3.26629e-10 -1.62703e-06 1.85823e-16 1.63063e-16
525.665 1.14217e-17 1.14217e-17 3.36626e-27 2.94725e-10 -1.52269e-06 1.4328e-16 1.26058e-16
552.648 1.03501e-17 1.03501e-17 2.7553e-27 2.66209e-10 -1.42485e-06 1.10101e-16 9.71091e-17
581.015 9.36628e-18 9.36628e-18 2.25465e-27 2.40719e-10 -1.34179e-06 8.43225e-17 7.45506e-17
610.838 8.46547e-18 8.46547e-18 1.84534e-27 2.17984e-10 -1.26493e-06 6.43801e-17 5.70495e-17
642.193 7.64203e-18 7.64203e-18 1.51072e-27 1.97685e-10 -1.18803e-06 4.90088e-17 4.35234e-17
675.157 6.88934e-18 6.88934e-18 1.23644e-27 1.79472e-10 -1.08963e-06 3.71956e-17 3.31013e-17
709.813 6.21822e-18 6.21822e-18 1.01171e-27 1.62702e-10 -1.02402e-06 2.82202e-17 2.51638e-17
746.247 5.64394e-18 5.64394e-18 8.28276e-28 1.46755e-10 -9.08013e-07 2.14992e-17 1.92071e-17
784.553 5.11607e-18 5.11607e-18 6.78042e-28 1.32532e-10 -8.87587e-07 1.63354e-17 1.46201e-17
824.824 4.63134e-18 4.63134e-18 5.5491e-28 1.19816e-10 -7.76922e-07 1.23792e-17 1.10983e-17
867.162 4.18702e-18 4.18702e-18 4.54088e-28 1.08451e-10 -7.8963e-07 9.3574e-18 8.40291e-18
911.674 3.78114e-18 3.78114e-18 3.71797e-28 9.83292e-11 -6.87675e-07 7.05734e-18 6.34731e-18
958.471 3.40999e-18 3.40999e-18 3.04334e-28 8.92476e-11 -6.90734e-07 5.3097e-18 4.78255e-18
1007.67 3.07444e-18 3.07444e-18 2.49045e-28 8.1005e-11 -5.60912e-07 3.98971e-18 3.59865e-18
1059.39 2.78503e-18 2.78503e-18 2.03853e-28 7.31958e-11 -5.30255e-07 3.00918e-18 2.71785e-18
1113.77 2.51983e-18 2.51983e-18 1.66897e-28 6.62336e-11 -4.57911e-07 2.26484e-18 2.04816e-18
1170.94 2.27678e-18 2.27678e-18 1.366e-28 5.99969e-11 -3.65973e-07 1.70085e-18 1.53998e-18
1231.05 2.05754e-18 2.05754e-18 1.11778e-28 5.4326e-11 -4.24861e-07 1.27651e-18 1.15709e-18
1294.24 1.86425e-18 1.86425e-18 9.15169e-29 4.90904e-11 -3.79242e-07 9.59795e-19 8.70949e-19
1360.67 1.68759e-18 1.68759e-18 7.4918e-29 4.43935e-11 -3.69494e-07 7.20489e-19 6.54468e-19
1430.51 1.52564e-18 1.52564e-18 6.13141e-29 4.01892e-11 -2.10505e-07 5.39762e-19 4.90781e-19
1503.94 1.37798e-18 1.37798e-18 5.01762e-29 3.64129e-11 -2.18637e-07 4.03745e-19 3.67447e-19
1581.14 1.25028e-18 1.25028e-18 4.10846e-29 3.28603e-11 -4.35797e-07 3.03195e-19 2.7618e-19
1662.3 1.13297e-18 1.13297e-18 3.36306e-29 2.96834e-11 -2.38158e-07 2.27267e-19 2.0719e-19
1747.63 1.0253e-18 1.0253e-18 2.75213e-29 2.68421e-11 -3.39738e-07 1.70032e-19 1.55135e-19
1837.33 9.2676e-19 9.2676e-19 2.25276e-29 2.43079e-11 -8.66295e-08 1.26996e-19 1.15956e-19
1931.64 8.36691e-19 8.36691e-19 1.84439e-29 2.20439e-11 -7.10324e-08 9.46937e-20 8.65236e-20
2030.79 7.60115e-19 7.60115e-19 1.50962e-29 1.98605e-11 -2.4607e-07 7.1018e-20 6.49347e-20
2135.03 7.01914e-19 7.01914e-19 1.23529e-29 1.75989e-11 3.18234e-08 5.41147e-20 4.95111e-20
2244.63 6.47558e-19 6.47558e-19 1.01141e-29 1.56188e-11 -5.60869e-07 4.1179e-20 3.76989e-20
2359.84 5.96757e-19 5.96757e-19 8.27987e-30 1.38748e-11 -1.06182e-07 3.1289e-20 2.86613e-20
2480.97 5.49312e-19 5.49312e-19 6.77642e-30 1.23362e-11 -1.64891e-07 2.37381e-20 2.17566e-20
2608.32 5.05071e-19 5.05071e-19 5.54563e-30 1.09799e-11 -2.72018e-07 1.7983e-20 1.64905e-20
2742.21 4.63917e-19 4.63917e-19 4.54072e-30 9.78779e-12 -1.98998e-07 1.36048e-20 1.24818e-20
2882.96 4.25605e-19 4.25605e-19 3.71692e-30 8.73326e-12 -4.08675e-08 1.02769e-20 9.43307e-21
3030.95 3.89979e-19 3.89979e-19 3.04174e-30 7.79975e-12 -6.71623e-08 7.75118e-21 7.11793e-21
3186.53 3.56935e-19 3.56935e-19 2.48987e-30 6.9757e-12 -4.53478e-07 5.83805e-21 5.36338e-21
3350.09 3.26316e-19 3.26316e-19 2.0385e-30 6.24703e-12 -1.29897e-07 4.39089e-21 4.03551e-21
3522.05 2.97947e-19 2.97947e-19 1.66852e-30 5.60005e-12 -8.11357e-09 3.29745e-21 3.03173e-21
3702.84 2.71695e-19 2.71695e-19 1.36531e-30 5.02515e-12 -1.59983e-07 2.47252e-21 2.27411e-21
