# 7.38128e-08 0 7 : grain size, compostion index, size index
# This grain was stochastically heated: Yes
# Heating and cooling timescale: 2.0964e+06 5.42258
# Ratio of heating to cooling to determine stochastic cutoff: 100
# Equilibrium emission is recorded even for those grains in the stochastic regime.
# Emission spectrum was computed for: 
# Type: IRSF
# Scale: 1
# Temperature: -1
# Wavelength  CExt  CAbs  CSca  Albedo G EqEmission StEmission
0.05 1.70487e-15 1.70435e-15 5.22868e-19 0.000306691 0.00119233 0 6.93966e-179
0.0525665 1.9745e-15 1.97394e-15 5.60699e-19 0.00028397 0.00106206 0 1.36688e-170
0.0552647 2.27861e-15 2.27801e-15 6.00761e-19 0.000263652 0.000945689 0 1.05854e-162
0.0581015 2.68008e-15 2.67945e-15 6.33822e-19 0.000236494 0.00084161 0 3.46002e-155
0.0610839 3.724e-15 3.72333e-15 6.74022e-19 0.000180994 0.000741193 0 5.80149e-148
0.0642193 4.70631e-15 4.70555e-15 7.51133e-19 0.000159601 0.000641051 0 4.02427e-141
0.0675157 5.62948e-15 5.62859e-15 8.83047e-19 0.000156861 0.000540124 0 1.25797e-134
0.0709813 6.46786e-15 6.46695e-15 9.12152e-19 0.000141028 0.000452723 0 1.87951e-128
0.0746248 6.04267e-15 6.04187e-15 7.97e-19 0.000131895 0.00039041 0 1.18429e-122
0.0784553 4.74843e-15 4.74781e-15 6.18515e-19 0.000130257 0.00034896 0 3.37735e-117
0.0824824 3.76908e-15 3.76864e-15 4.35153e-19 0.000115453 0.00032615 0 5.40264e-112
0.0867162 3.15734e-15 3.157e-15 3.35321e-19 0.000106204 0.000313127 0 5.19751e-107
0.0911674 2.75497e-15 2.75469e-15 2.81308e-19 0.000102109 0.000304015 0 3.03469e-102
0.095847 2.46552e-15 2.46529e-15 2.23241e-19 9.05454e-05 0.000320498 0 1.07976e-97
0.100767 2.16433e-15 2.16417e-15 1.5233e-19 7.03822e-05 0.000373828 0 2.28264e-93
0.105939 1.88698e-15 1.88687e-15 1.05542e-19 5.59316e-05 0.00040334 0 2.9581e-89
0.111377 1.61938e-15 1.61932e-15 6.45533e-20 3.9863e-05 0.000461634 0 2.3743e-85
0.117094 1.37257e-15 1.37253e-15 4.02442e-20 2.93204e-05 0.000422835 0 1.20759e-81
0.123105 1.15379e-15 1.15376e-15 2.62213e-20 2.27263e-05 0.000362777 0 3.98427e-78
0.129424 9.70549e-16 9.70533e-16 1.6867e-20 1.73788e-05 0.000305107 0 8.76978e-75
0.136067 8.80198e-16 8.80187e-16 1.09274e-20 1.24147e-05 0.000258149 0 1.41353e-71
0.143051 7.98883e-16 7.98876e-16 7.17726e-21 8.98412e-06 0.00022021 0 1.57684e-68
0.150394 7.5464e-16 7.54635e-16 4.88946e-21 6.4792e-06 0.000187982 0 1.28826e-65
0.158114 7.45887e-16 7.45884e-16 3.69762e-21 4.95734e-06 0.000160976 0 7.88015e-63
0.16623 7.75521e-16 7.75517e-16 3.41532e-21 4.40391e-06 0.000138388 0 3.68664e-60
0.174762 8.49644e-16 8.49639e-16 4.11482e-21 4.84299e-06 0.000118992 0 1.34177e-57
0.183733 9.81683e-16 9.81678e-16 5.8754e-21 5.98503e-06 0.000101346 0 3.85829e-55
0.193164 1.21515e-15 1.21514e-15 9.33259e-21 7.68017e-06 8.43356e-05 0 9.02936e-53
0.203079 1.59163e-15 1.59162e-15 1.42439e-20 8.94925e-06 6.76291e-05 0 1.72133e-50
0.213503 1.96076e-15 1.96074e-15 1.74804e-20 8.91511e-06 5.20134e-05 0 2.4062e-48
0.224463 1.88296e-15 1.88295e-15 1.4523e-20 7.71284e-06 3.851e-05 0 2.069e-46
0.235984 1.45504e-15 1.45503e-15 9.85087e-21 6.77017e-06 2.74855e-05 0 1.14267e-44
0.248097 1.09897e-15 1.09896e-15 6.37551e-21 5.80137e-06 2.10534e-05 0 4.97761e-43
0.260832 8.79546e-16 8.79542e-16 4.37815e-21 4.97774e-06 2.19045e-05 0 1.87358e-41
0.274221 7.48164e-16 7.48161e-16 3.15771e-21 4.2206e-06 2.92873e-05 0 6.17263e-40
0.288297 6.66163e-16 6.6616e-16 2.35351e-21 3.53294e-06 3.92945e-05 0 1.76971e-38
0.303095 6.03572e-16 6.0357e-16 1.81357e-21 3.00472e-06 4.406e-05 0 4.33096e-37
0.318653 5.27543e-16 5.27542e-16 1.41214e-21 2.67683e-06 4.59733e-05 0 8.65053e-36
0.335009 4.63533e-16 4.63532e-16 1.11226e-21 2.39953e-06 4.52101e-05 0 1.48158e-34
0.352205 4.04615e-16 4.04614e-16 8.86874e-22 2.1919e-06 4.28989e-05 0 2.16689e-33
0.370284 3.50672e-16 3.50671e-16 7.13416e-22 2.03443e-06 4.01059e-05 0 2.72481e-32
0.389291 3.01628e-16 3.01627e-16 5.78299e-22 1.91726e-06 3.73918e-05 0 2.96541e-31
0.409273 2.57472e-16 2.57472e-16 4.70173e-22 1.82611e-06 3.47566e-05 0 2.8116e-30
0.430281 2.17937e-16 2.17937e-16 3.82642e-22 1.75574e-06 3.22532e-05 0 2.33536e-29
0.452368 1.82786e-16 1.82786e-16 3.11361e-22 1.70342e-06 2.96674e-05 6.47754e-295 1.70835e-28
0.475588 1.51783e-16 1.51782e-16 2.53527e-22 1.67033e-06 2.7191e-05 1.08954e-280 1.10604e-27
0.5 1.24666e-16 1.24665e-16 2.0698e-22 1.66028e-06 2.48151e-05 3.58511e-267 6.36636e-27
0.525665 1.00923e-16 1.00923e-16 1.69159e-22 1.67611e-06 2.25687e-05 2.48914e-254 3.26335e-26
0.552647 7.9897e-17 7.98969e-17 1.38301e-22 1.73099e-06 2.05223e-05 3.90022e-242 1.48527e-25
0.581015 6.0139e-17 6.01389e-17 1.13622e-22 1.88933e-06 1.86206e-05 1.44071e-230 5.8635e-25
0.610839 3.84408e-17 3.84407e-17 9.33751e-23 2.42906e-06 1.6898e-05 1.19945e-219 1.80126e-24
0.642193 2.17578e-17 2.17577e-17 7.6723e-23 3.52623e-06 1.53353e-05 2.50368e-209 4.50899e-24
0.675157 1.57835e-17 1.57834e-17 6.31128e-23 3.99866e-06 1.39238e-05 2.01709e-199 1.3366e-23
0.709813 1.07311e-17 1.07311e-17 5.2005e-23 4.84617e-06 1.26578e-05 4.86352e-190 3.44428e-23
0.746248 4.23634e-18 4.2363e-18 4.28594e-23 1.01171e-05 1.15266e-05 2.29913e-181 4.79732e-23
0.784553 1.19233e-18 1.1923e-18 3.53114e-23 2.96155e-05 1.04993e-05 2.75836e-173 4.44998e-23
0.824824 3.89872e-19 3.89843e-19 2.90862e-23 7.46045e-05 9.5774e-06 1.43941e-165 4.4943e-23
0.867162 1.50019e-19 1.49995e-19 2.39672e-23 0.000159761 8.74788e-06 3.47211e-158 5.02161e-23
0.911674 6.33256e-20 6.33058e-20 1.97387e-23 0.000311701 7.99746e-06 3.77727e-151 5.80359e-23
0.95847 2.85247e-20 2.85084e-20 1.62426e-23 0.000569424 7.32486e-06 1.88272e-144 6.76757e-23
1.00767 1.36041e-20 1.35907e-20 1.33668e-23 0.000982555 6.71419e-06 4.44525e-138 7.92136e-23
1.05939 6.8457e-21 6.83471e-21 1.09955e-23 0.00160619 6.16025e-06 5.15283e-132 9.29779e-23
1.11377 3.67661e-21 3.66757e-21 9.04209e-24 0.00245935 5.65596e-06 3.07901e-126 1.10971e-22
1.17094 2.1852e-21 2.17777e-21 7.43248e-24 0.00340128 5.18514e-06 1.01911e-120 1.39987e-22
1.23105 1.5077e-21 1.50159e-21 6.11223e-24 0.004054 4.7542e-06 2.0281e-115 1.96298e-22
1.29424 1.22168e-21 1.21665e-21 5.0281e-24 0.00411574 4.35774e-06 2.53583e-110 3.10298e-22
1.36067 1.13507e-21 1.13094e-21 4.13386e-24 0.00364193 3.99657e-06 2.00532e-105 5.40928e-22
1.43051 1.15466e-21 1.15126e-21 3.39709e-24 0.00294206 3.66752e-06 9.85622e-101 9.94574e-22
1.50394 1.23489e-21 1.2321e-21 2.79263e-24 0.00226143 3.36342e-06 2.97161e-96 1.85502e-21
1.58114 1.35373e-21 1.35143e-21 2.29577e-24 0.00169589 3.07987e-06 5.50015e-92 3.42749e-21
1.6623 1.50254e-21 1.50065e-21 1.88749e-24 0.0012562 2.81683e-06 6.32998e-88 6.20751e-21
1.74762 1.67942e-21 1.67786e-21 1.552e-24 0.000924131 2.57987e-06 4.61387e-84 1.09781e-20
1.83733 1.88627e-21 1.88499e-21 1.276e-24 0.000676468 2.3633e-06 2.17401e-80 1.89476e-20
1.93164 2.12798e-21 2.12693e-21 1.04868e-24 0.000492808 2.16447e-06 6.76358e-77 3.19492e-20
2.03079 2.41283e-21 2.41197e-21 8.61662e-25 0.000357117 1.97988e-06 1.419e-73 5.27404e-20
2.13503 2.75471e-21 2.754e-21 7.08548e-25 0.000257213 1.81109e-06 2.05094e-70 8.55044e-20
2.24463 3.17423e-21 3.17364e-21 5.82375e-25 0.00018347 1.6573e-06 2.08512e-67 1.36641e-19
2.35984 3.70695e-21 3.70647e-21 4.78489e-25 0.000129079 1.51542e-06 1.52404e-64 2.16407e-19
2.48097 4.42001e-21 4.41962e-21 3.93066e-25 8.89289e-05 1.3845e-06 8.20434e-62 3.42592e-19
2.60832 5.45923e-21 5.45891e-21 3.23164e-25 5.9196e-05 1.26362e-06 3.35327e-59 5.50638e-19
2.74221 7.17295e-21 7.17269e-21 2.65604e-25 3.70285e-05 1.15368e-06 1.08498e-56 9.23762e-19
2.88297 1.06424e-20 1.06422e-20 2.18127e-25 2.04961e-05 1.05432e-06 2.99283e-54 1.71877e-18
3.03095 2.10225e-20 2.10223e-20 1.79167e-25 8.52264e-06 9.63775e-07 8.41279e-52 4.18591e-18
3.18653 1.0774e-19 1.07739e-19 1.47192e-25 1.36618e-06 8.79805e-07 4.75777e-49 2.60264e-17
3.35009 5.81273e-19 5.81272e-19 1.20883e-25 2.07962e-07 8.03054e-07 2.22403e-46 1.67778e-16
3.52205 3.43928e-20 3.43927e-20 9.92289e-26 2.88516e-06 7.32498e-07 9.0582e-46 1.16918e-17
3.70284 1.67562e-20 1.67562e-20 8.14894e-26 4.86323e-06 6.68824e-07 2.44077e-44 6.61796e-18
3.89291 1.33484e-20 1.33483e-20 6.68969e-26 5.01161e-06 6.09298e-07 8.73292e-43 6.0465e-18
4.09273 1.3016e-20 1.30159e-20 5.49099e-26 4.21866e-06 5.53132e-07 3.13767e-41 6.67988e-18
4.30281 1.39875e-20 1.39875e-20 4.50616e-26 3.22156e-06 5.02935e-07 1.02916e-39 8.03927e-18
4.52368 1.5976e-20 1.59759e-20 3.69908e-26 2.3154e-06 4.56922e-07 2.99941e-38 1.01707e-17
4.75588 1.93841e-20 1.93841e-20 3.03538e-26 1.56591e-06 4.14406e-07 7.83145e-37 1.35272e-17
5 2.69095e-20 2.69094e-20 2.49005e-26 9.25343e-07 3.74494e-07 1.98953e-35 2.03818e-17
5.25665 7.398e-20 7.398e-20 2.04314e-26 2.76175e-07 3.38271e-07 8.57964e-34 6.02467e-17
5.52648 6.37305e-20 6.37305e-20 1.67634e-26 2.63036e-07 3.06236e-07 1.0012e-32 5.53037e-17
5.81015 1.08183e-19 1.08183e-19 1.37452e-26 1.27054e-07 2.76584e-07 2.00263e-31 9.91852e-17
6.10839 3.5543e-19 3.5543e-19 1.12674e-26 3.17006e-08 2.48287e-07 6.7895e-30 3.41496e-16
6.42193 2.37242e-19 2.37242e-19 9.23615e-27 3.89314e-08 2.26459e-07 4.12223e-29 2.37027e-16
6.75157 1.94987e-19 1.94987e-19 7.57217e-27 3.88343e-08 2.01278e-07 2.7332e-28 2.01083e-16
7.09813 2.19087e-19 2.19087e-19 6.20449e-27 2.83198e-08 1.8001e-07 2.21024e-27 2.3157e-16
7.46248 5.03093e-19 5.03093e-19 5.08231e-27 1.01021e-08 1.62317e-07 3.2769e-26 5.41359e-16
7.84553 6.29946e-19 6.29946e-19 4.16462e-27 6.61108e-09 1.42021e-07 2.38926e-25 6.85684e-16
8.24824 2.54813e-19 2.54813e-19 3.41149e-27 1.33882e-08 1.24548e-07 5.10101e-25 2.7885e-16
8.67162 2.73079e-19 2.73079e-19 2.79271e-27 1.02267e-08 1.11415e-07 2.62799e-24 2.98701e-16
9.11674 1.02692e-19 1.02692e-19 2.28613e-27 2.22619e-08 9.41984e-08 4.34675e-24 1.11656e-16
9.5847 8.54049e-20 8.54049e-20 1.87069e-27 2.19038e-08 8.43213e-08 1.46115e-23 9.1821e-17
10.0767 9.09171e-20 9.09171e-20 1.53008e-27 1.68294e-08 7.14902e-08 5.80112e-23 9.6175e-17
10.5939 1.24958e-19 1.24958e-19 1.25055e-27 1.00078e-08 5.99127e-08 2.7547e-22 1.29448e-16
11.1377 6.39051e-19 6.39051e-19 1.0213e-27 1.59815e-09 5.1432e-08 4.52578e-21 6.45453e-16
11.7094 3.35578e-19 3.35578e-19 8.41861e-28 2.50869e-09 4.4305e-08 7.12428e-21 3.29089e-16
12.3105 3.455e-19 3.455e-19 6.84519e-28 1.98124e-09 3.43096e-08 2.05875e-20 3.27693e-16
12.9424 2.82129e-19 2.82129e-19 5.58945e-28 1.98117e-09 2.53501e-08 4.43218e-20 2.57863e-16
13.6067 2.12391e-19 2.12391e-19 4.56418e-28 2.14896e-09 1.42787e-08 8.28821e-20 1.86438e-16
14.3051 1.62563e-19 1.62563e-19 3.72401e-28 2.29081e-09 7.99984e-09 1.48901e-19 1.36622e-16
15.0394 1.3283e-19 1.3283e-19 3.03671e-28 2.28616e-09 7.01284e-09 2.706e-19 1.06573e-16
15.8114 1.36835e-19 1.36835e-19 2.4762e-28 1.80962e-09 -4.71126e-09 5.89015e-19 1.04533e-16
16.623 1.90875e-19 1.90875e-19 2.01876e-28 1.05764e-09 -5.72376e-09 1.65351e-18 1.38505e-16
17.4762 1.63541e-19 1.63541e-19 1.64497e-28 1.00585e-09 -1.57551e-08 2.72191e-18 1.12474e-16
18.3733 1.07304e-19 1.07304e-19 1.33968e-28 1.24848e-09 -2.1035e-08 3.28326e-18 6.98063e-17
19.3164 8.99542e-20 8.99542e-20 1.09244e-28 1.21444e-09 -1.91271e-08 4.8521e-18 5.52561e-17
20.3079 7.67652e-20 7.67652e-20 8.914e-29 1.1612e-09 -2.67503e-08 7.01401e-18 4.44543e-17
21.3503 6.6318e-20 6.6318e-20 7.28135e-29 1.09794e-09 -4.63199e-08 9.88195e-18 3.6154e-17
22.4463 5.75197e-20 5.75197e-20 5.96696e-29 1.03738e-09 -3.44991e-08 1.34822e-17 2.94829e-17
23.5984 4.99738e-20 4.99738e-20 4.91907e-29 9.8433e-10 -3.15911e-08 1.78036e-17 2.4057e-17
24.8097 4.34709e-20 4.34709e-20 4.09024e-29 9.40915e-10 -4.12978e-08 2.27824e-17 1.96342e-17
26.0832 3.7873e-20 3.7873e-20 3.44509e-29 9.09641e-10 -4.50417e-08 2.83059e-17 1.60354e-17
27.4221 3.307e-20 3.307e-20 2.94179e-29 8.89567e-10 -5.04249e-08 3.42213e-17 1.31154e-17
28.8297 2.8941e-20 2.8941e-20 2.55437e-29 8.82614e-10 -4.89429e-08 4.03166e-17 1.07436e-17
30.3095 2.53826e-20 2.53826e-20 2.24532e-29 8.84592e-10 -4.95979e-08 4.63456e-17 8.81427e-18
31.8653 2.23109e-20 2.23109e-20 1.97278e-29 8.84223e-10 -4.65106e-08 5.20539e-17 7.24311e-18
33.5009 1.96623e-20 1.96623e-20 1.73035e-29 8.80033e-10 -3.58503e-08 5.72181e-17 5.9643e-18
35.2206 1.73637e-20 1.73637e-20 1.48186e-29 8.5342e-10 -6.02884e-08 6.15918e-17 4.91874e-18
37.0284 1.53635e-20 1.53635e-20 1.25345e-29 8.1586e-10 -5.16301e-08 6.4992e-17 4.06221e-18
38.9291 1.36206e-20 1.36206e-20 1.04128e-29 7.64488e-10 -5.50782e-08 6.73027e-17 3.35973e-18
40.9273 1.20991e-20 1.20991e-20 8.56682e-30 7.08054e-10 -4.48691e-08 6.84664e-17 2.78271e-18
43.0282 1.07641e-20 1.07641e-20 6.98895e-30 6.49284e-10 -4.82346e-08 6.84608e-17 2.3071e-18
45.2368 9.59002e-21 9.59002e-21 5.68254e-30 5.92547e-10 -2.02871e-08 6.73415e-17 1.91443e-18
47.5588 8.55741e-21 8.55741e-21 4.60884e-30 5.38579e-10 -3.12293e-08 6.5231e-17 1.59016e-18
50 7.64586e-21 7.64586e-21 3.73865e-30 4.88978e-10 -9.79432e-09 6.22598e-17 1.32172e-18
52.5665 6.83867e-21 6.83867e-21 3.03096e-30 4.43208e-10 2.35139e-08 5.85872e-17 1.09906e-18
55.2648 6.1227e-21 6.1227e-21 2.45769e-30 4.01406e-10 9.80488e-09 5.43933e-17 9.14201e-19
58.1015 5.48841e-21 5.48841e-21 1.99562e-30 3.63606e-10 5.20114e-08 4.98735e-17 7.60836e-19
61.0839 4.92365e-21 4.92365e-21 1.62105e-30 3.29238e-10 2.81197e-08 4.51749e-17 6.33233e-19
64.2193 4.42012e-21 4.42012e-21 1.31734e-30 2.98032e-10 -1.9124e-08 4.04479e-17 5.27004e-19
67.5157 3.97112e-21 3.97112e-21 1.07136e-30 2.69788e-10 3.20222e-08 3.58248e-17 4.38593e-19
70.9813 3.57051e-21 3.57051e-21 8.72168e-31 2.4427e-10 4.50022e-08 3.14081e-17 3.65004e-19
74.6248 3.21193e-21 3.21193e-21 7.10207e-31 2.21115e-10 -1.65979e-08 2.72656e-17 3.03665e-19
78.4553 2.89067e-21 2.89067e-21 5.78448e-31 2.00109e-10 1.00813e-07 2.34495e-17 2.52535e-19
82.4824 2.60319e-21 2.60319e-21 4.71559e-31 1.81146e-10 1.50455e-08 1.9995e-17 2.09966e-19
86.7162 2.34536e-21 2.34536e-21 3.84572e-31 1.63972e-10 3.37458e-08 1.69094e-17 1.74498e-19
91.1674 2.11372e-21 2.11372e-21 3.13662e-31 1.48393e-10 3.90097e-08 1.41878e-17 1.44938e-19
95.847 1.90553e-21 1.90553e-21 2.55854e-31 1.34269e-10 -5.96043e-08 1.18164e-17 1.20312e-19
100.767 1.71878e-21 1.71878e-21 2.08889e-31 1.21533e-10 -2.6099e-08 9.77555e-18 9.9833e-20
105.939 1.55066e-21 1.55066e-21 1.7053e-31 1.09972e-10 8.59308e-08 8.03398e-18 8.27801e-20
111.377 1.39924e-21 1.39924e-21 1.39196e-31 9.94797e-11 2.15807e-07 6.56175e-18 6.8588e-20
117.094 1.26297e-21 1.26297e-21 1.13668e-31 9.00006e-11 -7.5254e-08 5.32873e-18 5.67913e-20
123.105 1.14034e-21 1.14034e-21 9.28974e-32 8.1465e-11 2.04085e-08 4.30444e-18 4.69933e-20
129.424 1.02973e-21 1.02973e-21 7.5989e-32 7.37951e-11 -1.26044e-07 3.45908e-18 3.88521e-20
136.067 9.29941e-22 9.29941e-22 6.2208e-32 6.68945e-11 5.25067e-08 2.76623e-18 3.20923e-20
143.051 8.40083e-22 8.40083e-22 5.09998e-32 6.07081e-11 9.68145e-08 2.20256e-18 2.64901e-20
150.394 7.59017e-22 7.59017e-22 4.17992e-32 5.50702e-11 2.1952e-07 1.74635e-18 2.18464e-20
158.114 6.85808e-22 6.85808e-22 3.42079e-32 4.98797e-11 -2.1634e-07 1.37904e-18 1.79986e-20
166.23 6.19699e-22 6.19699e-22 2.79773e-32 4.51465e-11 -2.2536e-07 1.08487e-18 1.48134e-20
174.763 5.60137e-22 5.60137e-22 2.2891e-32 4.08668e-11 3.82322e-07 8.50655e-19 1.21821e-20
183.733 5.06306e-22 5.06306e-22 1.87204e-32 3.69745e-11 -1.41522e-08 6.64761e-19 1.0007e-20
193.164 4.57652e-22 4.57652e-22 1.53059e-32 3.34444e-11 2.2435e-07 5.17852e-19 8.21059e-21
203.079 4.13726e-22 4.13726e-22 1.25168e-32 3.02539e-11 6.94325e-07 4.02261e-19 6.72933e-21
213.503 3.74078e-22 3.74078e-22 1.02401e-32 2.73741e-11 -3.21871e-07 3.11654e-19 5.5093e-21
224.463 3.38224e-22 3.38224e-22 8.37571e-33 2.47638e-11 1.4841e-07 2.40821e-19 4.50451e-21
235.984 3.05802e-22 3.05802e-22 6.84939e-33 2.23981e-11 -1.0102e-06 1.85628e-19 3.67794e-21
248.097 2.7654e-22 2.7654e-22 5.60424e-33 2.02656e-11 -2.4345e-07 1.42782e-19 2.99941e-21
260.832 2.5009e-22 2.5009e-22 4.58573e-33 1.83363e-11 -5.23157e-07 1.09593e-19 2.44261e-21
274.221 2.26162e-22 2.26162e-22 3.75145e-33 1.65874e-11 -4.02419e-07 8.39451e-20 1.98611e-21
288.297 2.04519e-22 2.04519e-22 3.06855e-33 1.50037e-11 -1.36886e-07 6.41754e-20 1.61236e-21
303.095 1.84991e-22 1.84991e-22 2.51164e-33 1.35771e-11 2.89874e-07 4.89852e-20 1.30713e-21
318.653 1.67318e-22 1.67318e-22 2.05535e-33 1.22841e-11 5.134e-08 3.73254e-20 1.05785e-21
335.009 1.51326e-22 1.51326e-22 1.68153e-33 1.1112e-11 5.70132e-07 2.83945e-20 8.54583e-22
352.206 1.36873e-22 1.36873e-22 1.37598e-33 1.0053e-11 6.55637e-07 2.15698e-20 6.89189e-22
370.284 1.23814e-22 1.23814e-22 1.1263e-33 9.09674e-12 7.52368e-07 1.63643e-20 5.54846e-22
389.291 1.11994e-22 1.11994e-22 9.21699e-34 8.2299e-12 3.3057e-07 1.23979e-20 4.45818e-22
409.273 1.01297e-22 1.01297e-22 7.54077e-34 7.44424e-12 -2.47593e-06 9.3807e-21 3.57499e-22
430.282 9.16364e-23 9.16364e-23 6.17266e-34 6.73604e-12 5.07586e-07 7.09057e-21 2.86156e-22
452.368 8.28974e-23 8.28974e-23 5.05252e-34 6.09491e-12 4.43549e-07 5.35364e-21 2.28589e-22
475.588 7.49869e-23 7.49869e-23 4.13461e-34 5.51378e-12 6.08228e-07 4.03772e-21 1.82216e-22
500 6.78291e-23 6.78291e-23 3.38302e-34 4.98756e-12 1.4459e-06 3.04217e-21 1.44944e-22
525.665 6.13664e-23 6.13664e-23 2.76977e-34 4.5135e-12 -1.39325e-06 2.2904e-21 1.15076e-22
552.648 5.55154e-23 5.55154e-23 2.26706e-34 4.08366e-12 -1.31484e-06 1.72276e-21 9.11625e-23
581.015 5.02188e-23 5.02188e-23 1.85513e-34 3.6941e-12 -1.97398e-06 1.29465e-21 7.20596e-23
610.838 4.54305e-23 4.54305e-23 1.51835e-34 3.34214e-12 -3.38561e-07 9.72233e-22 5.68421e-23
642.193 4.11023e-23 4.11023e-23 1.24303e-34 3.02424e-12 4.55602e-06 7.29636e-22 4.47466e-23
675.157 3.71837e-23 3.71837e-23 1.01735e-34 2.73601e-12 -1.35887e-06 5.47148e-22 3.51474e-23
709.813 3.36362e-23 3.36362e-23 8.32448e-35 2.47485e-12 3.69691e-06 4.10006e-22 2.75474e-23
746.247 3.04322e-23 3.04322e-23 6.81513e-35 2.23945e-12 2.81803e-06 3.07097e-22 2.15492e-23
784.553 2.75327e-23 2.75327e-23 5.57897e-35 2.0263e-12 7.17497e-07 2.29877e-22 1.68219e-23
824.824 2.49078e-23 2.49078e-23 4.56584e-35 1.8331e-12 4.74175e-06 1.71967e-22 1.31041e-23
867.162 2.25323e-23 2.25323e-23 3.73629e-35 1.6582e-12 7.44839e-06 1.28573e-22 1.01872e-23
911.674 2.0387e-23 2.0387e-23 3.05915e-35 1.50054e-12 -3.78374e-06 9.6099e-23 7.90547e-24
958.471 1.84443e-23 1.84443e-23 2.50404e-35 1.35762e-12 -1.19108e-05 7.17867e-23 6.12252e-24
1007.67 1.66856e-23 1.66856e-23 2.04914e-35 1.22809e-12 -5.43149e-06 5.35978e-23 4.73249e-24
1059.39 1.50957e-23 1.50957e-23 1.67728e-35 1.1111e-12 -1.81511e-05 4.00033e-23 3.65163e-24
1113.77 1.36582e-23 1.36582e-23 1.37325e-35 1.00545e-12 1.19854e-05 2.98471e-23 2.81284e-24
1170.94 1.23565e-23 1.23565e-23 1.12396e-35 9.09606e-13 6.99981e-06 2.22591e-23 2.16282e-24
1231.05 1.11781e-23 1.11781e-23 9.19712e-36 8.22777e-13 -2.14758e-06 1.65931e-23 1.66012e-24
1294.24 1.01138e-23 1.01138e-23 7.53023e-36 7.4455e-13 2.09931e-05 1.23672e-23 1.27242e-24
1360.67 9.15053e-24 9.15053e-24 6.16445e-36 6.73672e-13 2.44245e-05 9.21436e-24 9.7372e-25
1430.51 8.27832e-24 8.27832e-24 5.04486e-36 6.09405e-13 -1.93162e-05 6.86258e-24 7.43958e-25
1503.94 7.48907e-24 7.48907e-24 4.12868e-36 5.51294e-13 4.1064e-05 5.10947e-24 5.67578e-25
1581.14 6.77619e-24 6.77619e-24 3.38041e-36 4.98866e-13 -1.18592e-05 3.8038e-24 4.32486e-25
1662.3 6.13066e-24 6.13066e-24 2.76728e-36 4.51384e-13 5.08565e-05 2.83081e-24 3.29081e-25
1747.63 5.54618e-24 5.54618e-24 2.26454e-36 4.08307e-13 3.32537e-05 2.10601e-24 2.50059e-25
1837.33 5.0178e-24 5.0178e-24 1.85365e-36 3.69415e-13 3.93944e-05 1.56654e-24 1.89794e-25
1931.64 4.54005e-24 4.54005e-24 1.51762e-36 3.34274e-13 2.93006e-05 1.16508e-24 1.43893e-25
2030.79 4.10745e-24 4.10745e-24 1.24213e-36 3.02409e-13 3.67817e-06 8.66251e-25 1.08961e-25
2135.03 3.71577e-24 3.71577e-24 1.01632e-36 2.73515e-13 -8.70794e-05 6.43882e-25 8.24141e-26
2244.63 3.36202e-24 3.36202e-24 8.32223e-37 2.47537e-13 3.48782e-05 4.78592e-25 6.2282e-26
2359.84 3.04185e-24 3.04185e-24 6.81284e-37 2.2397e-13 1.82876e-05 3.55658e-25 4.70201e-26
2480.97 2.75194e-24 2.75194e-24 5.57569e-37 2.0261e-13 2.22285e-06 2.64232e-25 3.54616e-26
2608.32 2.4896e-24 2.4896e-24 4.56296e-37 1.83281e-13 -3.83161e-06 1.96273e-25 2.67201e-26
