# 1.01013e-07 2 10 : grain size, compostion index, size index
# This grain was stochastically heated: Yes
# Heating and cooling timescale: 726974 2.81169
# Ratio of heating to cooling to determine stochastic cutoff: 100
# Equilibrium emission is recorded even for those grains in the stochastic regime.
# Emission spectrum was computed for: 
# Type: IRSF
# Scale: 1
# Temperature: -1
# Wavelength  CExt  CAbs  CSca  Albedo G EqEmission StEmission
0.05 4.35477e-15 4.35136e-15 3.41112e-18 0.000783306 0.0022373 0 7.80874e-209
0.0525665 5.04369e-15 5.04003e-15 3.65903e-18 0.000725468 0.00199276 0 1.30511e-199
0.0552647 5.821e-15 5.81707e-15 3.92164e-18 0.000673705 0.00177429 0 7.69129e-191
0.0581015 6.6059e-15 6.60176e-15 4.13867e-18 0.000626511 0.00157887 0 1.65916e-182
0.0610839 7.48952e-15 7.48511e-15 4.40309e-18 0.000587901 0.00139041 0 1.39702e-174
0.0642193 8.75035e-15 8.74544e-15 4.90999e-18 0.00056112 0.00120255 0 4.95846e-167
0.0675157 1.06698e-14 1.0664e-14 5.77847e-18 0.000541575 0.00101314 0 7.84878e-160
0.0709813 1.18647e-14 1.18588e-14 5.97906e-18 0.000503935 0.000848922 0 5.04689e-153
0.0746248 1.13039e-14 1.12986e-14 5.23311e-18 0.000462948 0.000731756 0 1.2886e-146
0.0784553 9.65404e-15 9.64997e-15 4.06594e-18 0.000421165 0.000653814 0 1.41915e-140
0.0824824 7.76187e-15 7.75901e-15 2.86181e-18 0.000368701 0.000610826 0 7.33912e-135
0.0867162 6.78026e-15 6.77806e-15 2.20501e-18 0.00032521 0.000586218 0 2.12788e-129
0.0911674 5.97447e-15 5.97262e-15 1.84999e-18 0.00030965 0.000568965 0 3.31886e-124
0.095847 4.69071e-15 4.68924e-15 1.46851e-18 0.000313069 0.000599651 0 2.53771e-119
0.100767 3.23381e-15 3.23281e-15 1.00203e-18 0.00030986 0.000699478 0 9.67097e-115
0.105939 2.12039e-15 2.1197e-15 6.94191e-19 0.000327388 0.000754853 0 2.05163e-110
0.111377 1.2832e-15 1.28277e-15 4.24471e-19 0.000330792 0.000864008 0 2.42897e-106
0.117094 9.82042e-16 9.81777e-16 2.6455e-19 0.000269388 0.000791709 0 2.28004e-102
0.123105 7.69493e-16 7.69321e-16 1.72336e-19 0.000223961 0.000679316 0 1.43197e-98
0.129424 6.45741e-16 6.4563e-16 1.10839e-19 0.000171646 0.000571337 0 6.59236e-95
0.136067 6.11703e-16 6.11631e-16 7.18003e-20 0.000117378 0.000483414 0 2.45039e-91
0.143051 6.34502e-16 6.34455e-16 4.71556e-20 7.4319e-05 0.000412378 0 7.34637e-88
0.150394 7.32072e-16 7.3204e-16 3.21222e-20 4.38785e-05 0.000352032 0 1.81927e-84
0.158114 8.8853e-16 8.88505e-16 2.429e-20 2.73373e-05 0.000301465 0 3.49657e-81
0.16623 1.11284e-15 1.11282e-15 2.24332e-20 2.01585e-05 0.000259168 0 5.07211e-78
0.174762 1.45665e-15 1.45662e-15 2.70241e-20 1.85523e-05 0.000222851 0 5.60612e-75
0.183733 1.95546e-15 1.95542e-15 3.85826e-20 1.97307e-05 0.000189807 0 4.64806e-72
0.193164 2.7144e-15 2.71434e-15 6.12842e-20 2.25774e-05 0.00015795 0 2.93766e-69
0.203079 3.58807e-15 3.58798e-15 9.35509e-20 2.60728e-05 0.000126661 0 1.31733e-66
0.213503 3.87549e-15 3.87537e-15 1.14847e-19 2.96342e-05 9.74141e-05 0 3.63955e-64
0.224463 2.97748e-15 2.97738e-15 9.54412e-20 3.20544e-05 7.21257e-05 0 5.4602e-62
0.235984 2.02964e-15 2.02958e-15 6.47378e-20 3.18961e-05 5.14796e-05 0 5.61747e-60
0.248097 1.44042e-15 1.44037e-15 4.18948e-20 2.90852e-05 3.94294e-05 0 4.70689e-58
0.260832 1.13817e-15 1.13814e-15 2.87674e-20 2.52752e-05 4.10125e-05 0 3.47543e-56
0.274221 9.39053e-16 9.39032e-16 2.0747e-20 2.20936e-05 5.48264e-05 0 2.1446e-54
0.288297 8.11538e-16 8.11523e-16 1.54626e-20 1.90534e-05 7.35651e-05 0 1.12147e-52
0.303095 7.13772e-16 7.1376e-16 1.19147e-20 1.66926e-05 8.24935e-05 0 4.87841e-51
0.318653 6.30125e-16 6.30116e-16 9.27725e-21 1.47229e-05 8.60812e-05 0 1.75824e-49
0.335009 5.64988e-16 5.64981e-16 7.30701e-21 1.2933e-05 8.46561e-05 0 5.36337e-48
0.352205 5.14661e-16 5.14655e-16 5.82624e-21 1.13205e-05 8.03307e-05 0 1.39828e-46
0.370284 4.72612e-16 4.72607e-16 4.68665e-21 9.91649e-06 7.51022e-05 0 3.12334e-45
0.389291 4.33053e-16 4.33049e-16 3.79897e-21 8.77253e-06 7.00207e-05 0 5.99495e-44
0.409273 3.95236e-16 3.95233e-16 3.08864e-21 7.81466e-06 6.50869e-05 0 1.00794e-42
0.430281 3.59028e-16 3.59025e-16 2.51361e-21 7.00117e-06 6.03996e-05 0 1.54035e-41
0.452368 3.27874e-16 3.27872e-16 2.04534e-21 6.2382e-06 5.55577e-05 0 2.29731e-40
0.475588 2.99671e-16 2.9967e-16 1.66542e-21 5.55748e-06 5.09203e-05 0 3.55271e-39
0.5 2.75803e-16 2.75802e-16 1.35964e-21 4.92973e-06 4.64714e-05 0 5.82684e-38
0.525665 2.55199e-16 2.55198e-16 1.11119e-21 4.3542e-06 4.22647e-05 0 9.64274e-37
0.552647 2.35758e-16 2.35757e-16 9.0848e-22 3.85345e-06 3.84326e-05 0 1.50053e-35
0.581015 2.19607e-16 2.19607e-16 7.46368e-22 3.39865e-06 3.48712e-05 0 2.12764e-34
0.610839 2.04199e-16 2.04198e-16 6.13364e-22 3.00376e-06 3.16453e-05 0 2.67192e-33
0.642193 1.89481e-16 1.89481e-16 5.03977e-22 2.65977e-06 2.87189e-05 0 2.95583e-32
0.675157 1.75854e-16 1.75854e-16 4.14574e-22 2.35749e-06 2.60756e-05 0 2.89009e-31
0.709813 1.6326e-16 1.6326e-16 3.41608e-22 2.09241e-06 2.37046e-05 0 2.50731e-30
0.746248 1.51429e-16 1.51429e-16 2.81532e-22 1.85917e-06 2.15863e-05 0 1.93686e-29
0.784553 1.40195e-16 1.40195e-16 2.31951e-22 1.65448e-06 1.96625e-05 0 1.33773e-28
0.824824 1.29697e-16 1.29697e-16 1.91058e-22 1.47311e-06 1.7936e-05 0 8.31205e-28
0.867162 1.19877e-16 1.19877e-16 1.57433e-22 1.31328e-06 1.63825e-05 0 4.66887e-27
0.911674 1.10654e-16 1.10654e-16 1.29657e-22 1.17173e-06 1.49772e-05 1.60454e-309 2.38103e-26
0.95847 1.0211e-16 1.0211e-16 1.06692e-22 1.04487e-06 1.37177e-05 1.27409e-294 1.10869e-25
1.00767 9.41253e-17 9.41252e-17 8.78016e-23 9.32816e-07 1.25739e-05 1.86244e-280 4.73053e-25
1.05939 8.68553e-17 8.68553e-17 7.22254e-23 8.3156e-07 1.15366e-05 5.45523e-267 1.8612e-24
1.11377 8.00246e-17 8.00245e-17 5.9394e-23 7.42196e-07 1.05922e-05 3.45424e-254 6.76193e-24
1.17094 7.39627e-17 7.39626e-17 4.88213e-23 6.6008e-07 9.71056e-06 5.11906e-242 2.2878e-23
1.23105 6.83746e-17 6.83745e-17 4.01489e-23 5.8719e-07 8.90343e-06 1.90081e-230 7.21331e-23
1.29424 6.31934e-17 6.31933e-17 3.30276e-23 5.22643e-07 8.16095e-06 1.89108e-219 2.12578e-22
1.36067 5.84028e-17 5.84027e-17 2.71537e-23 4.64938e-07 7.48463e-06 5.37678e-209 5.87605e-22
1.43051 5.39817e-17 5.39817e-17 2.2314e-23 4.13363e-07 6.86838e-06 4.64537e-199 1.5285e-21
1.50394 4.99675e-17 4.99675e-17 1.83436e-23 3.67111e-07 6.29889e-06 1.29432e-189 3.7578e-21
1.58114 4.63034e-17 4.63034e-17 1.50799e-23 3.25677e-07 5.76791e-06 1.22867e-180 8.7536e-21
1.6623 4.29145e-17 4.29144e-17 1.23981e-23 2.88904e-07 5.27541e-06 4.18478e-172 1.9355e-20
1.74762 3.97248e-17 3.97248e-17 1.01944e-23 2.56627e-07 4.83159e-06 5.36895e-164 4.06715e-20
1.83733 3.67799e-17 3.67799e-17 8.3815e-24 2.27882e-07 4.42594e-06 2.72493e-156 8.15431e-20
1.93164 3.40517e-17 3.40517e-17 6.88835e-24 2.02291e-07 4.05353e-06 5.72351e-149 1.56319e-19
2.03079 3.15515e-17 3.15515e-17 5.6599e-24 1.79386e-07 3.70796e-06 5.1985e-142 2.87431e-19
2.13503 2.92243e-17 2.92243e-17 4.65415e-24 1.59256e-07 3.39176e-06 2.12478e-135 5.07457e-19
2.24463 2.70525e-17 2.70525e-17 3.82537e-24 1.41406e-07 3.10368e-06 4.06188e-129 8.61821e-19
2.35984 2.50622e-17 2.50622e-17 3.14298e-24 1.25407e-07 2.83811e-06 3.7745e-123 1.41277e-18
2.48097 2.32261e-17 2.32261e-17 2.58187e-24 1.11163e-07 2.59281e-06 1.76536e-117 2.23872e-18
2.60832 2.15129e-17 2.15129e-17 2.12272e-24 9.86722e-08 2.36654e-06 4.29346e-112 3.43256e-18
2.74221 1.99007e-17 1.99007e-17 1.74463e-24 8.76669e-08 2.16056e-06 5.60197e-107 5.09765e-18
2.88297 1.84106e-17 1.84106e-17 1.43278e-24 7.78236e-08 1.97412e-06 4.04744e-102 7.3547e-18
3.03095 1.70159e-17 1.70159e-17 1.17687e-24 6.91631e-08 1.80492e-06 1.66502e-97 1.03144e-17
3.18653 1.57316e-17 1.57316e-17 9.66836e-25 6.14584e-08 1.64792e-06 4.01348e-93 1.40996e-17
3.35009 1.45431e-17 1.45431e-17 7.94023e-25 5.45978e-08 1.50361e-06 5.81676e-89 1.88059e-17
3.52205 1.34396e-17 1.34396e-17 6.5179e-25 4.84976e-08 1.37222e-06 5.19447e-85 2.44995e-17
3.70284 1.24203e-17 1.24203e-17 5.35265e-25 4.30961e-08 1.25189e-06 2.92776e-81 3.12253e-17
3.89291 1.14854e-17 1.14854e-17 4.39414e-25 3.82583e-08 1.141e-06 1.06583e-77 3.9003e-17
4.09273 1.0623e-17 1.0623e-17 3.60677e-25 3.39526e-08 1.03664e-06 2.5591e-74 4.77761e-17
4.30281 9.81646e-18 9.81646e-18 2.95988e-25 3.01523e-08 9.41752e-07 4.13128e-71 5.73856e-17
4.52368 9.06835e-18 9.06835e-18 2.42976e-25 2.67938e-08 8.55608e-07 4.57452e-68 6.76913e-17
4.75588 8.37636e-18 8.37636e-18 1.9938e-25 2.38027e-08 7.76827e-07 3.53945e-65 7.84985e-17
5 7.74792e-18 7.74792e-18 1.63559e-25 2.11101e-08 7.01287e-07 1.95033e-62 8.96985e-17
5.25665 7.1475e-18 7.1475e-18 1.34205e-25 1.87765e-08 6.336e-07 7.75062e-60 1.00661e-16
5.52648 6.58579e-18 6.58579e-18 1.10111e-25 1.67195e-08 5.72782e-07 2.25996e-57 1.11183e-16
5.81015 6.07067e-18 6.07067e-18 9.02857e-26 1.48724e-08 5.18042e-07 4.91678e-55 1.2114e-16
6.10839 5.60112e-18 5.60112e-18 7.40099e-26 1.32134e-08 4.65669e-07 8.1e-53 1.30348e-16
6.42193 5.15453e-18 5.15453e-18 6.06679e-26 1.17698e-08 4.23193e-07 1.02081e-50 1.38104e-16
6.75157 4.76099e-18 4.76099e-18 4.9738e-26 1.0447e-08 3.78082e-07 1.0031e-48 1.45059e-16
7.09813 4.39287e-18 4.39287e-18 4.07544e-26 9.2774e-09 3.39013e-07 7.74549e-47 1.50416e-16
7.46248 4.05737e-18 4.05737e-18 3.33833e-26 8.22782e-09 3.02021e-07 4.76428e-45 1.5437e-16
7.84553 3.75479e-18 3.75479e-18 2.73554e-26 7.28546e-09 2.67074e-07 2.36306e-43 1.5702e-16
8.24824 3.47041e-18 3.47041e-18 2.24085e-26 6.45703e-09 2.33915e-07 9.52039e-42 1.57858e-16
8.67162 3.20694e-18 3.20694e-18 1.83439e-26 5.72007e-09 2.05334e-07 3.1508e-40 1.5709e-16
9.11674 2.96928e-18 2.96928e-18 1.50166e-26 5.05731e-09 1.81083e-07 8.66641e-39 1.55134e-16
9.5847 2.75812e-18 2.75812e-18 1.22877e-26 4.4551e-09 1.57539e-07 2.00197e-37 1.52286e-16
10.0767 2.57199e-18 2.57199e-18 1.00504e-26 3.90763e-09 1.36671e-07 3.92017e-36 1.48749e-16
10.5939 2.40786e-18 2.40786e-18 8.21424e-27 3.41143e-09 1.16089e-07 6.56162e-35 1.4463e-16
11.1377 2.27088e-18 2.27088e-18 6.70845e-27 2.95412e-09 9.73925e-08 9.49435e-34 1.40511e-16
11.7094 2.12619e-18 2.12619e-18 5.52979e-27 2.6008e-09 8.04415e-08 1.17909e-32 1.34459e-16
12.3105 2.0277e-18 2.0277e-18 4.49628e-27 2.21743e-09 6.34937e-08 1.29872e-31 1.30071e-16
12.9424 1.93842e-18 1.93842e-18 3.67145e-27 1.89404e-09 4.65238e-08 1.25698e-30 1.25215e-16
13.6067 1.86707e-18 1.86707e-18 2.998e-27 1.60572e-09 3.41839e-08 1.0815e-29 1.20603e-16
14.3051 1.81874e-18 1.81874e-18 2.44613e-27 1.34496e-09 2.08724e-08 8.35356e-29 1.16691e-16
15.0394 1.79412e-18 1.79412e-18 1.99467e-27 1.11178e-09 6.31791e-09 5.83427e-28 1.13599e-16
15.8114 1.79836e-18 1.79836e-18 1.6265e-27 9.04431e-10 -3.38708e-09 3.71732e-27 1.11673e-16
16.623 1.83088e-18 1.83088e-18 1.32603e-27 7.24259e-10 -1.22862e-08 2.17127e-26 1.10835e-16
17.4762 1.89546e-18 1.89546e-18 1.08051e-27 5.7005e-10 -2.65532e-08 1.16981e-25 1.11219e-16
18.3733 2.00123e-18 2.00123e-18 8.79969e-28 4.39714e-10 -2.78746e-08 5.85824e-25 1.13188e-16
19.3164 2.15103e-18 2.15103e-18 7.17573e-28 3.33596e-10 -3.75545e-08 2.73441e-24 1.16649e-16
20.3079 2.35181e-18 2.35181e-18 5.85518e-28 2.48965e-10 -4.90685e-08 1.1938e-23 1.21662e-16
21.3503 2.62004e-18 2.62004e-18 4.78278e-28 1.82546e-10 -6.4208e-08 4.90315e-23 1.28663e-16
22.4463 2.97194e-18 2.97194e-18 3.91942e-28 1.31881e-10 -6.69277e-08 1.90055e-22 1.37895e-16
23.5984 3.42039e-18 3.42039e-18 3.23111e-28 9.44662e-11 -7.26186e-08 6.95374e-22 1.49282e-16
24.8097 3.96939e-18 3.96939e-18 2.68669e-28 6.76851e-11 -8.05032e-08 2.39521e-21 1.62268e-16
26.0832 4.61352e-18 4.61352e-18 2.26291e-28 4.90496e-11 -9.42254e-08 7.74015e-21 1.75938e-16
27.4221 5.30627e-18 5.30627e-18 1.93233e-28 3.6416e-11 -9.57877e-08 2.32605e-20 1.88048e-16
28.8297 5.94367e-18 5.94367e-18 1.67785e-28 2.82291e-11 -8.87925e-08 6.41682e-20 1.95034e-16
30.3095 6.4524e-18 6.4524e-18 1.47485e-28 2.28574e-11 -9.38421e-08 1.62184e-19 1.95377e-16
31.8653 6.60079e-18 6.60079e-18 1.29583e-28 1.96314e-11 -8.90158e-08 3.66165e-19 1.83847e-16
33.5009 6.47079e-18 6.47079e-18 1.13658e-28 1.75648e-11 -9.17003e-08 7.529e-19 1.65284e-16
35.2206 5.93826e-18 5.93826e-18 9.73361e-29 1.63913e-11 -9.08497e-08 1.38079e-18 1.38722e-16
37.0284 5.25576e-18 5.25576e-18 8.23332e-29 1.56653e-11 -7.11768e-08 2.33239e-18 1.12004e-16
38.9291 4.5067e-18 4.5067e-18 6.8397e-29 1.51767e-11 -7.28938e-08 3.65354e-18 8.74107e-17
40.9273 3.7963e-18 3.7963e-18 5.62713e-29 1.48227e-11 -7.15597e-08 5.39285e-18 6.68756e-17
43.0282 3.17599e-18 3.17599e-18 4.59072e-29 1.44544e-11 -6.21109e-08 7.59874e-18 5.07202e-17
45.2368 2.64724e-18 2.64724e-18 3.7326e-29 1.41e-11 -5.5862e-08 1.0273e-17 3.82633e-17
47.5588 2.22046e-18 2.22046e-18 3.02734e-29 1.36338e-11 -2.19986e-08 1.34843e-17 2.90076e-17
50 1.86243e-18 1.86243e-18 2.45575e-29 1.31857e-11 -3.10821e-08 1.71058e-17 2.19645e-17
52.5665 1.57418e-18 1.57418e-18 1.99089e-29 1.26471e-11 2.0748e-08 2.11699e-17 1.67441e-17
55.2648 1.33816e-18 1.33816e-18 1.61434e-29 1.20639e-11 4.24128e-08 2.55493e-17 1.28283e-17
58.1015 1.14451e-18 1.14451e-18 1.31083e-29 1.14531e-11 3.63376e-08 3.01275e-17 9.88365e-18
61.0839 9.84026e-19 9.84026e-19 1.0648e-29 1.08208e-11 2.9625e-08 3.473e-17 7.65268e-18
64.2193 8.49937e-19 8.49937e-19 8.65298e-30 1.01807e-11 7.9449e-08 3.91669e-17 5.95203e-18
67.5157 7.37921e-19 7.37921e-19 7.03726e-30 9.53661e-12 3.92675e-08 4.32931e-17 4.65373e-18
70.9813 6.43461e-19 6.43461e-19 5.72886e-30 8.9032e-12 1.12572e-07 4.69231e-17 3.65548e-18
74.6248 5.6324e-19 5.6324e-19 4.66501e-30 8.28246e-12 7.03928e-08 4.99005e-17 2.88356e-18
78.4553 4.94725e-19 4.94725e-19 3.79956e-30 7.68014e-12 8.95701e-08 5.21077e-17 2.28379e-18
82.4824 4.36078e-19 4.36078e-19 3.09745e-30 7.10296e-12 4.01511e-08 5.34899e-17 1.81638e-18
86.7162 3.85826e-19 3.85826e-19 2.52608e-30 6.5472e-12 4.60419e-08 5.40452e-17 1.45117e-18
91.1674 3.42403e-19 3.42403e-19 2.0603e-30 6.01717e-12 6.37875e-08 5.37619e-17 1.16389e-18
95.847 3.04715e-19 3.04715e-19 1.68058e-30 5.51527e-12 7.28171e-08 5.26888e-17 9.36916e-19
100.767 2.72057e-19 2.72057e-19 1.3721e-30 5.04341e-12 6.16113e-08 5.09422e-17 7.57349e-19
105.939 2.44369e-19 2.44369e-19 1.12013e-30 4.58377e-12 5.36885e-08 4.87677e-17 6.16464e-19
111.377 2.20506e-19 2.20506e-19 9.14314e-31 4.14643e-12 -7.52704e-08 4.61963e-17 5.04545e-19
117.094 2.00844e-19 2.00844e-19 7.46632e-31 3.71747e-12 -9.50128e-08 4.35429e-17 4.17189e-19
123.105 1.85255e-19 1.85255e-19 6.102e-31 3.29384e-12 -2.17702e-08 4.10011e-17 3.49617e-19
129.424 1.72656e-19 1.72656e-19 4.99137e-31 2.89093e-12 -3.90138e-08 3.85112e-17 2.96267e-19
136.067 1.60715e-19 1.60715e-19 4.08614e-31 2.54248e-12 -3.15578e-09 3.56903e-17 2.50918e-19
143.051 1.45781e-19 1.45781e-19 3.34995e-31 2.29793e-12 4.26029e-08 3.18626e-17 2.07212e-19
150.394 1.29607e-19 1.29607e-19 2.7456e-31 2.1184e-12 -1.76841e-07 2.75783e-17 1.67804e-19
158.114 1.13499e-19 1.13499e-19 2.24696e-31 1.97972e-12 2.7543e-07 2.32713e-17 1.33909e-19
166.23 9.92472e-20 9.92472e-20 1.8377e-31 1.85164e-12 5.06994e-08 1.94191e-17 1.0674e-19
174.763 8.6914e-20 8.6914e-20 1.5036e-31 1.72999e-12 1.53224e-07 1.60808e-17 8.52298e-20
183.733 7.69737e-20 7.69737e-20 1.22965e-31 1.59749e-12 -8.87762e-08 1.33513e-17 6.88338e-20
193.164 6.82951e-20 6.82951e-20 1.00537e-31 1.4721e-12 -1.38089e-08 1.10157e-17 5.56973e-20
203.079 6.08276e-20 6.08276e-20 8.2217e-32 1.35164e-12 -1.95206e-07 9.05412e-18 4.52395e-20
213.503 5.45485e-20 5.45485e-20 6.72623e-32 1.23307e-12 -1.36742e-07 7.43929e-18 3.69936e-20
224.463 4.88906e-20 4.88906e-20 5.50162e-32 1.12529e-12 -1.21006e-07 6.06801e-18 3.02285e-20
235.984 4.37899e-20 4.37899e-20 4.49903e-32 1.02741e-12 -5.81907e-08 4.91489e-18 2.46774e-20
248.097 3.92018e-20 3.92018e-20 3.68115e-32 9.39027e-13 -2.4459e-07 3.95527e-18 2.01291e-20
260.832 3.53047e-20 3.53047e-20 3.01215e-32 8.53188e-13 4.64477e-07 3.18424e-18 1.6511e-20
274.221 3.17976e-20 3.17976e-20 2.46415e-32 7.74949e-13 -8.52825e-08 2.55031e-18 1.35383e-20
288.297 2.86053e-20 2.86053e-20 2.01559e-32 7.04619e-13 -6.57833e-08 2.03017e-18 1.10821e-20
303.095 2.57409e-20 2.57409e-20 1.64978e-32 6.40917e-13 -3.50021e-07 1.60914e-18 9.06904e-21
318.653 2.32436e-20 2.32436e-20 1.35006e-32 5.80832e-13 4.82653e-07 1.27432e-18 7.44281e-21
335.009 2.09607e-20 2.09607e-20 1.10452e-32 5.26947e-13 7.22795e-07 1.00374e-18 6.09606e-21
352.206 1.88795e-20 1.88795e-20 9.03815e-33 4.78727e-13 4.32508e-07 7.86672e-19 4.98352e-21
370.284 1.70609e-20 1.70609e-20 7.39817e-33 4.33632e-13 1.00973e-06 6.16372e-19 4.08435e-21
389.291 1.54055e-20 1.54055e-20 6.05422e-33 3.9299e-13 9.93965e-07 4.80952e-19 3.34215e-21
409.273 1.38921e-20 1.38921e-20 4.95318e-33 3.56546e-13 -1.68003e-07 3.73607e-19 2.72886e-21
430.282 1.25644e-20 1.25644e-20 4.05453e-33 3.22701e-13 -5.22266e-07 2.9022e-19 2.23269e-21
452.368 1.13602e-20 1.13602e-20 3.31878e-33 2.92141e-13 4.70618e-07 2.24758e-19 1.82451e-21
475.588 1.02574e-20 1.02574e-20 2.71584e-33 2.6477e-13 9.90122e-07 1.73374e-19 1.48745e-21
500 9.25001e-21 9.25001e-21 2.22214e-33 2.40231e-13 -9.98141e-07 1.33245e-19 1.20991e-21
525.665 8.39299e-21 8.39299e-21 1.81933e-33 2.16768e-13 -1.13276e-06 1.028e-19 9.89144e-22
552.648 7.60547e-21 7.60547e-21 1.48913e-33 1.95797e-13 -1.8763e-06 7.90389e-20 8.06701e-22
581.015 6.88243e-21 6.88243e-21 1.21855e-33 1.77052e-13 -5.72036e-07 6.05648e-20 6.56239e-22
610.838 6.22042e-21 6.22042e-21 9.97336e-34 1.60332e-13 2.45459e-06 4.62637e-20 5.32524e-22
642.193 5.61526e-21 5.61526e-21 8.16482e-34 1.45404e-13 -4.00574e-06 3.52338e-20 4.31055e-22
675.157 5.0621e-21 5.0621e-21 6.68252e-34 1.32011e-13 1.85995e-06 2.67523e-20 3.47982e-22
709.813 4.5689e-21 4.5689e-21 5.46793e-34 1.19677e-13 -2.1035e-06 2.0305e-20 2.80867e-22
746.247 4.14693e-21 4.14693e-21 4.47652e-34 1.07948e-13 9.88643e-07 1.54752e-20 2.27643e-22
784.553 3.75904e-21 3.75904e-21 3.66456e-34 9.74868e-14 1.63564e-06 1.17624e-20 1.83991e-22
824.824 3.40286e-21 3.40286e-21 2.9991e-34 8.81347e-14 6.8596e-06 8.91677e-21 1.48284e-22
867.162 3.07637e-21 3.07637e-21 2.45418e-34 7.97751e-14 7.45669e-07 6.74232e-21 1.19161e-22
911.674 2.77811e-21 2.77811e-21 2.00943e-34 7.23308e-14 5.32411e-06 5.08655e-21 9.5496e-23
958.471 2.50538e-21 2.50538e-21 1.64481e-34 6.56512e-14 2.34878e-06 3.828e-21 7.63011e-23
1007.67 2.25881e-21 2.25881e-21 1.34598e-34 5.95879e-14 -1.07442e-05 2.87711e-21 6.0845e-23
1059.39 2.04618e-21 2.04618e-21 1.10175e-34 5.38444e-14 4.79788e-06 2.17057e-21 4.86663e-23
1113.77 1.85131e-21 1.85131e-21 9.02016e-35 4.8723e-14 1.70402e-07 1.63405e-21 3.88102e-23
1170.94 1.67274e-21 1.67274e-21 7.38273e-35 4.41357e-14 3.06594e-06 1.22741e-21 3.08536e-23
1231.05 1.51165e-21 1.51165e-21 6.04126e-35 3.99647e-14 1.44519e-05 9.2138e-22 2.44887e-23
1294.24 1.36964e-21 1.36964e-21 4.9461e-35 3.61123e-14 -8.81059e-06 6.92919e-22 1.94525e-23
1360.67 1.23984e-21 1.23984e-21 4.04904e-35 3.26577e-14 1.28958e-07 5.20252e-22 1.541e-23
1430.51 1.12085e-21 1.12085e-21 3.3138e-35 2.9565e-14 3.60594e-06 3.89821e-22 1.21693e-23
1503.94 1.01236e-21 1.01236e-21 2.71182e-35 2.6787e-14 -2.99241e-06 2.91636e-22 9.58394e-24
1581.14 9.18549e-22 9.18549e-22 2.22048e-35 2.41738e-14 9.54892e-06 2.19043e-22 7.5686e-24
1662.3 8.32364e-22 8.32364e-22 1.81758e-35 2.18364e-14 -1.17087e-05 1.64213e-22 5.95865e-24
1747.63 7.53256e-22 7.53256e-22 1.4874e-35 1.97463e-14 -1.13317e-05 1.22876e-22 4.67647e-24
1837.33 6.8086e-22 6.8086e-22 1.2175e-35 1.78817e-14 -2.74267e-05 9.17877e-23 3.65933e-24
1931.64 6.14686e-22 6.14686e-22 9.96838e-36 1.6217e-14 1.29869e-05 6.84493e-23 2.85495e-24
2030.79 5.5843e-22 5.5843e-22 8.15903e-36 1.46107e-14 1.07973e-05 5.13419e-23 2.23747e-24
2135.03 5.15684e-22 5.15684e-22 6.6761e-36 1.29461e-14 -3.04731e-05 3.91273e-23 1.77937e-24
2244.63 4.75764e-22 4.75764e-22 5.46616e-36 1.14892e-14 -2.53762e-05 2.97784e-23 1.41133e-24
2359.84 4.3845e-22 4.3845e-22 4.47491e-36 1.02062e-14 -8.66619e-06 2.26293e-23 1.1163e-24
2480.97 4.03597e-22 4.03597e-22 3.66224e-36 9.074e-15 -3.91295e-05 1.71703e-23 8.80469e-25
2608.32 3.71097e-22 3.71097e-22 2.9972e-36 8.07659e-15 -2.82139e-06 1.30089e-23 6.92556e-25
2742.21 3.40866e-22 3.40866e-22 2.45426e-36 7.20007e-15 6.74103e-05 9.84277e-24 5.43323e-25
