# 4.3758e-08 3 2 : grain size, compostion index, size index
# This grain was stochastically heated: Yes
# Heating and cooling timescale: 1.07093e+07 0.527671
# Ratio of heating to cooling to determine stochastic cutoff: 100
# Equilibrium emission is recorded even for those grains in the stochastic regime.
# Emission spectrum was computed for: 
# Type: IRSF
# Scale: 1
# Temperature: -1
# Wavelength  CExt  CAbs  CSca  Albedo G EqEmission StEmission
0.05 3.56095e-16 3.56072e-16 2.28093e-20 6.4054e-05 0.000418448 0 1.26402e-59
0.0525665 4.12395e-16 4.1237e-16 2.44539e-20 5.92973e-05 0.000372744 0 1.48771e-57
0.0552647 4.75876e-16 4.7585e-16 2.61952e-20 5.50462e-05 0.000331921 0 1.38266e-55
0.0581015 5.58851e-16 5.58824e-16 2.76305e-20 4.94417e-05 0.000295412 0 1.04845e-53
0.0610839 7.7412e-16 7.74091e-16 2.93728e-20 3.79435e-05 0.000260175 0 7.60147e-52
0.0642193 9.77742e-16 9.77709e-16 3.27172e-20 3.3462e-05 0.000225026 0 4.11622e-50
0.0675157 1.16969e-15 1.16965e-15 3.84316e-20 3.28563e-05 0.00018961 0 1.7467e-48
0.0709813 1.34356e-15 1.34352e-15 3.96482e-20 2.95099e-05 0.000158967 0 5.94431e-47
0.0746248 1.25539e-15 1.25536e-15 3.46e-20 2.75611e-05 0.000137131 0 1.38707e-45
0.0784553 9.87127e-16 9.871e-16 2.68289e-20 2.71788e-05 0.000122607 0 2.31581e-44
0.0824824 7.83619e-16 7.836e-16 1.88699e-20 2.40805e-05 0.000114627 0 3.34686e-43
0.0867162 6.56667e-16 6.56652e-16 1.45424e-20 2.21457e-05 0.000110079 0 4.41459e-42
0.0911674 5.73029e-16 5.73016e-16 1.21992e-20 2.1289e-05 0.000106902 0 5.29239e-41
0.095847 5.12293e-16 5.12284e-16 9.67926e-21 1.8894e-05 0.00011272 0 5.75152e-40
0.100767 4.49003e-16 4.48996e-16 6.6049e-21 1.47102e-05 0.000131469 0 5.5729e-39
0.105939 3.90903e-16 3.90899e-16 4.57654e-21 1.17076e-05 0.000141825 0 5.18178e-38
0.111377 3.3504e-16 3.35037e-16 2.79981e-21 8.35665e-06 0.000162313 0 5.0871e-37
0.117094 2.83895e-16 2.83894e-16 1.74586e-21 6.14966e-06 0.000148626 0 5.74591e-36
0.123105 2.38602e-16 2.38601e-16 1.13769e-21 4.76813e-06 0.000127508 0 7.17685e-35
0.129424 2.00713e-16 2.00712e-16 7.31901e-22 3.64651e-06 0.000107236 0 8.95291e-34
0.136067 1.82055e-16 1.82055e-16 4.74208e-22 2.60475e-06 9.07305e-05 0 1.11323e-32
0.143051 1.6531e-16 1.6531e-16 3.11484e-22 1.88424e-06 7.73951e-05 0 1.24097e-31
0.150394 1.56275e-16 1.56275e-16 2.12208e-22 1.35791e-06 6.60669e-05 0 1.27865e-30
0.158114 1.54612e-16 1.54612e-16 1.60491e-22 1.03802e-06 5.65748e-05 0 1.22469e-29
0.16623 1.60925e-16 1.60925e-16 1.4825e-22 9.21234e-07 4.86353e-05 0 1.10015e-28
0.174762 1.76517e-16 1.76517e-16 1.7863e-22 1.01197e-06 4.18185e-05 0 9.32965e-28
0.183733 2.04186e-16 2.04185e-16 2.5508e-22 1.24926e-06 3.56165e-05 0 7.5119e-27
0.193164 2.52991e-16 2.5299e-16 4.05179e-22 1.60156e-06 2.9638e-05 0 5.86186e-26
0.203079 3.31389e-16 3.31388e-16 6.18327e-22 1.86587e-06 2.37668e-05 0 4.39676e-25
0.213503 4.07796e-16 4.07795e-16 7.58631e-22 1.86032e-06 1.82791e-05 0 2.82989e-24
0.224463 3.91064e-16 3.91063e-16 6.30166e-22 1.61142e-06 1.35334e-05 0 1.30225e-23
0.235984 3.02074e-16 3.02074e-16 4.27435e-22 1.415e-06 9.6588e-06 0 4.44726e-23
0.248097 2.28197e-16 2.28196e-16 2.76655e-22 1.21235e-06 7.39896e-06 0 1.37396e-22
0.260832 1.82736e-16 1.82736e-16 1.89994e-22 1.03972e-06 7.69957e-06 0 4.17814e-22
0.274221 1.55516e-16 1.55516e-16 1.37038e-22 8.81178e-07 1.02959e-05 0 1.25835e-21
0.288297 1.38536e-16 1.38536e-16 1.02141e-22 7.37292e-07 1.38132e-05 0 3.70959e-21
0.303095 1.2552e-16 1.2552e-16 7.87092e-23 6.27062e-07 1.54875e-05 0 1.04352e-20
0.318653 1.09681e-16 1.09681e-16 6.12884e-23 5.58786e-07 1.61593e-05 0 2.66425e-20
0.335009 9.63899e-17 9.63898e-17 4.82743e-23 5.00824e-07 1.58905e-05 0 6.45709e-20
0.352205 8.41209e-17 8.41209e-17 3.84925e-23 4.57585e-07 1.50778e-05 0 1.47094e-19
0.370284 7.28179e-17 7.28179e-17 3.09643e-23 4.2523e-07 1.40959e-05 0 3.15418e-19
0.389291 6.2394e-17 6.2394e-17 2.51001e-23 4.02283e-07 1.31418e-05 0 6.36964e-19
0.409273 5.26597e-17 5.26597e-17 2.04072e-23 3.87529e-07 1.22156e-05 0 1.20831e-18
0.430281 4.29533e-17 4.29533e-17 1.66082e-23 3.86656e-07 1.13356e-05 0 2.11743e-18
0.452368 3.16503e-17 3.16503e-17 1.35144e-23 4.2699e-07 1.04268e-05 0 3.21091e-18
0.475588 2.19358e-17 2.19358e-17 1.10042e-23 5.01655e-07 9.55638e-06 0 4.39599e-18
0.5 1.76101e-17 1.76101e-17 8.98383e-24 5.10153e-07 8.72135e-06 2.84389e-298 6.70467e-18
0.525665 1.36629e-17 1.36629e-17 7.34228e-24 5.37387e-07 7.93183e-06 5.67485e-284 9.5222e-18
0.552647 8.52709e-18 8.52709e-18 6.00292e-24 7.03982e-07 7.2126e-06 1.78056e-270 1.05003e-17
0.581015 5.35598e-18 5.35598e-18 4.93179e-24 9.20801e-07 6.54424e-06 1.19045e-257 1.1267e-17
0.610839 3.54901e-18 3.549e-18 4.05297e-24 1.142e-06 5.9388e-06 1.91763e-245 1.23509e-17
0.642193 2.14711e-18 2.14711e-18 3.33019e-24 1.55101e-06 5.38958e-06 6.9222e-234 1.19893e-17
0.675157 1.53936e-18 1.53935e-18 2.73944e-24 1.7796e-06 4.89349e-06 7.78427e-223 1.33961e-17
0.709813 1.20317e-18 1.20317e-18 2.2573e-24 1.87612e-06 4.44856e-06 2.67779e-212 1.5872e-17
0.746248 7.80608e-19 7.80606e-19 1.86035e-24 2.3832e-06 4.05103e-06 2.28319e-202 1.52035e-17
0.784553 4.81238e-19 4.81236e-19 1.53272e-24 3.18495e-06 3.68994e-06 5.85797e-193 1.34951e-17
0.824824 3.68887e-19 3.68885e-19 1.26251e-24 3.42249e-06 3.36596e-06 6.26005e-184 1.45426e-17
0.867162 3.11893e-19 3.11892e-19 1.04032e-24 3.33551e-06 3.07444e-06 2.60753e-175 1.68975e-17
0.911674 2.71069e-19 2.71068e-19 8.56775e-25 3.16073e-06 2.81069e-06 4.15071e-167 1.97511e-17
0.95847 2.37327e-19 2.37326e-19 7.05029e-25 2.97071e-06 2.57428e-06 2.59712e-159 2.27847e-17
1.00767 2.07837e-19 2.07837e-19 5.802e-25 2.79161e-06 2.35968e-06 6.64028e-152 2.57833e-17
1.05939 1.81731e-19 1.8173e-19 4.77272e-25 2.62626e-06 2.16499e-06 7.23471e-145 2.85971e-17
1.11377 1.58344e-19 1.58344e-19 3.92482e-25 2.47866e-06 1.98777e-06 3.49445e-138 3.10557e-17
1.17094 1.37733e-19 1.37733e-19 3.22616e-25 2.34232e-06 1.82234e-06 7.7989e-132 3.31111e-17
1.23105 1.19549e-19 1.19549e-19 2.65309e-25 2.21925e-06 1.6709e-06 8.3472e-126 3.46732e-17
1.29424 1.03553e-19 1.03553e-19 2.18251e-25 2.10762e-06 1.53155e-06 4.44074e-120 3.56938e-17
1.36067 8.95862e-20 8.95861e-20 1.79436e-25 2.00294e-06 1.40443e-06 1.21593e-114 3.61782e-17
1.43051 7.74933e-20 7.74931e-20 1.47455e-25 1.90281e-06 1.28895e-06 1.77197e-109 3.61707e-17
1.50394 6.71678e-20 6.71677e-20 1.21218e-25 1.8047e-06 1.18203e-06 1.42035e-104 3.57722e-17
1.58114 5.83777e-20 5.83776e-20 9.96508e-26 1.707e-06 1.08246e-06 6.45276e-100 3.50432e-17
1.6623 5.09106e-20 5.09105e-20 8.19296e-26 1.60928e-06 9.89795e-07 1.70964e-95 3.40472e-17
1.74762 4.45674e-20 4.45673e-20 6.73667e-26 1.51157e-06 9.06557e-07 2.71362e-91 3.28393e-17
1.83733 3.92383e-20 3.92383e-20 5.53867e-26 1.41154e-06 8.30689e-07 2.65123e-87 3.15216e-17
1.93164 3.47618e-20 3.47618e-20 4.55197e-26 1.30947e-06 7.60708e-07 1.63396e-83 3.01407e-17
2.03079 3.10319e-20 3.10319e-20 3.74018e-26 1.20527e-06 6.95633e-07 6.5079e-80 2.87637e-17
2.13503 2.79105e-20 2.79105e-20 3.07556e-26 1.10194e-06 6.36578e-07 1.71167e-76 2.7404e-17
2.24463 2.52877e-20 2.52876e-20 2.52789e-26 9.99654e-07 5.82655e-07 3.0341e-73 2.60712e-17
2.35984 2.31167e-20 2.31167e-20 2.07696e-26 8.98468e-07 5.32721e-07 3.7026e-70 2.48168e-17
2.48097 2.13302e-20 2.13302e-20 1.70616e-26 7.99881e-07 4.86989e-07 3.17057e-67 2.36537e-17
2.60832 1.9889e-20 1.9889e-20 1.40275e-26 7.05287e-07 4.44238e-07 1.9414e-64 2.2608e-17
2.74221 1.88204e-20 1.88204e-20 1.15289e-26 6.12577e-07 4.05077e-07 8.68224e-62 2.17681e-17
2.88297 1.83834e-20 1.83834e-20 9.46816e-27 5.15039e-07 3.70906e-07 2.93117e-59 2.14826e-17
3.03095 1.9832e-20 1.9832e-20 7.77707e-27 3.92148e-07 3.38264e-07 8.11598e-57 2.32566e-17
3.18653 4.06241e-20 4.06241e-20 6.38909e-27 1.57274e-07 3.08926e-07 3.21494e-54 4.7495e-17
3.35009 1.58823e-19 1.58823e-19 5.2471e-27 3.30373e-08 2.82264e-07 1.85689e-51 1.83968e-16
3.52205 2.05087e-20 2.05087e-20 4.30719e-27 2.10018e-07 2.57196e-07 2.74195e-50 2.33945e-17
3.70284 1.54147e-20 1.54147e-20 3.53718e-27 2.29469e-07 2.3519e-07 1.84716e-48 1.72168e-17
3.89291 1.40297e-20 1.40297e-20 2.90376e-27 2.06972e-07 2.14765e-07 1.19519e-46 1.52583e-17
4.09273 1.35618e-20 1.35618e-20 2.38345e-27 1.75747e-07 1.94519e-07 6.58875e-45 1.4286e-17
4.30281 1.35961e-20 1.35961e-20 1.95597e-27 1.43863e-07 1.77367e-07 3.05455e-43 1.38019e-17
4.52368 1.41547e-20 1.41547e-20 1.60565e-27 1.13436e-07 1.60234e-07 1.20471e-41 1.37802e-17
4.75588 1.55714e-20 1.55714e-20 1.31756e-27 8.46141e-08 1.46432e-07 4.15323e-40 1.44715e-17
5 1.96227e-20 1.96227e-20 1.08084e-27 5.50813e-08 1.30225e-07 1.36944e-38 1.73329e-17
5.25665 4.91211e-20 4.91211e-20 8.86861e-28 1.80546e-08 1.18378e-07 7.55543e-37 4.10682e-17
5.52648 4.17014e-20 4.17014e-20 7.27645e-28 1.7449e-08 1.07592e-07 1.20073e-35 3.2871e-17
5.81015 6.95632e-20 6.95632e-20 5.96632e-28 8.57684e-09 9.60811e-08 3.21044e-34 5.15072e-17
6.10839 2.28091e-19 2.28091e-19 4.89078e-28 2.14422e-09 8.65576e-08 1.45559e-32 1.58099e-16
6.42193 1.51777e-19 1.51777e-19 4.0091e-28 2.64145e-09 7.86003e-08 1.16383e-31 9.81673e-17
6.75157 1.25411e-19 1.25411e-19 3.28683e-28 2.62084e-09 6.91438e-08 1.01097e-30 7.54667e-17
7.09813 1.44799e-19 1.44799e-19 2.69316e-28 1.85992e-09 6.10193e-08 1.0807e-29 8.08474e-17
7.46248 3.4574e-19 3.4574e-19 2.20606e-28 6.38068e-10 5.55584e-08 2.11698e-28 1.78673e-16
7.84553 4.41447e-19 4.41447e-19 1.80772e-28 4.09499e-10 4.94434e-08 1.97675e-27 2.10687e-16
8.24824 2.16853e-19 2.16853e-19 1.48082e-28 6.82866e-10 4.82686e-08 6.36558e-27 9.53941e-17
8.67162 2.26104e-19 2.26104e-19 1.21222e-28 5.36134e-10 4.1821e-08 3.92114e-26 9.15204e-17
9.11674 5.94236e-20 5.94236e-20 9.92335e-29 1.66993e-09 3.51441e-08 5.51463e-26 2.20998e-17
9.5847 3.73103e-20 3.73103e-20 8.12004e-29 2.17636e-09 3.19737e-08 1.68645e-25 1.27335e-17
10.0767 3.28325e-20 3.28325e-20 6.64156e-29 2.02286e-09 2.85311e-08 6.60924e-25 1.02729e-17
10.5939 4.01698e-20 4.01698e-20 5.4282e-29 1.35131e-09 2.16651e-08 3.30733e-24 1.15141e-17
11.1377 2.03217e-19 2.03217e-19 4.43313e-29 2.18148e-10 1.1064e-08 6.31091e-23 5.33346e-17
11.7094 1.02414e-19 1.02414e-19 3.65423e-29 3.56811e-10 1.40901e-08 1.11067e-22 2.46031e-17
12.3105 1.03271e-19 1.03271e-19 2.97127e-29 2.87714e-10 2.06058e-08 3.63482e-22 2.27063e-17
12.9424 8.19513e-20 8.19513e-20 2.42619e-29 2.96053e-10 -4.74244e-09 8.73091e-22 1.64923e-17
13.6067 5.88522e-20 5.88522e-20 1.98116e-29 3.36632e-10 1.74519e-09 1.77615e-21 1.08429e-17
14.3051 3.928e-20 3.928e-20 1.61647e-29 4.11524e-10 -2.01474e-09 3.15292e-21 6.62774e-18
15.0394 3.14395e-20 3.14395e-20 1.31813e-29 4.19261e-10 -4.21247e-09 6.32116e-21 4.86053e-18
15.8114 3.15727e-20 3.15727e-20 1.07483e-29 3.4043e-10 -1.59097e-08 1.50187e-20 4.47482e-18
16.623 4.23423e-20 4.23423e-20 8.76277e-30 2.06951e-10 -1.25478e-08 4.51367e-20 5.50504e-18
17.4762 3.64959e-20 3.64959e-20 7.14026e-30 1.95646e-10 -1.66229e-09 8.2797e-20 4.35549e-18
18.3733 2.48264e-20 2.48264e-20 5.81508e-30 2.3423e-10 -1.72417e-08 1.14125e-19 2.72146e-18
19.3164 2.1226e-20 2.1226e-20 4.74192e-30 2.23401e-10 -2.48512e-09 1.8869e-19 2.13863e-18
20.3079 1.84957e-20 1.84957e-20 3.86927e-30 2.09199e-10 1.23581e-08 3.0414e-19 1.71392e-18
21.3503 1.64409e-20 1.64409e-20 3.16059e-30 1.9224e-10 -2.12827e-08 4.79405e-19 1.402e-18
22.4463 1.48239e-20 1.48239e-20 2.59006e-30 1.74722e-10 1.3498e-08 7.3631e-19 1.16389e-18
23.5984 1.35608e-20 1.35608e-20 2.1352e-30 1.57454e-10 1.53001e-08 1.10434e-18 9.80757e-19
24.8097 1.26065e-20 1.26065e-20 1.77544e-30 1.40834e-10 -1.40339e-08 1.6231e-18 8.4015e-19
26.0832 1.19254e-20 1.19254e-20 1.49539e-30 1.25395e-10 -5.09289e-08 2.34495e-18 7.32563e-19
27.4221 1.14551e-20 1.14551e-20 1.27694e-30 1.11473e-10 -9.88854e-09 3.32877e-18 6.48735e-19
28.8297 1.10848e-20 1.10848e-20 1.10877e-30 1.00026e-10 -2.61394e-08 4.61367e-18 5.78824e-19
30.3095 1.07324e-20 1.07324e-20 9.74621e-31 9.08113e-11 -3.07026e-08 6.21054e-18 5.16758e-19
31.8653 1.01915e-20 1.01915e-20 8.56317e-31 8.40225e-11 -3.6573e-08 7.97063e-18 4.52471e-19
33.5009 9.51522e-21 9.51522e-21 7.51087e-31 7.89353e-11 -1.16614e-08 9.79039e-18 3.89487e-19
35.2206 8.58672e-21 8.58672e-21 6.43225e-31 7.49092e-11 -2.74481e-08 1.13297e-17 3.24013e-19
37.0284 7.60043e-21 7.60043e-21 5.4408e-31 7.15854e-11 -3.68127e-08 1.25506e-17 2.64334e-19
38.9291 6.61531e-21 6.61531e-21 4.51985e-31 6.83241e-11 8.97605e-08 1.33584e-17 2.12006e-19
40.9273 5.70918e-21 5.70918e-21 3.71857e-31 6.51331e-11 -9.26052e-08 1.37911e-17 1.68557e-19
43.0282 4.91641e-21 4.91641e-21 3.03367e-31 6.17051e-11 -3.63898e-08 1.39124e-17 1.33684e-19
45.2368 4.2327e-21 4.2327e-21 2.4666e-31 5.82749e-11 5.52163e-09 1.37551e-17 1.05972e-19
47.5588 3.66235e-21 3.66235e-21 2.00054e-31 5.46247e-11 9.12144e-09 1.34118e-17 8.44012e-20
50 3.17397e-21 3.17397e-21 1.62282e-31 5.11292e-11 -2.48582e-08 1.28651e-17 6.73114e-20
52.5665 2.76484e-21 2.76484e-21 1.31563e-31 4.75846e-11 -4.16949e-09 1.21943e-17 5.39427e-20
55.2648 2.41784e-21 2.41784e-21 1.0668e-31 4.41221e-11 1.15738e-07 1.14172e-17 4.33865e-20
58.1015 2.12291e-21 2.12291e-21 8.66228e-32 4.08038e-11 8.13484e-08 1.05692e-17 3.50278e-20
61.0839 1.86998e-21 1.86998e-21 7.03648e-32 3.76287e-11 8.28284e-08 9.67378e-18 2.83639e-20
64.2193 1.65174e-21 1.65174e-21 5.71812e-32 3.46189e-11 1.01482e-07 8.75698e-18 2.30259e-20
67.5157 1.46324e-21 1.46324e-21 4.65042e-32 3.17817e-11 1.21107e-07 7.84698e-18 1.87431e-20
70.9813 1.29948e-21 1.29948e-21 3.78579e-32 2.91331e-11 7.98472e-08 6.96235e-18 1.52915e-20
74.6248 1.1564e-21 1.1564e-21 3.08277e-32 2.66582e-11 1.35396e-07 6.11799e-18 1.24982e-20
78.4553 1.03093e-21 1.03093e-21 2.51085e-32 2.43553e-11 1.73138e-07 5.3264e-18 1.02312e-20
82.4824 9.2079e-22 9.2079e-22 2.04688e-32 2.22296e-11 8.88991e-08 4.59762e-18 8.3893e-21
86.7162 8.23912e-22 8.23912e-22 1.6693e-32 2.02607e-11 5.50971e-08 3.93671e-18 6.8898e-21
91.1674 7.38265e-22 7.38265e-22 1.3615e-32 1.84419e-11 1.28709e-07 3.3443e-18 5.66486e-21
95.847 6.62369e-22 6.62369e-22 1.11058e-32 1.67667e-11 -3.29655e-07 2.81984e-18 4.66242e-21
100.767 5.95213e-22 5.95213e-22 9.06721e-33 1.52336e-11 3.56083e-07 2.36178e-18 3.84229e-21
105.939 5.36143e-22 5.36143e-22 7.40212e-33 1.38062e-11 8.80102e-08 1.9675e-18 3.17299e-21
111.377 4.83811e-22 4.83811e-22 6.04201e-33 1.24884e-11 1.974e-07 1.63005e-18 2.62411e-21
117.094 4.38184e-22 4.38184e-22 4.93394e-33 1.126e-11 2.90382e-07 1.34613e-18 2.1773e-21
123.105 3.98832e-22 3.98832e-22 4.03237e-33 1.01105e-11 5.9743e-07 1.11e-18 1.81481e-21
129.424 3.64524e-22 3.64524e-22 3.29843e-33 9.04859e-12 -2.38717e-07 9.13541e-19 1.5183e-21
136.067 3.33103e-22 3.33103e-22 2.70024e-33 8.10632e-12 1.14072e-07 7.47435e-19 1.26938e-21
143.051 3.01408e-22 3.01408e-22 2.21374e-33 7.34464e-12 2.69053e-07 6.02316e-19 1.05035e-21
150.394 2.70617e-22 2.70617e-22 1.81436e-33 6.70454e-12 -6.51037e-07 4.79204e-19 8.6191e-22
158.114 2.41588e-22 2.41588e-22 1.48485e-33 6.14619e-12 -8.17077e-07 3.77307e-19 7.02849e-22
166.23 2.15614e-22 2.15614e-22 1.2144e-33 5.6323e-12 5.88755e-07 2.95688e-19 5.72634e-22
174.763 1.92622e-22 1.92622e-22 9.93624e-34 5.15841e-12 6.43648e-07 2.30997e-19 4.66707e-22
183.733 1.72823e-22 1.72823e-22 8.12588e-34 4.70186e-12 9.39362e-07 1.80534e-19 3.81755e-22
193.164 1.55176e-22 1.55176e-22 6.64377e-34 4.28144e-12 -1.15196e-06 1.40689e-19 3.12282e-22
203.079 1.39542e-22 1.39542e-22 5.43312e-34 3.89354e-12 -1.36181e-06 1.0943e-19 2.55651e-22
213.503 1.25805e-22 1.25805e-22 4.44487e-34 3.53314e-12 8.52046e-07 8.5063e-20 2.09667e-22
224.463 1.13399e-22 1.13399e-22 3.63563e-34 3.20604e-12 2.13628e-06 6.59113e-20 1.71785e-22
235.984 1.02193e-22 1.02193e-22 2.97309e-34 2.90928e-12 -6.20956e-07 5.09162e-20 1.406e-22
248.097 9.20924e-23 9.20924e-23 2.43262e-34 2.64149e-12 1.45598e-06 3.92278e-20 1.14975e-22
260.832 8.31645e-23 8.31645e-23 1.99051e-34 2.39347e-12 1.61283e-06 3.02113e-20 9.41348e-23
274.221 7.51025e-23 7.51025e-23 1.62838e-34 2.1682e-12 -7.62957e-07 2.32133e-20 7.70029e-23
288.297 6.77952e-23 6.77952e-23 1.33196e-34 1.96468e-12 1.93434e-06 1.77903e-20 6.29047e-23
303.095 6.12139e-23 6.12139e-23 1.09022e-34 1.781e-12 -4.5484e-07 1.36097e-20 5.13508e-23
318.653 5.53352e-23 5.53352e-23 8.92156e-35 1.61228e-12 1.71575e-07 1.04034e-20 4.19255e-23
335.009 4.99967e-23 4.99967e-23 7.29894e-35 1.45988e-12 -2.19437e-06 7.93421e-21 3.41785e-23
352.206 4.51574e-23 4.51574e-23 5.97269e-35 1.32264e-12 5.28287e-06 6.03864e-21 2.78235e-23
370.284 4.0835e-23 4.0835e-23 4.8889e-35 1.19723e-12 2.40208e-08 4.59407e-21 2.26525e-23
389.291 3.69152e-23 3.69152e-23 4.00076e-35 1.08377e-12 -8.32908e-06 3.48876e-21 1.8416e-23
409.273 3.33551e-23 3.33551e-23 3.27322e-35 9.81323e-13 4.08427e-06 2.64432e-21 1.49471e-23
430.282 3.0172e-23 3.0172e-23 2.67932e-35 8.88017e-13 -6.95469e-06 2.00382e-21 1.21305e-23
452.368 2.72898e-23 2.72898e-23 2.19313e-35 8.03643e-13 -2.33473e-06 1.51641e-21 9.83146e-24
475.588 2.46705e-23 2.46705e-23 1.79468e-35 7.27462e-13 -7.15747e-06 1.14561e-21 7.95394e-24
500 2.22927e-23 2.22927e-23 1.46846e-35 6.5872e-13 7.54082e-06 8.64142e-22 6.42363e-24
525.665 2.01885e-23 2.01885e-23 1.20226e-35 5.95518e-13 -1.15797e-06 6.52579e-22 5.19214e-24
552.648 1.8274e-23 1.8274e-23 9.84055e-36 5.38501e-13 -5.39038e-06 4.92079e-22 4.18879e-24
581.015 1.65326e-23 1.65326e-23 8.0524e-36 4.87063e-13 -1.44296e-05 3.70521e-22 3.37276e-24
610.838 1.49515e-23 1.49515e-23 6.59066e-36 4.40801e-13 3.29363e-06 2.78641e-22 2.71067e-24
642.193 1.3517e-23 1.3517e-23 5.39555e-36 3.99169e-13 -2.40547e-07 2.09297e-22 2.17449e-24
675.157 1.22138e-23 1.22138e-23 4.41595e-36 3.61554e-13 -6.6498e-06 1.57006e-22 1.74076e-24
709.813 1.10402e-23 1.10402e-23 3.61332e-36 3.27287e-13 -1.03004e-05 1.17735e-22 1.39184e-24
746.247 9.99935e-24 9.99935e-24 2.95816e-36 2.95835e-13 -1.99056e-05 8.84007e-23 1.11326e-24
784.553 9.05255e-24 9.05255e-24 2.42162e-36 2.67507e-13 -8.82961e-06 6.63014e-23 8.88577e-25
824.824 8.19126e-24 8.19126e-24 1.9819e-36 2.41954e-13 1.44063e-05 4.96707e-23 7.07693e-25
867.162 7.40847e-24 7.40847e-24 1.62185e-36 2.18918e-13 4.17866e-05 3.71723e-23 5.62411e-25
911.674 6.69877e-24 6.69877e-24 1.32788e-36 1.98227e-13 6.56391e-07 2.77961e-23 4.4607e-25
958.471 6.05394e-24 6.05394e-24 1.08697e-36 1.79547e-13 3.33218e-05 2.07631e-23 3.52998e-25
1007.67 5.47045e-24 5.47045e-24 8.89464e-37 1.62594e-13 -7.74651e-06 1.54999e-23 2.78822e-25
1059.39 4.95129e-24 4.95129e-24 7.28035e-37 1.47039e-13 -4.01419e-05 1.15842e-23 2.20206e-25
1113.77 4.47979e-24 4.47979e-24 5.96079e-37 1.33059e-13 3.55895e-06 8.65082e-24 1.73545e-25
1170.94 4.05113e-24 4.05113e-24 4.87851e-37 1.20424e-13 -3.59329e-05 6.45415e-24 1.36463e-25
1231.05 3.66352e-24 3.66352e-24 3.99216e-37 1.08971e-13 -4.01373e-06 4.8134e-24 1.07118e-25
1294.24 3.31625e-24 3.31625e-24 3.26833e-37 9.8555e-14 -6.43352e-05 3.59193e-24 8.40215e-26
1360.67 3.00093e-24 3.00093e-24 2.67578e-37 8.9165e-14 2.37745e-05 2.67858e-24 6.57708e-26
1430.51 2.71423e-24 2.71423e-24 2.18998e-37 8.06851e-14 6.10521e-05 1.99579e-24 5.13716e-26
1503.94 2.45414e-24 2.45414e-24 1.792e-37 7.30196e-14 -2.9068e-05 1.48609e-24 4.00453e-26
1581.14 2.2226e-24 2.2226e-24 1.46736e-37 6.60198e-14 1.23476e-05 1.10804e-24 3.12161e-26
1662.3 2.01194e-24 2.01194e-24 1.20109e-37 5.96979e-14 -2.83663e-05 8.25525e-25 2.42828e-26
1747.63 1.82033e-24 1.82033e-24 9.82909e-38 5.39961e-14 -2.11734e-05 6.1456e-25 1.88499e-26
1837.33 1.6464e-24 1.6464e-24 8.04563e-38 4.88681e-14 -1.55154e-05 4.5723e-25 1.46048e-26
1931.64 1.48854e-24 1.48854e-24 6.58719e-38 4.42527e-14 -1.65743e-05 3.3997e-25 1.12943e-26
2030.79 1.34859e-24 1.34859e-24 5.39143e-38 3.99783e-14 -4.23297e-05 2.53242e-25 8.73917e-27
2135.03 1.22853e-24 1.22853e-24 4.41221e-38 3.59146e-14 8.25678e-05 1.89636e-25 6.78934e-27
2244.63 1.11903e-24 1.11903e-24 3.61269e-38 3.22841e-14 0.0001175 1.4196e-25 5.26639e-27
2359.84 1.01896e-24 1.01896e-24 2.95734e-38 2.90233e-14 5.10052e-05 1.06214e-25 4.07796e-27
2480.97 9.2748e-25 9.2748e-25 2.42029e-38 2.60953e-14 2.82391e-05 7.94229e-26 3.15215e-27
2608.32 8.43924e-25 8.43924e-25 1.9808e-38 2.34713e-14 9.361e-05 5.93587e-26 2.43239e-27
