# 0.00480947 4 113 : grain size, compostion index, size index
# This grain was stochastically heated: No
# Heating and cooling timescale: 1.13709e-06 inf
# Ratio of heating to cooling to determine stochastic cutoff: 100
# Equilibrium emission is recorded even for those grains in the stochastic regime.
# Emission spectrum was computed for: 
# Type: IRSF
# Scale: 1
# Temperature: -1
# Wavelength  CExt  CAbs  CSca  Albedo G EqEmission StEmission
0.05 0.000145742 6.16985e-05 8.40438e-05 0.57666 0.931606 0 0
0.0525665 0.000145758 6.11592e-05 8.45986e-05 0.580405 0.925779 0 0
0.0552647 0.000145774 6.0265e-05 8.55091e-05 0.586587 0.916865 0 0
0.0581015 0.000145793 5.89093e-05 8.68836e-05 0.595938 0.903003 0 0
0.0610839 0.000145814 5.75408e-05 8.82728e-05 0.605381 0.887461 0 0
0.0642193 0.000145836 5.65809e-05 8.92547e-05 0.612023 0.874817 0 0
0.0675157 0.000145858 5.60346e-05 8.98235e-05 0.615828 0.865893 0 0
0.0709813 0.000145881 5.58251e-05 9.00564e-05 0.617325 0.860262 0 0
0.0746248 0.000145904 5.58962e-05 9.00082e-05 0.616898 0.857514 0 0
0.0784553 0.000145928 5.6285e-05 8.96428e-05 0.614295 0.858151 0 0
0.0824824 0.000145951 5.71249e-05 8.88256e-05 0.608601 0.863717 0 0
0.0867162 0.000145971 5.74754e-05 8.84959e-05 0.606255 0.8667 0 0
0.0911674 0.000145997 5.69525e-05 8.90441e-05 0.609905 0.860138 0 0
0.095847 0.000146023 5.687e-05 8.91532e-05 0.610541 0.85682 0 0
0.100767 0.000146049 5.70311e-05 8.90176e-05 0.609506 0.856344 0 0
0.105939 0.000146073 5.76e-05 8.84733e-05 0.605677 0.860283 0 0
0.111377 0.000146097 5.81895e-05 8.79072e-05 0.601705 0.865378 0 0
0.117094 0.000146122 5.85725e-05 8.75492e-05 0.599153 0.86857 0 0
0.123105 0.000146148 5.88317e-05 8.73158e-05 0.59745 0.870579 0 0
0.129424 0.000146174 5.89889e-05 8.71855e-05 0.596449 0.871554 0 0
0.136067 0.000146202 5.90327e-05 8.71693e-05 0.596225 0.871306 0 0
0.143051 0.000146231 5.88976e-05 8.73337e-05 0.59723 0.868959 0 0
0.150394 0.000146258 5.90981e-05 8.71595e-05 0.595932 0.8702 0 0
0.158114 0.000146284 5.97258e-05 8.65578e-05 0.591712 0.876695 0 0
0.16623 0.000146311 6.04398e-05 8.58712e-05 0.586909 0.884583 0 0
0.174762 0.000146341 6.10728e-05 8.52687e-05 0.582669 0.891743 0 0
0.183733 0.000146374 6.16342e-05 8.47397e-05 0.578926 0.898147 0 0
0.193164 0.000146408 6.211e-05 8.42979e-05 0.575774 0.903584 0 0
0.203079 0.000146444 6.2516e-05 8.39277e-05 0.573105 0.908208 0 0
0.213503 0.000146481 6.28751e-05 8.36061e-05 0.570763 0.912275 0 0
0.224463 0.000146519 6.31758e-05 8.33436e-05 0.568823 0.915644 0 0
0.235984 0.00014656 6.34142e-05 8.31456e-05 0.567315 0.918267 0 0
0.248097 0.000146601 6.35986e-05 8.30021e-05 0.566178 0.920243 0 0
0.260832 0.000146644 6.37505e-05 8.28932e-05 0.565269 0.921824 0 0
0.274221 0.000146688 6.38816e-05 8.28063e-05 0.564507 0.92315 0 0
0.288297 0.000146733 6.39947e-05 8.27387e-05 0.563871 0.924251 0 0
0.303095 0.000146781 6.40932e-05 8.26874e-05 0.56334 0.925169 0 0
0.318653 0.000146829 6.41821e-05 8.26472e-05 0.56288 0.925962 0 0
0.335009 0.00014688 6.42616e-05 8.26182e-05 0.562488 0.926635 0 0
0.352205 0.000146932 6.43354e-05 8.25964e-05 0.562141 0.927226 0 0
0.370284 0.000146986 6.44041e-05 8.25816e-05 0.561834 0.927745 0 0
0.389291 0.000147042 6.4466e-05 8.25757e-05 0.56158 0.928171 0 0
0.409273 0.000147099 6.45238e-05 8.25756e-05 0.561359 0.928533 0 0
0.430281 0.000147158 6.45808e-05 8.25776e-05 0.561147 0.928873 0 0
0.452368 0.00014722 6.46323e-05 8.25875e-05 0.560981 0.929132 0 0
0.475588 0.000147284 6.46828e-05 8.2601e-05 0.560829 0.929365 0 0
0.5 0.000147349 6.47324e-05 8.2617e-05 0.560688 0.929569 0 0
0.525665 0.000147417 6.47816e-05 8.26357e-05 0.560556 0.929751 0 0
0.552647 0.000147487 6.48323e-05 8.26552e-05 0.560422 0.929932 0 0
0.581015 0.00014756 6.4877e-05 8.2683e-05 0.560335 0.930026 0 0
0.610839 0.000147635 6.49238e-05 8.27108e-05 0.56024 0.930124 0 0
0.642193 0.000147712 6.49728e-05 8.27396e-05 0.56014 0.930226 0 0
0.675157 0.000147792 6.50214e-05 8.27709e-05 0.560049 0.930303 0 0
0.709813 0.000147875 6.50702e-05 8.28048e-05 0.559965 0.930359 0 0
0.746248 0.000147961 6.51207e-05 8.28398e-05 0.559878 0.930411 0 0
0.784553 0.000148049 6.51735e-05 8.28752e-05 0.559784 0.930466 0 0
0.824824 0.00014814 6.52264e-05 8.29138e-05 0.559698 0.930496 0 0
0.867162 0.000148235 6.52801e-05 8.29544e-05 0.559616 0.930509 0 0
0.911674 0.000148332 6.53359e-05 8.29961e-05 0.559529 0.930518 0 0
0.95847 0.000148433 6.53936e-05 8.30394e-05 0.55944 0.93052 0 0
1.00767 0.000148537 6.54537e-05 8.30835e-05 0.559344 0.930521 0 0
1.05939 0.000148644 6.5517e-05 8.31275e-05 0.559237 0.930525 0 0
1.11377 0.000148756 6.5583e-05 8.3173e-05 0.559124 0.930528 0 0
1.17094 0.000148871 6.56527e-05 8.32178e-05 0.558995 0.93054 0 0
1.23105 0.00014899 6.57257e-05 8.32639e-05 0.558857 0.930553 0 0
1.29424 0.000149112 6.58029e-05 8.33095e-05 0.558703 0.930577 0 0
1.36067 0.000149239 6.58803e-05 8.3359e-05 0.558559 0.930565 0 0
1.43051 0.00014937 6.59643e-05 8.34056e-05 0.558383 0.930588 0 0
1.50394 0.000149506 6.60508e-05 8.34548e-05 0.558205 0.930599 0 0
1.58114 0.000149645 6.61412e-05 8.35042e-05 0.558014 0.930608 0 0
1.6623 0.00014979 6.6238e-05 8.35518e-05 0.557794 0.930645 0 0
1.74762 0.00014994 6.6339e-05 8.36006e-05 0.557562 0.930681 0 0
1.83733 0.000150094 6.6446e-05 8.36479e-05 0.557304 0.930735 0 0
1.93164 0.000150253 6.6558e-05 8.36954e-05 0.557028 0.930794 0 0
2.03079 0.000150419 6.6674e-05 8.37446e-05 0.556744 0.930845 0 0
2.13503 0.000150589 6.67973e-05 8.37914e-05 0.556426 0.930923 0 0
2.24463 0.000150765 6.69277e-05 8.3837e-05 0.556079 0.93102 0 0
2.35984 0.000150947 6.70642e-05 8.38826e-05 0.55571 0.931125 0 0
2.48097 0.000151134 6.72105e-05 8.39239e-05 0.555293 0.931273 0 0
2.60832 0.000151329 6.7363e-05 8.39661e-05 0.554858 0.931427 0 0
2.74221 0.00015153 6.75224e-05 8.40073e-05 0.554395 0.931586 0 0
2.88297 0.000151736 6.76943e-05 8.40418e-05 0.553868 0.931811 0 0
3.03095 0.00015195 6.78748e-05 8.40752e-05 0.553308 0.932054 0 0
3.18653 0.000152171 6.80646e-05 8.41068e-05 0.552711 0.932322 0 0
3.35009 0.000152401 6.82659e-05 8.4135e-05 0.552064 0.932633 0 0
3.52205 0.000152638 6.84813e-05 8.41565e-05 0.551348 0.933008 0 0
3.70284 0.000152883 6.87096e-05 8.41735e-05 0.550574 0.933435 0 0
3.89291 0.000153135 6.89538e-05 8.41807e-05 0.549718 0.933935 0 0
4.09273 0.000153392 6.92167e-05 8.41752e-05 0.548759 0.934533 1.75527e-291 0
4.30281 0.000153657 6.95004e-05 8.41566e-05 0.547691 0.935244 5.20999e-277 0
4.52368 0.000153939 6.98067e-05 8.41319e-05 0.546529 0.936085 3.00372e-263 0
4.75588 0.000154241 7.01382e-05 8.41025e-05 0.545268 0.937081 3.64374e-250 0
5 0.000154561 7.05041e-05 8.4057e-05 0.543843 0.938308 1.00377e-237 0
5.25665 0.000154873 7.09078e-05 8.39647e-05 0.542154 0.939772 6.75179e-226 0
5.52648 0.000155162 7.13485e-05 8.38137e-05 0.540168 0.941432 1.18749e-214 0
5.81015 0.000155465 7.18453e-05 8.36198e-05 0.537869 0.943492 5.83525e-204 0
6.10839 0.000155816 7.23968e-05 8.34188e-05 0.535369 0.945924 8.52198e-194 0
6.42193 0.000156207 7.30274e-05 8.31791e-05 0.532495 0.948921 3.92793e-184 0
6.75157 0.00015659 7.37916e-05 8.2798e-05 0.528758 0.952856 6.04606e-175 0
7.09813 0.000156966 7.47993e-05 8.21664e-05 0.523467 0.958536 3.28567e-166 0
7.46248 0.000157086 7.62165e-05 8.087e-05 0.514812 0.967213 6.64405e-158 0
7.84553 0.000155888 7.69172e-05 7.89706e-05 0.506586 0.97513 5.17274e-150 0
8.24824 0.000153858 7.39695e-05 7.98889e-05 0.519237 0.964792 1.56162e-142 0
8.67162 0.000154922 7.09223e-05 8.40001e-05 0.542208 0.94051 1.99931e-135 0
9.11674 0.000156971 6.71837e-05 8.97871e-05 0.571999 0.900958 1.12114e-128 0
9.5847 0.000159226 6.54608e-05 9.37649e-05 0.58888 0.869083 2.98398e-122 0
10.0767 0.000160551 6.54045e-05 9.51466e-05 0.592625 0.856062 3.9012e-116 0
10.5939 0.000161649 6.52753e-05 9.63736e-05 0.596191 0.843781 2.5307e-110 0
11.1377 0.000162134 6.60508e-05 9.60835e-05 0.592617 0.842862 8.55337e-105 0
11.7094 0.000162473 6.67921e-05 9.56814e-05 0.588905 0.843567 1.53359e-99 0
12.3105 0.000162685 6.77536e-05 9.49316e-05 0.58353 0.847365 1.51051e-94 0
12.9424 0.000162871 6.90297e-05 9.38411e-05 0.576169 0.854972 8.42527e-90 0
13.6067 0.00016312 7.07268e-05 9.23936e-05 0.566413 0.866975 2.7408e-85 0
14.3051 0.000163488 7.27389e-05 9.07487e-05 0.55508 0.88216 5.32918e-81 0
15.0394 0.000163941 7.3935e-05 9.00055e-05 0.549013 0.889645 6.25566e-77 0
15.8114 0.000164472 7.42677e-05 9.02039e-05 0.548446 0.888875 4.54009e-73 0
16.623 0.000165233 7.39e-05 9.13333e-05 0.552754 0.880899 2.08964e-69 0
17.4762 0.000166345 7.30647e-05 9.32805e-05 0.560765 0.867089 6.2519e-66 0
18.3733 0.000167714 7.20868e-05 9.56272e-05 0.57018 0.850492 1.24685e-62 0
19.3164 0.000169058 7.12873e-05 9.77712e-05 0.578327 0.834966 1.69781e-59 0
20.3079 0.000170081 7.0963e-05 9.91184e-05 0.58277 0.824277 1.61544e-56 0
21.3503 0.000170909 7.09773e-05 9.99312e-05 0.584706 0.817414 1.09124e-53 0
22.4463 0.000171687 7.10299e-05 0.000100657 0.586283 0.811172 5.3009e-51 0
23.5984 0.000172401 7.12379e-05 0.000101163 0.58679 0.806463 1.88471e-48 0
24.8097 0.000173124 7.14165e-05 0.000101708 0.587484 0.801538 4.96815e-46 0
26.0832 0.000173804 7.17058e-05 0.000102098 0.587434 0.797545 9.8704e-44 0
27.4221 0.000174475 7.19911e-05 0.000102484 0.587385 0.793481 1.49638e-41 0
28.8297 0.000175158 7.22925e-05 0.000102865 0.587272 0.789459 1.75437e-39 0
30.3095 0.000175843 7.26022e-05 0.000103241 0.587119 0.785377 1.61074e-37 0
31.8653 0.00017653 7.30022e-05 0.000103528 0.586461 0.781856 1.17329e-35 0
33.5009 0.000177222 7.33887e-05 0.000103834 0.585895 0.778042 6.84787e-34 0
35.2206 0.000177958 7.38664e-05 0.000104092 0.584924 0.774661 3.24205e-32 0
37.0284 0.000178708 7.43484e-05 0.000104359 0.583967 0.771035 1.25637e-30 0
38.9291 0.000179453 7.47982e-05 0.000104655 0.583187 0.767044 4.02256e-29 0
40.9273 0.000180219 7.52483e-05 0.000104971 0.582463 0.762761 1.07444e-27 0
43.0282 0.000180978 7.57578e-05 0.00010522 0.581398 0.758633 2.4175e-26 0
45.2368 0.000181766 7.6289e-05 0.000105477 0.580291 0.754412 4.61807e-25 0
47.5588 0.00018259 7.69184e-05 0.000105672 0.578737 0.750337 7.55775e-24 0
50 0.000183388 7.75065e-05 0.000105881 0.577363 0.745799 1.06573e-22 0
52.5665 0.000184269 7.81929e-05 0.000106076 0.57566 0.741476 1.30672e-21 0
55.2648 0.000185177 7.89507e-05 0.000106226 0.573647 0.737003 1.40216e-20 0
58.1015 0.000186048 7.96925e-05 0.000106356 0.571657 0.732076 1.32396e-19 0
61.0839 0.000187008 8.05051e-05 0.000106502 0.569509 0.727176 1.10808e-18 0
64.2193 0.000188055 8.14377e-05 0.000106617 0.566947 0.722278 8.2743e-18 0
67.5157 0.000189056 8.23798e-05 0.000106676 0.564256 0.716785 5.53583e-17 0
70.9813 0.000190103 8.32948e-05 0.000106808 0.561844 0.710845 3.33485e-16 0
74.6248 0.000191386 8.43317e-05 0.000107055 0.559364 0.705424 1.82134e-15 0
78.4553 0.000192778 8.54911e-05 0.000107287 0.55653 0.700321 9.06201e-15 0
82.4824 0.000194089 8.67376e-05 0.000107352 0.553105 0.694656 4.12448e-14 0
86.7162 0.000195103 8.80651e-05 0.000107038 0.548622 0.687529 1.72463e-13 0
91.1674 0.000195391 8.9276e-05 0.000106115 0.543092 0.677549 6.63801e-13 0
95.847 0.000195417 9.0411e-05 0.000105006 0.537344 0.663525 2.36228e-12 0
100.767 0.000196857 9.19744e-05 0.000104883 0.532786 0.648718 7.84574e-12 0
105.939 0.000199543 9.38078e-05 0.000105735 0.529887 0.639242 2.43592e-11 0
111.377 0.000202064 9.49484e-05 0.000107115 0.530107 0.630089 7.02212e-11 0
117.094 0.000205514 9.46311e-05 0.000110882 0.539538 0.612051 1.87094e-10 0
123.105 0.000211261 9.39129e-05 0.000117348 0.555465 0.598029 4.67349e-10 0
129.424 0.000217796 9.5191e-05 0.000122605 0.562936 0.60254 1.12596e-09 0
136.067 0.000221015 9.74034e-05 0.000123612 0.559291 0.608343 2.5933e-09 0
143.051 0.000217669 9.71499e-05 0.000120519 0.553681 0.588393 5.52783e-09 0
150.394 0.00021055 9.55412e-05 0.000115009 0.546231 0.554979 1.10593e-08 0
158.114 0.000199556 9.46503e-05 0.000104906 0.525696 0.527694 2.12675e-08 0
166.23 0.000188317 9.84149e-05 8.99024e-05 0.477399 0.501416 4.10533e-08 0
174.763 0.000185292 0.000106888 7.84041e-05 0.423139 0.44143 7.93371e-08 0
183.733 0.000197497 0.000116788 8.07089e-05 0.408659 0.371306 1.48144e-07 0
193.164 0.000204509 0.000114654 8.98555e-05 0.439372 0.349066 2.39188e-07 0
203.079 0.000180019 9.65963e-05 8.34224e-05 0.46341 0.326294 3.19541e-07 0
213.503 0.000166921 9.3818e-05 7.31029e-05 0.437949 0.336716 4.75314e-07 0
224.463 0.00019296 0.000113541 7.94186e-05 0.411581 0.391042 8.52378e-07 0
235.984 0.000256283 0.000142776 0.000113507 0.442898 0.356675 1.53911e-06 0
248.097 0.000296401 0.000127389 0.000169013 0.570216 0.242867 1.91386e-06 0
260.832 0.000325938 9.63183e-05 0.00022962 0.704489 0.159215 1.96022e-06 0
274.221 0.000342247 7.63597e-05 0.000265888 0.776887 0.0916529 2.04898e-06 0
288.297 0.000340572 6.72567e-05 0.000273316 0.802519 0.0381258 2.31912e-06 0
303.095 0.000341058 7.0706e-05 0.000270352 0.792686 0.00981873 3.05728e-06 0
318.653 0.000369082 9.28225e-05 0.000276259 0.748504 0.0371043 4.91731e-06 0
335.009 0.000431621 0.000135728 0.000295893 0.685539 0.16278 8.61662e-06 0
352.206 0.000402979 0.000143618 0.00025936 0.643608 0.362002 1.06991e-05 0
370.284 0.000248128 8.72708e-05 0.000160857 0.648283 0.481405 7.4782e-06 0
389.291 0.000145467 4.62441e-05 9.92224e-05 0.682098 0.480226 4.47231e-06 0
409.273 9.41366e-05 2.66266e-05 6.751e-05 0.71715 0.42706 2.85434e-06 0
430.282 6.61852e-05 1.70039e-05 4.91813e-05 0.743086 0.367469 1.98618e-06 0
452.368 4.87731e-05 1.1645e-05 3.71281e-05 0.761242 0.315038 1.45823e-06 0
475.588 3.70705e-05 8.47791e-06 2.85926e-05 0.771303 0.271412 1.12071e-06 0
500 2.86836e-05 6.39307e-06 2.22906e-05 0.777118 0.235386 8.79174e-07 0
525.665 2.25538e-05 5.01301e-06 1.75408e-05 0.777731 0.205613 7.07299e-07 0
552.648 1.78901e-05 4.01136e-06 1.38788e-05 0.775778 0.180583 5.73101e-07 0
581.015 1.43109e-05 3.28377e-06 1.10271e-05 0.770541 0.159329 4.69187e-07 0
610.838 1.15232e-05 2.72679e-06 8.79645e-06 0.763366 0.141162 3.85078e-07 0
642.193 9.34064e-06 2.29957e-06 7.04107e-06 0.75381 0.125508 3.17424e-07 0
675.157 7.6104e-06 1.96206e-06 5.64834e-06 0.742187 0.111872 2.61962e-07 0
709.813 6.23109e-06 1.69145e-06 4.53964e-06 0.728547 0.099926 2.16278e-07 0
746.247 5.12841e-06 1.47059e-06 3.65782e-06 0.713246 0.0894365 1.78407e-07 0
784.553 4.24005e-06 1.28816e-06 2.95189e-06 0.696193 0.0801667 1.46969e-07 0
824.824 3.52068e-06 1.13548e-06 2.3852e-06 0.677483 0.0719526 1.20829e-07 0
867.162 2.93444e-06 1.00476e-06 1.92968e-06 0.657597 0.0646518 9.89452e-08 0
911.674 2.4561e-06 8.92075e-07 1.56403e-06 0.636792 0.0581602 8.07015e-08 0
958.471 2.06476e-06 7.96032e-07 1.26873e-06 0.614468 0.0523655 6.56988e-08 0
1007.67 1.74145e-06 7.11624e-07 1.02983e-06 0.591362 0.0471739 5.3236e-08 0
1059.39 1.47721e-06 6.4047e-07 8.36739e-07 0.566433 0.0425164 4.31652e-08 0
1113.77 1.25723e-06 5.76711e-07 6.8052e-07 0.541285 0.0383406 3.48166e-08 0
1170.94 1.07285e-06 5.19183e-07 5.53665e-07 0.51607 0.0345864 2.7926e-08 0
1231.05 9.1898e-07 4.68293e-07 4.50687e-07 0.490421 0.0312167 2.23295e-08 0
1294.24 7.92584e-07 4.25332e-07 3.67252e-07 0.46336 0.0281861 1.7894e-08 0
1360.67 6.85802e-07 3.86446e-07 2.99356e-07 0.436506 0.0254545 1.42811e-08 0
1430.51 5.9485e-07 3.50793e-07 2.44057e-07 0.410283 0.0229917 1.13399e-08 0
1503.94 5.17276e-07 3.1824e-07 1.99036e-07 0.384777 0.0207715 8.96411e-09 0
1581.14 4.53978e-07 2.91517e-07 1.62462e-07 0.357863 0.0187706 7.1289e-09 0
1662.3 3.9944e-07 2.66827e-07 1.32613e-07 0.331996 0.0169639 5.64555e-09 0
1747.63 3.52178e-07 2.43929e-07 1.08249e-07 0.307369 0.0153323 4.45103e-09 0
1837.33 3.11082e-07 2.22674e-07 8.84084e-08 0.284196 0.0138607 3.49363e-09 0
1931.64 2.75133e-07 2.02895e-07 7.22381e-08 0.262557 0.012533 2.72937e-09 0
2030.79 2.44184e-07 1.85165e-07 5.90191e-08 0.241699 0.0113321 2.13e-09 0
2135.03 2.18431e-07 1.70219e-07 4.82122e-08 0.22072 0.0102452 1.67023e-09 0
2244.63 1.95668e-07 1.56253e-07 3.9415e-08 0.201439 0.00926516 1.30475e-09 0
2359.84 1.75381e-07 1.43158e-07 3.22236e-08 0.183734 0.00837919 1.01507e-09 0
2480.97 1.57262e-07 1.30921e-07 2.63408e-08 0.167497 0.0075779 7.86633e-10 0
2608.32 1.42102e-07 1.20567e-07 2.15349e-08 0.151546 0.0068542 6.1268e-10 0
2742.21 1.28502e-07 1.10885e-07 1.76172e-08 0.137096 0.00620101 4.757e-10 0
2882.96 1.16175e-07 1.01765e-07 1.44099e-08 0.124037 0.00560998 3.67932e-10 0
3030.95 1.05172e-07 9.33879e-08 1.17843e-08 0.112048 0.00507497 2.84098e-10 0
3186.53 9.59657e-08 8.63259e-08 9.63974e-09 0.10045 0.00459091 2.20634e-10 0
3350.09 8.75511e-08 7.96636e-08 7.88752e-09 0.0900905 0.00415343 1.70815e-10 0
3522.05 7.9819e-08 7.33664e-08 6.45261e-09 0.0808406 0.0037575 1.318e-10 0
3702.84 7.26891e-08 6.74115e-08 5.27764e-09 0.0726057 0.00339917 1.01334e-10 0
3892.91 6.61064e-08 6.17869e-08 4.31951e-09 0.0653418 0.00307567 7.76258e-11 0
4092.73 6.03412e-08 5.68063e-08 3.53491e-09 0.0585821 0.00278283 5.95809e-11 0
4302.81 5.53734e-08 5.24813e-08 2.8921e-09 0.0522291 0.00251761 4.59048e-11 0
4523.68 5.07512e-08 4.8385e-08 2.36618e-09 0.0466232 0.00227769 3.52592e-11 0
4755.88 4.64451e-08 4.45081e-08 1.93696e-09 0.0417043 0.00206101 2.69962e-11 0
5000 4.24453e-08 4.08601e-08 1.58523e-09 0.0373474 0.00186482 2.06101e-11 0
