# 1.2451e-07 3 12 : grain size, compostion index, size index
# This grain was stochastically heated: Yes
# Heating and cooling timescale: 409354 16.1879
# Ratio of heating to cooling to determine stochastic cutoff: 100
# Equilibrium emission is recorded even for those grains in the stochastic regime.
# Emission spectrum was computed for: 
# Type: IRSF
# Scale: 1
# Temperature: -1
# Wavelength  CExt  CAbs  CSca  Albedo G EqEmission StEmission
0.05 8.1253e-15 8.11343e-15 1.1872e-17 0.00146112 0.00340671 0 0
0.0525665 9.41091e-15 9.39817e-15 1.2739e-17 0.00135364 0.00303421 0 2.26585e-305
0.0552647 1.0862e-14 1.08483e-14 1.36576e-17 0.00125737 0.00270137 0 6.66659e-291
0.0581015 1.28167e-14 1.28023e-14 1.44178e-17 0.00112492 0.00240362 0 3.93231e-277
0.0610839 1.78473e-14 1.78319e-14 1.53463e-17 0.000859867 0.00211659 0 5.8134e-264
0.0642193 2.25399e-14 2.25228e-14 1.71249e-17 0.00075976 0.0018306 0 1.78496e-251
0.0675157 2.69649e-14 2.69448e-14 2.01775e-17 0.000748284 0.00154216 0 1.27766e-239
0.0709813 3.0972e-14 3.09511e-14 2.09172e-17 0.000675358 0.00129174 0 2.31424e-228
0.0746248 2.89395e-14 2.89212e-14 1.83427e-17 0.000633828 0.00111291 0 9.59294e-218
0.0784553 2.27557e-14 2.27414e-14 1.42709e-17 0.000627134 0.000993943 0 1.00139e-207
0.0824824 1.80633e-14 1.80532e-14 1.00498e-17 0.000556368 0.000928155 0 3.35058e-198
0.0867162 1.51362e-14 1.51284e-14 7.74253e-18 0.000511524 0.000890392 0 3.97238e-189
0.0911674 1.32082e-14 1.32017e-14 6.49667e-18 0.000491865 0.000863851 0 1.73711e-180
0.095847 1.18077e-14 1.18025e-14 5.15867e-18 0.000436892 0.000910158 0 2.89856e-172
0.100767 1.03479e-14 1.03443e-14 3.51994e-18 0.000340161 0.00106173 0 1.85419e-164
0.105939 9.00819e-15 9.00575e-15 2.43835e-18 0.000270681 0.00114604 0 4.82196e-157
0.111377 7.72019e-15 7.7187e-15 1.4905e-18 0.000193065 0.00131185 0 5.27814e-150
0.117094 6.54137e-15 6.54044e-15 9.28648e-19 0.000141965 0.0012026 0 2.54583e-143
0.123105 5.49758e-15 5.49697e-15 6.04824e-19 0.000110016 0.00103198 0 5.64697e-137
0.129424 4.62449e-15 4.62411e-15 3.88931e-19 8.41024e-05 0.00086796 0 6.03485e-131
0.136067 4.19462e-15 4.19437e-15 2.51915e-19 6.00568e-05 0.000734403 0 3.46961e-125
0.143051 3.80889e-15 3.80873e-15 1.65434e-19 4.34335e-05 0.0006265 0 1.0307e-119
0.150394 3.60088e-15 3.60077e-15 1.12683e-19 3.12931e-05 0.000534833 0 1.69942e-114
0.158114 3.56279e-15 3.5627e-15 8.51998e-20 2.39138e-05 0.000458018 0 1.61218e-109
0.16623 3.70856e-15 3.70848e-15 7.86775e-20 2.12151e-05 0.000393766 0 9.10803e-105
0.174762 4.06819e-15 4.06809e-15 9.47648e-20 2.32941e-05 0.000338595 0 3.15629e-100
0.183733 4.70613e-15 4.70599e-15 1.3528e-19 2.87456e-05 0.000288396 0 6.89381e-96
0.193164 5.83112e-15 5.8309e-15 2.14872e-19 3.68492e-05 0.000239997 0 9.88461e-92
0.203079 7.63801e-15 7.63768e-15 3.28066e-19 4.29517e-05 0.000192455 0 9.40584e-88
0.213503 9.39914e-15 9.39874e-15 4.029e-19 4.28656e-05 0.000148014 0 5.40033e-84
0.224463 9.01436e-15 9.01402e-15 3.34919e-19 3.7154e-05 0.000109592 0 1.58598e-80
0.235984 6.96483e-15 6.9646e-15 2.27178e-19 3.26179e-05 7.8225e-05 0 2.51409e-77
0.248097 5.26355e-15 5.2634e-15 1.47004e-19 2.79287e-05 5.99089e-05 0 2.66357e-74
0.260832 4.21693e-15 4.21683e-15 1.00933e-19 2.3935e-05 6.22959e-05 0 2.08262e-71
0.274221 3.59051e-15 3.59044e-15 7.27874e-20 2.02722e-05 8.32629e-05 0 1.22637e-68
0.288297 3.19992e-15 3.19987e-15 5.42451e-20 1.6952e-05 0.000111729 0 5.44801e-66
0.303095 2.90227e-15 2.90222e-15 4.17974e-20 1.44016e-05 0.000125301 0 1.80398e-63
0.318653 2.54103e-15 2.541e-15 3.25441e-20 1.28074e-05 0.000130759 0 4.28861e-61
0.335009 2.23664e-15 2.23661e-15 2.5632e-20 1.14601e-05 0.000128601 0 7.735e-59
0.352205 1.9565e-15 1.95648e-15 2.04372e-20 1.04458e-05 0.000122034 0 1.06092e-56
0.370284 1.69996e-15 1.69994e-15 1.64396e-20 9.67057e-06 0.000114094 0 1.12072e-54
0.389291 1.46656e-15 1.46654e-15 1.33257e-20 9.08638e-06 0.000106375 0 9.23039e-53
0.409273 1.25626e-15 1.25625e-15 1.08339e-20 8.62395e-06 9.88819e-05 0 5.99936e-51
0.430281 1.06785e-15 1.06784e-15 8.81682e-21 8.25664e-06 9.17618e-05 0 3.11131e-49
0.452368 9.00358e-16 9.0035e-16 7.17426e-21 7.96823e-06 8.44065e-05 0 1.30172e-47
0.475588 7.52778e-16 7.52772e-16 5.84154e-21 7.75998e-06 7.73617e-05 0 4.44339e-46
0.5 6.24204e-16 6.24199e-16 4.76897e-21 7.64008e-06 7.06029e-05 5.94066e-295 1.25301e-44
0.525665 5.12853e-16 5.12849e-16 3.89751e-21 7.59967e-06 6.4212e-05 1.02878e-280 2.95833e-43
0.552647 4.17285e-16 4.17281e-16 3.18648e-21 7.63624e-06 5.83901e-05 3.4825e-267 5.94996e-42
0.581015 3.36238e-16 3.36236e-16 2.61787e-21 7.78576e-06 5.29796e-05 2.49473e-254 1.04322e-40
0.610839 2.68059e-16 2.68057e-16 2.15135e-21 8.02565e-06 4.80787e-05 4.07388e-242 1.63818e-39
0.642193 2.10928e-16 2.10926e-16 1.76767e-21 8.38045e-06 4.36327e-05 1.62514e-230 2.36309e-38
0.675157 1.62881e-16 1.62879e-16 1.45409e-21 8.92731e-06 3.96167e-05 1.68584e-219 3.16887e-37
0.709813 1.20858e-16 1.20857e-16 1.19816e-21 9.91381e-06 3.60145e-05 4.75094e-209 3.86809e-36
0.746248 8.3726e-17 8.3725e-17 9.87451e-22 1.17938e-05 3.27962e-05 3.75957e-199 4.11673e-35
0.784553 6.08429e-17 6.08421e-17 8.13542e-22 1.33712e-05 2.98735e-05 9.95068e-190 4.2137e-34
0.824824 4.55671e-17 4.55664e-17 6.70117e-22 1.47062e-05 2.72504e-05 9.15177e-181 4.01681e-33
0.867162 3.11791e-17 3.11785e-17 5.52177e-22 1.77098e-05 2.48902e-05 2.73438e-172 3.13558e-32
0.911674 1.90636e-17 1.90631e-17 4.54754e-22 2.38546e-05 2.27552e-05 2.7301e-164 1.95445e-31
0.95847 1.28604e-17 1.286e-17 3.74209e-22 2.90977e-05 2.08415e-05 1.18011e-156 1.2017e-30
1.00767 1.00568e-17 1.00565e-17 3.07952e-22 3.06212e-05 1.91039e-05 2.42859e-149 7.6765e-30
1.05939 7.73976e-18 7.73951e-18 2.5332e-22 3.27297e-05 1.75278e-05 2.1099e-142 4.34114e-29
1.11377 5.76191e-18 5.76171e-18 2.08316e-22 3.61539e-05 1.6093e-05 7.92659e-136 2.14498e-28
1.17094 4.64638e-18 4.64621e-18 1.71232e-22 3.68529e-05 1.47535e-05 1.49985e-129 1.04148e-27
1.23105 3.90427e-18 3.90413e-18 1.40816e-22 3.60671e-05 1.35272e-05 1.42747e-123 4.80126e-27
1.29424 3.30574e-18 3.30563e-18 1.15839e-22 3.50417e-05 1.23992e-05 6.84677e-118 2.04093e-26
1.36067 2.79994e-18 2.79985e-18 9.52367e-23 3.40138e-05 1.13716e-05 1.69961e-112 7.97497e-26
1.43051 2.3697e-18 2.36962e-18 7.82628e-23 3.30265e-05 1.04354e-05 2.25245e-107 2.87293e-25
1.50394 2.00688e-18 2.00681e-18 6.4337e-23 3.20583e-05 9.57012e-06 1.64557e-102 9.59203e-25
1.58114 1.70181e-18 1.70176e-18 5.28902e-23 3.10787e-05 8.76335e-06 6.82707e-98 2.98104e-24
1.6623 1.44655e-18 1.44651e-18 4.34843e-23 3.00606e-05 8.01509e-06 1.65547e-93 8.66365e-24
1.74762 1.23398e-18 1.23394e-18 3.57551e-23 2.89755e-05 7.34083e-06 2.41175e-89 2.36533e-23
1.83733 1.05888e-18 1.05886e-18 2.93965e-23 2.77618e-05 6.72449e-06 2.16944e-85 6.10034e-23
1.93164 9.15088e-19 9.15064e-19 2.41596e-23 2.64014e-05 6.15868e-06 1.2355e-81 1.49255e-22
2.03079 7.98064e-19 7.98044e-19 1.9851e-23 2.48739e-05 5.63353e-06 4.56603e-78 3.48155e-22
2.13503 7.02897e-19 7.02881e-19 1.63235e-23 2.32232e-05 5.15327e-06 1.11978e-74 7.77008e-22
2.24463 6.25246e-19 6.25232e-19 1.34167e-23 2.14583e-05 4.71558e-06 1.86003e-71 1.66368e-21
2.35984 5.62596e-19 5.62585e-19 1.10234e-23 1.95938e-05 4.31209e-06 2.13733e-68 3.43165e-21
2.48097 5.12121e-19 5.12112e-19 9.05541e-24 1.76822e-05 3.93951e-06 1.73099e-65 6.83645e-21
2.60832 4.71625e-19 4.71618e-19 7.44504e-24 1.57859e-05 3.59563e-06 1.00568e-62 1.31853e-20
2.74221 4.39963e-19 4.39957e-19 6.11896e-24 1.39079e-05 3.28265e-06 4.26788e-60 2.47058e-20
2.88297 4.19371e-19 4.19366e-19 5.02518e-24 1.19827e-05 2.99947e-06 1.35596e-57 4.54637e-20
3.03095 4.22939e-19 4.22935e-19 4.12764e-24 9.75942e-06 2.74237e-06 3.39075e-55 8.52537e-20
3.18653 6.44274e-19 6.44271e-19 3.39099e-24 5.26327e-06 2.50375e-06 9.66598e-53 2.33035e-19
3.35009 1.94988e-18 1.94988e-18 2.78488e-24 1.42823e-06 2.28429e-06 4.18895e-50 1.22359e-18
3.52205 4.0972e-19 4.09718e-19 2.28602e-24 5.57947e-06 2.08458e-06 9.77082e-49 4.32056e-19
3.70284 3.51688e-19 3.51686e-19 1.87734e-24 5.33809e-06 1.90219e-06 7.30767e-47 6.04691e-19
3.89291 3.38181e-19 3.38179e-19 1.54116e-24 4.5572e-06 1.73378e-06 4.86315e-45 9.21429e-19
4.09273 3.39011e-19 3.39009e-19 1.265e-24 3.73145e-06 1.57476e-06 2.71005e-43 1.4248e-18
4.30281 3.51134e-19 3.51133e-19 1.03812e-24 2.95648e-06 1.43114e-06 1.26685e-41 2.21912e-18
4.52368 3.78445e-19 3.78444e-19 8.52186e-25 2.25181e-06 1.30011e-06 5.05432e-40 3.51096e-18
4.75588 4.33754e-19 4.33753e-19 6.99285e-25 1.61217e-06 1.18024e-06 1.77593e-38 5.77441e-18
5 5.79465e-19 5.79464e-19 5.73652e-25 9.89968e-07 1.06533e-06 6.07923e-37 1.08343e-17
5.25665 1.61261e-18 1.61261e-18 4.70696e-25 2.91885e-07 9.62646e-07 3.65521e-35 4.14944e-17
5.52648 1.35567e-18 1.35567e-18 3.86193e-25 2.84872e-07 8.70752e-07 5.64444e-34 4.70925e-17
5.81015 2.32949e-18 2.32949e-18 3.16659e-25 1.35935e-07 7.86557e-07 1.52685e-32 1.07272e-16
6.10839 7.86407e-18 7.86407e-18 2.59575e-25 3.30077e-08 7.07926e-07 7.00631e-31 4.71851e-16
6.42193 5.20012e-18 5.20012e-18 2.12781e-25 4.09184e-08 6.43346e-07 5.47691e-30 3.99929e-16
6.75157 4.28201e-18 4.28201e-18 1.74446e-25 4.07393e-08 5.74483e-07 4.66827e-29 4.1558e-16
7.09813 4.97119e-18 4.97119e-18 1.42938e-25 2.87532e-08 5.14108e-07 4.94429e-28 5.99861e-16
7.46248 1.206e-17 1.206e-17 1.17085e-25 9.70855e-09 4.58437e-07 9.70356e-27 1.78385e-15
7.84553 1.53797e-17 1.53797e-17 9.59433e-26 6.23829e-09 4.05764e-07 8.92993e-26 2.751e-15
8.24824 7.03521e-18 7.03521e-18 7.85934e-26 1.11714e-08 3.56431e-07 2.64403e-25 1.5021e-15
8.67162 5.74049e-18 5.74049e-18 6.43377e-26 1.12077e-08 3.13521e-07 1.25931e-24 1.44488e-15
9.11674 1.66313e-18 1.66313e-18 5.26677e-26 3.16677e-08 2.74891e-07 1.93009e-24 4.87589e-16
9.5847 1.02187e-18 1.02187e-18 4.30967e-26 4.21742e-08 2.39988e-07 5.71342e-24 3.44945e-16
10.0767 8.32191e-19 8.32191e-19 3.52496e-26 4.23576e-08 2.08303e-07 2.05076e-23 3.1986e-16
10.5939 8.76507e-19 8.76507e-19 2.88098e-26 3.28688e-08 1.76543e-07 8.74759e-23 3.79496e-16
11.1377 3.17038e-18 3.17038e-18 2.35285e-26 7.42134e-09 1.47632e-07 1.18228e-21 1.53027e-15
11.7094 1.71096e-18 1.71096e-18 1.93946e-26 1.13355e-08 1.22999e-07 2.20832e-21 9.11475e-16
12.3105 1.71389e-18 1.71389e-18 1.57698e-26 9.20115e-09 9.56082e-08 7.11853e-21 9.97992e-16
12.9424 1.41963e-18 1.41963e-18 1.28768e-26 9.07058e-09 7.00085e-08 1.7704e-20 8.9514e-16
13.6067 1.10685e-18 1.10685e-18 1.05149e-26 9.49982e-09 4.74079e-08 3.88026e-20 7.48951e-16
14.3051 8.62601e-19 8.62601e-19 8.57929e-27 9.94584e-09 3.17659e-08 7.98419e-20 6.20917e-16
15.0394 7.13156e-19 7.13156e-19 6.99588e-27 9.80975e-09 1.17371e-08 1.64196e-19 5.4152e-16
15.8114 7.25558e-19 7.25558e-19 5.70459e-27 7.86235e-09 -4.13874e-09 3.92623e-19 5.76485e-16
16.623 9.77441e-19 9.77441e-19 4.65078e-27 4.75811e-09 -1.94094e-08 1.17787e-18 8.06318e-16
17.4762 8.44577e-19 8.44577e-19 3.78965e-27 4.48704e-09 -3.47615e-08 2.15308e-18 7.17958e-16
18.3733 5.77135e-19 5.77135e-19 3.08632e-27 5.34765e-09 -4.95319e-08 2.9643e-18 5.01944e-16
19.3164 4.94506e-19 4.94506e-19 2.51674e-27 5.0894e-09 -6.4203e-08 4.88514e-18 4.36989e-16
20.3079 4.30626e-19 4.30626e-19 2.05359e-27 4.76885e-09 -8.04513e-08 7.82873e-18 3.84107e-16
21.3503 3.82756e-19 3.82756e-19 1.67746e-27 4.38258e-09 -9.35976e-08 1.22789e-17 3.42441e-16
22.4463 3.45132e-19 3.45132e-19 1.37466e-27 3.98299e-09 -1.01111e-07 1.87724e-17 3.07853e-16
23.5984 3.15714e-19 3.15714e-19 1.13324e-27 3.58946e-09 -1.12696e-07 2.80299e-17 2.7916e-16
24.8097 2.93434e-19 2.93434e-19 9.42299e-28 3.21128e-09 -1.24699e-07 4.10146e-17 2.558e-16
26.0832 2.77469e-19 2.77469e-19 7.93671e-28 2.8604e-09 -1.31172e-07 5.89942e-17 2.37238e-16
27.4221 2.6638e-19 2.6638e-19 6.77723e-28 2.5442e-09 -1.39458e-07 8.33808e-17 2.2229e-16
28.8297 2.57615e-19 2.57615e-19 5.8847e-28 2.2843e-09 -1.39452e-07 1.15079e-16 2.08844e-16
30.3095 2.49284e-19 2.49284e-19 5.17274e-28 2.07504e-09 -1.43299e-07 1.54288e-16 1.95467e-16
31.8653 2.36629e-19 2.36629e-19 4.54485e-28 1.92066e-09 -1.45777e-07 1.97289e-16 1.78724e-16
33.5009 2.20872e-19 2.20872e-19 3.98634e-28 1.80482e-09 -1.3982e-07 2.41516e-16 1.60069e-16
35.2206 1.99323e-19 1.99323e-19 3.41387e-28 1.71273e-09 -1.35148e-07 2.78665e-16 1.381e-16
37.0284 1.76456e-19 1.76456e-19 2.88767e-28 1.63648e-09 -1.18686e-07 3.07871e-16 1.16485e-16
38.9291 1.5363e-19 1.5363e-19 2.39888e-28 1.56147e-09 -1.15061e-07 3.26906e-16 9.63216e-17
40.9273 1.32636e-19 1.32636e-19 1.9736e-28 1.48798e-09 -9.88535e-08 3.36759e-16 7.87486e-17
43.0282 1.14266e-19 1.14266e-19 1.6101e-28 1.40908e-09 -9.29056e-08 3.39039e-16 6.4067e-17
45.2368 9.84179e-20 9.84179e-20 1.30913e-28 1.33017e-09 -6.38783e-08 3.34578e-16 5.19787e-17
47.5588 8.51912e-20 8.51912e-20 1.06178e-28 1.24634e-09 -6.23123e-08 3.25648e-16 4.22819e-17
50 7.3861e-20 7.3861e-20 8.61302e-29 1.16611e-09 -2.71562e-08 3.11851e-16 3.43745e-17
52.5665 6.43642e-20 6.43642e-20 6.98263e-29 1.08486e-09 1.15395e-08 2.95119e-16 2.8032e-17
55.2648 5.63054e-20 5.63054e-20 5.66198e-29 1.00558e-09 5.39291e-08 2.75889e-16 2.29057e-17
58.1015 4.94535e-20 4.94535e-20 4.59745e-29 9.29651e-10 5.93302e-08 2.55027e-16 1.87598e-17
61.0839 4.35737e-20 4.35737e-20 3.73455e-29 8.57064e-10 7.54822e-08 2.33094e-16 1.53889e-17
64.2193 3.84985e-20 3.84985e-20 3.03485e-29 7.88303e-10 9.78376e-08 2.10722e-16 1.26398e-17
67.5157 3.41131e-20 3.41131e-20 2.46818e-29 7.23529e-10 9.9456e-08 1.88584e-16 1.03978e-17
70.9813 3.03018e-20 3.03018e-20 2.00928e-29 6.63089e-10 1.1482e-07 1.6712e-16 8.56365e-18
74.6248 2.69706e-20 2.69706e-20 1.63616e-29 6.06644e-10 1.01153e-07 1.46682e-16 7.05882e-18
78.4553 2.40483e-20 2.40483e-20 1.33262e-29 5.54142e-10 9.00792e-08 1.27561e-16 5.82213e-18
82.4824 2.14826e-20 2.14826e-20 1.08636e-29 5.05696e-10 7.4786e-08 1.09993e-16 4.80586e-18
86.7162 1.92248e-20 1.92248e-20 8.8597e-30 4.60846e-10 8.52047e-08 9.40864e-17 3.96989e-18
91.1674 1.72284e-20 1.72284e-20 7.22607e-30 4.19429e-10 4.93648e-08 7.98512e-17 3.28054e-18
95.847 1.54588e-20 1.54588e-20 5.89432e-30 3.81294e-10 5.0638e-08 6.72672e-17 2.71158e-18
100.767 1.38927e-20 1.38927e-20 4.81234e-30 3.46395e-10 9.3082e-08 5.62917e-17 2.24254e-18
105.939 1.25146e-20 1.25146e-20 3.92862e-30 3.13924e-10 8.61032e-08 4.68547e-17 1.85709e-18
111.377 1.12934e-20 1.12934e-20 3.20676e-30 2.83951e-10 7.68794e-08 3.8787e-17 1.53904e-18
117.094 1.02281e-20 1.02281e-20 2.61865e-30 2.56025e-10 3.4181e-08 3.20052e-17 1.2787e-18
123.105 9.30881e-21 9.30881e-21 2.14015e-30 2.29906e-10 2.17743e-08 2.63693e-17 1.06643e-18
129.424 8.50694e-21 8.50694e-21 1.75062e-30 2.05787e-10 -3.76172e-08 2.16841e-17 8.92027e-19
136.067 7.77264e-21 7.77264e-21 1.43313e-30 1.84382e-10 3.39009e-08 1.77274e-17 7.45102e-19
143.051 7.03307e-21 7.03307e-21 1.17493e-30 1.67057e-10 -3.43078e-08 1.42767e-17 6.15585e-19
150.394 6.31518e-21 6.31518e-21 9.6296e-31 1.52483e-10 -2.7307e-08 1.13531e-17 5.04022e-19
158.114 5.63871e-21 5.63871e-21 7.88075e-31 1.39761e-10 -2.07869e-08 8.9357e-18 4.09789e-19
166.23 5.03332e-21 5.03332e-21 6.44536e-31 1.28054e-10 -1.71299e-07 7.00036e-18 3.32596e-19
174.763 4.49735e-21 4.49735e-21 5.27359e-31 1.1726e-10 -5.08587e-08 5.46712e-18 2.69796e-19
183.733 4.03552e-21 4.03552e-21 4.31274e-31 1.06869e-10 -1.35157e-07 4.27136e-18 2.19429e-19
193.164 3.62382e-21 3.62382e-21 3.52613e-31 9.73043e-11 -1.51613e-07 3.32759e-18 1.78297e-19
203.079 3.25898e-21 3.25898e-21 2.8836e-31 8.84815e-11 -1.55047e-07 2.58745e-18 1.44836e-19
213.503 2.93831e-21 2.93831e-21 2.35908e-31 8.02869e-11 -9.47913e-08 2.01065e-18 1.17736e-19
224.463 2.64868e-21 2.64868e-21 1.92958e-31 7.28504e-11 7.72986e-08 1.55749e-18 9.55051e-20
235.984 2.38707e-21 2.38707e-21 1.57794e-31 6.61039e-11 3.09588e-07 1.20283e-18 7.73009e-20
248.097 2.15124e-21 2.15124e-21 1.29109e-31 6.00161e-11 -2.84222e-07 9.26473e-19 6.24366e-20
260.832 1.94274e-21 1.94274e-21 1.05645e-31 5.43792e-11 1.08859e-07 7.1334e-19 5.04285e-20
274.221 1.75446e-21 1.75446e-21 8.64249e-32 4.92601e-11 2.09912e-07 5.47975e-19 4.06415e-20
288.297 1.5838e-21 1.5838e-21 7.06925e-32 4.46348e-11 6.98569e-07 4.19864e-19 3.26678e-20
303.095 1.43009e-21 1.43009e-21 5.78627e-32 4.04609e-11 -1.31479e-07 3.21131e-19 2.62055e-20
318.653 1.29276e-21 1.29276e-21 4.73506e-32 3.66274e-11 -9.63087e-08 2.45424e-19 2.09968e-20
335.009 1.16807e-21 1.16807e-21 3.87387e-32 3.31647e-11 3.6991e-07 1.87139e-19 1.67759e-20
352.206 1.05503e-21 1.05503e-21 3.16994e-32 3.0046e-11 -5.69215e-08 1.42405e-19 1.3367e-20
370.284 9.5405e-22 9.5405e-22 2.59475e-32 2.71972e-11 6.55187e-08 1.08319e-19 1.06379e-20
389.291 8.6248e-22 8.6248e-22 2.12339e-32 2.46196e-11 -4.66376e-07 8.22449e-20 8.44327e-21
409.273 7.79315e-22 7.79315e-22 1.73723e-32 2.22917e-11 -1.32455e-07 6.23285e-20 6.68205e-21
430.282 7.04945e-22 7.04945e-22 1.42204e-32 2.01724e-11 -8.12835e-07 4.72244e-20 5.28139e-21
452.368 6.3761e-22 6.3761e-22 1.16399e-32 1.82555e-11 -4.5952e-07 3.57325e-20 4.16404e-21
475.588 5.76415e-22 5.76415e-22 9.52523e-33 1.6525e-11 -2.69989e-07 2.69917e-20 3.2737e-21
500 5.20866e-22 5.20866e-22 7.79369e-33 1.4963e-11 -1.49991e-06 2.03576e-20 2.56664e-21
525.665 4.71697e-22 4.71697e-22 6.38093e-33 1.35276e-11 -9.77134e-07 1.53716e-20 2.01206e-21
552.648 4.26962e-22 4.26962e-22 5.22282e-33 1.22325e-11 2.22134e-07 1.15896e-20 1.573e-21
581.015 3.86277e-22 3.86277e-22 4.27381e-33 1.10641e-11 -1.33053e-07 8.72568e-21 1.22643e-21
610.838 3.49338e-22 3.49338e-22 3.49794e-33 1.00131e-11 9.91122e-07 6.56129e-21 9.53797e-22
642.193 3.15823e-22 3.15823e-22 2.86365e-33 9.06728e-12 4.54809e-07 4.92799e-21 7.39957e-22
675.157 2.85379e-22 2.85379e-22 2.34375e-33 8.21275e-12 -9.42093e-08 3.69651e-21 5.72595e-22
709.813 2.57962e-22 2.57962e-22 1.91776e-33 7.43429e-12 -1.91032e-06 2.77172e-21 4.42365e-22
746.247 2.33637e-22 2.33637e-22 1.57005e-33 6.72002e-12 -1.42849e-06 2.08093e-21 3.41767e-22
784.553 2.11513e-22 2.11513e-22 1.28527e-33 6.07653e-12 4.13283e-07 1.56059e-21 2.63437e-22
824.824 1.91388e-22 1.91388e-22 1.05186e-33 5.49596e-12 -5.91028e-07 1.16905e-21 2.02594e-22
867.162 1.731e-22 1.731e-22 8.60751e-34 4.97257e-12 -1.10462e-06 8.74832e-22 1.55461e-22
911.674 1.56518e-22 1.56518e-22 7.04762e-34 4.50275e-12 3.01698e-07 6.54128e-22 1.19064e-22
958.471 1.41455e-22 1.41455e-22 5.76882e-34 4.07821e-12 4.96851e-07 4.886e-22 9.09956e-23
1007.67 1.27823e-22 1.27823e-22 4.7208e-34 3.69323e-12 3.56938e-06 3.6473e-22 6.94277e-23
1059.39 1.15692e-22 1.15692e-22 3.86413e-34 3.34003e-12 -3.42103e-06 2.72574e-22 5.29787e-23
1113.77 1.04675e-22 1.04675e-22 3.16361e-34 3.02233e-12 -5.15129e-06 2.03541e-22 4.03553e-23
1170.94 9.46592e-23 9.46592e-23 2.58935e-34 2.73545e-12 7.27682e-06 1.5185e-22 3.06824e-23
1231.05 8.56027e-23 8.56027e-23 2.11881e-34 2.47517e-12 -1.98784e-06 1.13243e-22 2.3298e-23
1294.24 7.74877e-23 7.74877e-23 1.73476e-34 2.23875e-12 -1.29067e-06 8.45012e-23 1.7686e-23
1360.67 7.01199e-23 7.01199e-23 1.42012e-34 2.02528e-12 4.52869e-06 6.30118e-23 1.34056e-23
1430.51 6.34209e-23 6.34209e-23 1.16223e-34 1.83257e-12 -8.66067e-06 4.69477e-23 1.01446e-23
1503.94 5.73441e-23 5.73441e-23 9.51116e-35 1.65861e-12 -1.76323e-06 3.4957e-23 7.66624e-24
1581.14 5.19333e-23 5.19333e-23 7.78785e-35 1.49959e-12 5.08663e-06 2.60629e-23 5.79673e-24
1662.3 4.70107e-23 4.70107e-23 6.37487e-35 1.35605e-12 7.13047e-07 1.94169e-23 4.37675e-24
1747.63 4.25335e-23 4.25335e-23 5.21671e-35 1.2265e-12 -1.67225e-05 1.44543e-23 3.29987e-24
1837.33 3.84695e-23 3.84695e-23 4.27017e-35 1.11002e-12 -1.52106e-05 1.07537e-23 2.4849e-24
1931.64 3.47815e-23 3.47815e-23 3.49615e-35 1.00518e-12 -1.15936e-06 7.9957e-24 1.86897e-24
2030.79 3.15107e-23 3.15107e-23 2.86156e-35 9.08125e-13 -5.78127e-06 5.95569e-24 1.40742e-24
2135.03 2.87026e-23 2.87026e-23 2.34156e-35 8.15802e-13 -3.60385e-06 4.45925e-24 1.06479e-24
2244.63 2.61419e-23 2.61419e-23 1.91719e-35 7.33378e-13 -2.72539e-08 3.33777e-24 8.04902e-25
2359.84 2.3802e-23 2.3802e-23 1.56951e-35 6.59403e-13 8.21186e-06 2.49703e-24 6.07831e-25
2480.97 2.16634e-23 2.16634e-23 1.28446e-35 5.9292e-13 -3.45021e-05 1.86699e-24 4.58534e-25
