# 5.95219e-05 2 71 : grain size, compostion index, size index
# This grain was stochastically heated: No
# Heating and cooling timescale: 0.0076416 2.63104e+06
# Ratio of heating to cooling to determine stochastic cutoff: 100
# Equilibrium emission is recorded even for those grains in the stochastic regime.
# Emission spectrum was computed for: 
# Type: IRSF
# Scale: 1
# Temperature: -1
# Wavelength  CExt  CAbs  CSca  Albedo G EqEmission StEmission
0.05 2.31457e-08 8.09732e-09 1.50484e-08 0.650158 0.858329 0 0
0.0525665 2.32208e-08 8.01228e-09 1.52085e-08 0.654952 0.846388 0 0
0.0552647 2.32994e-08 7.96308e-09 1.53363e-08 0.658228 0.836482 0 0
0.0581015 2.33726e-08 7.96591e-09 1.54066e-08 0.659177 0.830403 0 0
0.0610839 2.34456e-08 7.89178e-09 1.55539e-08 0.663401 0.822099 0 0
0.0642193 2.35485e-08 7.65858e-09 1.58899e-08 0.674774 0.804873 0 0
0.0675157 2.36913e-08 7.45918e-09 1.62321e-08 0.685151 0.786133 0 0
0.0709813 2.3847e-08 7.53691e-09 1.63101e-08 0.683948 0.779549 0 0
0.0746248 2.39907e-08 7.75684e-09 1.62339e-08 0.676673 0.780941 0 0
0.0784553 2.41159e-08 8.01393e-09 1.6102e-08 0.667691 0.785631 0 0
0.0824824 2.42241e-08 8.28791e-09 1.59362e-08 0.657865 0.791088 0 0
0.0867162 2.43251e-08 8.41196e-09 1.59132e-08 0.654186 0.789896 0 0
0.0911674 2.44421e-08 8.46799e-09 1.59741e-08 0.653548 0.784962 0 0
0.095847 2.45449e-08 8.59603e-09 1.59489e-08 0.649784 0.783063 0 0
0.100767 2.45652e-08 8.92976e-09 1.56354e-08 0.636487 0.793119 0 0
0.105939 2.45555e-08 9.2344e-09 1.53211e-08 0.623937 0.806261 0 0
0.111377 2.4444e-08 9.717e-09 1.4727e-08 0.602479 0.831359 0 0
0.117094 2.4421e-08 1.02492e-08 1.41718e-08 0.580311 0.861411 0 0
0.123105 2.44504e-08 1.06274e-08 1.3823e-08 0.565348 0.882556 0 0
0.129424 2.44983e-08 1.09734e-08 1.35249e-08 0.552075 0.901276 0 0
0.136067 2.45359e-08 1.12673e-08 1.32686e-08 0.540782 0.916436 0 0
0.143051 2.45207e-08 1.14905e-08 1.30302e-08 0.531395 0.928177 0 0
0.150394 2.4394e-08 1.15726e-08 1.28215e-08 0.525598 0.935512 0 0
0.158114 2.42247e-08 1.14599e-08 1.27648e-08 0.526933 0.935733 0 0
0.16623 2.42105e-08 1.11429e-08 1.30676e-08 0.53975 0.924784 0 0
0.174762 2.44325e-08 1.06723e-08 1.37601e-08 0.563191 0.899501 0 0
0.183733 2.47479e-08 1.01488e-08 1.45991e-08 0.589911 0.866344 0 0
0.193164 2.51204e-08 9.65774e-09 1.54626e-08 0.615542 0.832937 0 0
0.203079 2.55403e-08 9.29494e-09 1.62454e-08 0.636068 0.806006 0 0
0.213503 2.60219e-08 9.05162e-09 1.69703e-08 0.652154 0.784913 0 0
0.224463 2.65658e-08 9.02467e-09 1.75412e-08 0.66029 0.771209 0 0
0.235984 2.69878e-08 9.07348e-09 1.79143e-08 0.663793 0.761718 0 0
0.248097 2.71069e-08 9.20672e-09 1.79001e-08 0.660354 0.756851 0 0
0.260832 2.70065e-08 9.39154e-09 1.7615e-08 0.65225 0.755719 0 0
0.274221 2.68549e-08 9.59046e-09 1.72644e-08 0.642879 0.756145 0 0
0.288297 2.6758e-08 9.88976e-09 1.68683e-08 0.6304 0.761943 0 0
0.303095 2.67497e-08 1.01292e-08 1.66204e-08 0.621332 0.766456 0 0
0.318653 2.67729e-08 1.03447e-08 1.64282e-08 0.613614 0.770392 0 0
0.335009 2.68314e-08 1.05426e-08 1.62888e-08 0.60708 0.773717 0 0
0.352205 2.69174e-08 1.07127e-08 1.62047e-08 0.602015 0.775658 0 0
0.370284 2.70199e-08 1.08588e-08 1.61611e-08 0.598119 0.776249 0 0
0.389291 2.71291e-08 1.09787e-08 1.61504e-08 0.595315 0.775392 0 0
0.409273 2.72447e-08 1.10948e-08 1.61498e-08 0.59277 0.774118 0 0
0.430281 2.73622e-08 1.12084e-08 1.61539e-08 0.590371 0.772548 0 0
0.452368 2.74923e-08 1.13313e-08 1.61609e-08 0.587835 0.771105 0 0
0.475588 2.76244e-08 1.1455e-08 1.61694e-08 0.58533 0.769399 0 0
0.5 2.77635e-08 1.15799e-08 1.61836e-08 0.582909 0.76735 0 0
0.525665 2.79198e-08 1.17066e-08 1.62131e-08 0.580705 0.765184 0 0
0.552647 2.81207e-08 1.18322e-08 1.62884e-08 0.579234 0.763251 0 0
0.581015 2.83466e-08 1.19482e-08 1.63985e-08 0.578498 0.760484 0 0
0.610839 2.84873e-08 1.20539e-08 1.64334e-08 0.576868 0.755167 0 0
0.642193 2.8487e-08 1.21258e-08 1.63612e-08 0.574338 0.746111 0 0
0.675157 2.84489e-08 1.21792e-08 1.62697e-08 0.571892 0.732276 0 0
0.709813 2.85102e-08 1.21321e-08 1.6378e-08 0.574463 0.721407 0 0
0.746248 2.90834e-08 1.21482e-08 1.69352e-08 0.582297 0.713625 0 0
0.784553 2.95843e-08 1.19653e-08 1.76189e-08 0.595551 0.71388 0 0
0.824824 3.06857e-08 1.20688e-08 1.86169e-08 0.606695 0.715484 0 0
0.867162 3.06716e-08 1.17372e-08 1.89344e-08 0.617328 0.703207 0 0
0.911674 3.10403e-08 1.1789e-08 1.92513e-08 0.620202 0.704619 0 0
0.95847 3.0927e-08 1.21171e-08 1.88099e-08 0.608203 0.687332 0 0
1.00767 2.91425e-08 1.12051e-08 1.79374e-08 0.615507 0.650158 0 0
1.05939 2.95602e-08 1.18821e-08 1.7678e-08 0.598036 0.623848 0 0
1.11377 2.91672e-08 1.19081e-08 1.72591e-08 0.59173 0.579419 0 0
1.17094 2.71696e-08 1.09058e-08 1.62639e-08 0.598605 0.523119 0 0
1.23105 2.92995e-08 1.17698e-08 1.75297e-08 0.598294 0.486203 0 0
1.29424 2.95935e-08 1.10424e-08 1.85511e-08 0.626864 0.471334 0 0
1.36067 3.04868e-08 1.08478e-08 1.96389e-08 0.644179 0.493715 3.6746e-288 0
1.43051 3.11172e-08 1.0693e-08 2.04242e-08 0.656363 0.510664 6.28844e-274 0
1.50394 3.48879e-08 1.15144e-08 2.33735e-08 0.669961 0.488664 2.34277e-260 0
1.58114 3.38036e-08 1.02545e-08 2.35491e-08 0.696645 0.459219 1.55629e-247 0
1.6623 3.48891e-08 9.74801e-09 2.51411e-08 0.7206 0.467042 2.5644e-235 0
1.74762 3.6837e-08 9.81325e-09 2.70238e-08 0.733604 0.479076 1.11669e-223 0
1.83733 3.96303e-08 1.01987e-08 2.94316e-08 0.742653 0.490449 1.34047e-212 0
1.93164 4.23521e-08 1.07436e-08 3.16086e-08 0.746328 0.483056 4.64563e-202 0
2.03079 3.93249e-08 1.02389e-08 2.90859e-08 0.739632 0.451487 4.41103e-192 0
2.13503 3.65339e-08 9.5393e-09 2.69946e-08 0.738892 0.419277 1.31452e-182 0
2.24463 3.59035e-08 9.19927e-09 2.67042e-08 0.743778 0.38816 1.37575e-173 0
2.35984 3.63334e-08 9.04567e-09 2.72877e-08 0.751037 0.357029 5.25175e-165 0
2.48097 3.74775e-08 9.02709e-09 2.84504e-08 0.759133 0.329524 7.65321e-157 0
2.60832 3.88703e-08 9.13701e-09 2.97333e-08 0.764936 0.309591 4.46261e-149 0
2.74221 3.91074e-08 9.27589e-09 2.98316e-08 0.76281 0.297176 1.07754e-141 0
2.88297 3.6859e-08 9.28053e-09 2.75784e-08 0.748215 0.284224 1.10533e-134 0
3.03095 3.36143e-08 9.17052e-09 2.44438e-08 0.727184 0.25968 5.02976e-128 0
3.18653 3.1177e-08 9.11191e-09 2.20651e-08 0.707736 0.223641 1.07487e-121 0
3.35009 2.9546e-08 9.13025e-09 2.04158e-08 0.690982 0.184128 1.12292e-115 0
3.52205 2.82723e-08 9.17942e-09 1.90928e-08 0.675321 0.146985 5.91097e-110 0
3.70284 2.70393e-08 9.20554e-09 1.78338e-08 0.65955 0.114386 1.61189e-104 0
3.89291 2.56786e-08 9.17022e-09 1.65084e-08 0.642885 0.0862846 2.34139e-99 0
4.09273 2.41199e-08 9.03932e-09 1.50806e-08 0.625234 0.0619968 1.86043e-94 0
4.30281 2.23604e-08 8.80674e-09 1.35536e-08 0.606145 0.040952 8.31412e-90 0
4.52368 2.0452e-08 8.47871e-09 1.19732e-08 0.585433 0.022682 2.14763e-85 0
4.75588 1.8475e-08 8.07565e-09 1.03994e-08 0.562889 0.00674931 3.29536e-81 0
5 1.65125e-08 7.62061e-09 8.89185e-09 0.538493 -0.00711156 3.0839e-77 0
5.25665 1.46325e-08 7.13385e-09 7.49865e-09 0.512466 -0.0192681 1.80471e-73 0
5.52648 1.28983e-08 6.64705e-09 6.25124e-09 0.484656 -0.0297816 6.77654e-70 0
5.81015 1.13409e-08 6.17979e-09 5.1611e-09 0.455088 -0.0387362 1.67243e-66 0
6.10839 9.9688e-09 5.73895e-09 4.22985e-09 0.424309 -0.0461677 2.77136e-63 0
6.42193 8.78539e-09 5.3368e-09 3.44859e-09 0.392537 -0.0523661 3.15214e-60 0
6.75157 7.75759e-09 4.95681e-09 2.80077e-09 0.361037 -0.0571091 2.49977e-57 0
7.09813 6.87703e-09 4.60959e-09 2.26745e-09 0.329713 -0.0607442 1.4104e-54 0
7.46248 6.122e-09 4.29008e-09 1.83192e-09 0.299236 -0.0632651 5.75327e-52 0
7.84553 5.46988e-09 3.99095e-09 1.47894e-09 0.270378 -0.0647329 1.722e-49 0
8.24824 4.89949e-09 3.70661e-09 1.19288e-09 0.243469 -0.065629 3.83425e-47 0
8.67162 4.40588e-09 3.44438e-09 9.61498e-10 0.218231 -0.0659074 6.45788e-45 0
9.11674 3.97674e-09 3.20151e-09 7.75229e-10 0.194941 -0.0655305 8.33723e-43 0
9.5847 3.60085e-09 2.97579e-09 6.2506e-10 0.173587 -0.0645387 8.3572e-41 0
10.0767 3.26693e-09 2.76295e-09 5.03972e-10 0.154265 -0.0630269 6.57719e-39 0
10.5939 2.96659e-09 2.56033e-09 4.06256e-10 0.136944 -0.0612696 4.1091e-37 0
11.1377 2.69919e-09 2.37167e-09 3.27521e-10 0.12134 -0.0593603 2.06389e-35 0
11.7094 2.45563e-09 2.1891e-09 2.6653e-10 0.108538 -0.0570271 8.39636e-34 0
12.3105 2.23496e-09 2.02071e-09 2.14251e-10 0.0958634 -0.0550429 2.80515e-32 0
12.9424 2.03545e-09 1.86238e-09 1.73067e-10 0.0850261 -0.0535261 7.75757e-31 0
13.6067 1.86225e-09 1.72232e-09 1.39939e-10 0.0751448 -0.0520904 1.80118e-29 0
14.3051 1.71101e-09 1.59787e-09 1.13148e-10 0.0661291 -0.0506277 3.54086e-28 0
15.0394 1.57852e-09 1.48702e-09 9.14932e-11 0.0579615 -0.0491661 5.94248e-27 0
15.8114 1.46288e-09 1.38885e-09 7.40281e-11 0.0506045 -0.0476867 8.58505e-26 0
16.623 1.36286e-09 1.30294e-09 5.99234e-11 0.0439687 -0.0464967 1.07667e-24 0
17.4762 1.27991e-09 1.2314e-09 4.85107e-11 0.0379017 -0.0455894 1.18393e-23 0
18.3733 1.21455e-09 1.17528e-09 3.92718e-11 0.0323344 -0.0448363 1.15216e-22 0
19.3164 1.16578e-09 1.13393e-09 3.18499e-11 0.0273206 -0.0443503 9.99641e-22 0
20.3079 1.13643e-09 1.11056e-09 2.58628e-11 0.0227579 -0.0447108 7.81296e-21 0
21.3503 1.13373e-09 1.1127e-09 2.10351e-11 0.0185538 -0.0450184 5.57586e-20 0
22.4463 1.15506e-09 1.13789e-09 1.71683e-11 0.0148636 -0.0451224 3.64558e-19 0
23.5984 1.20071e-09 1.18661e-09 1.40981e-11 0.0117415 -0.0451597 2.19306e-18 0
24.8097 1.2696e-09 1.25792e-09 1.16777e-11 0.00919793 -0.0457606 1.21623e-17 0
26.0832 1.37007e-09 1.36027e-09 9.80083e-12 0.00715353 -0.0465436 6.26914e-17 0
27.4221 1.48496e-09 1.47662e-09 8.34004e-12 0.00561634 -0.0472237 2.96933e-16 0
28.8297 1.59462e-09 1.5874e-09 7.21814e-12 0.00452657 -0.0475387 1.28035e-15 0
30.3095 1.68123e-09 1.6749e-09 6.32701e-12 0.00376333 -0.0477201 5.00188e-15 0
31.8653 1.69824e-09 1.69269e-09 5.54803e-12 0.00326693 -0.0475998 1.73444e-14 0
33.5009 1.65864e-09 1.65378e-09 4.85959e-12 0.00292986 -0.0474369 5.40808e-14 0
35.2206 1.53803e-09 1.53387e-09 4.15827e-12 0.00270364 -0.0466401 1.49426e-13 0
37.0284 1.38582e-09 1.38231e-09 3.51493e-12 0.00253635 -0.0458201 3.75716e-13 0
38.9291 1.22056e-09 1.21764e-09 2.91805e-12 0.00239075 -0.0446237 8.67621e-13 0
40.9273 1.06357e-09 1.06117e-09 2.39913e-12 0.00225573 -0.0432935 1.86813e-12 0
43.0282 9.27762e-10 9.25805e-10 1.95606e-12 0.00210836 -0.0416027 3.80601e-12 0
45.2368 8.11686e-10 8.10097e-10 1.58953e-12 0.0019583 -0.0397053 7.37092e-12 0
47.5588 7.20251e-10 7.18962e-10 1.28854e-12 0.00178901 -0.0358682 1.37587e-11 0
50 6.42322e-10 6.41277e-10 1.0448e-12 0.0016266 -0.0318688 2.45882e-11 0
52.5665 5.7504e-10 5.74193e-10 8.4643e-13 0.00147195 -0.0258337 4.21221e-11 0
55.2648 5.15169e-10 5.14483e-10 6.85762e-13 0.00133114 -0.0191121 6.91078e-11 0
58.1015 4.60878e-10 4.60322e-10 5.56294e-13 0.00120703 -0.0119253 1.0859e-10 0
61.0839 4.10389e-10 4.09938e-10 4.51393e-13 0.00109991 -0.00473119 1.63219e-10 0
64.2193 3.62978e-10 3.62612e-10 3.66393e-13 0.00100941 0.00220027 2.34646e-10 0
67.5157 3.18141e-10 3.17843e-10 2.97607e-13 0.000935455 0.00836624 3.22476e-10 0
70.9813 2.76442e-10 2.762e-10 2.41972e-13 0.00087531 0.0135167 4.24599e-10 0
74.6248 2.3791e-10 2.37713e-10 1.96798e-13 0.000827195 0.0175071 5.35995e-10 0
78.4553 2.0286e-10 2.027e-10 1.60103e-13 0.00078923 0.0202532 6.49961e-10 0
82.4824 1.7119e-10 1.7106e-10 1.30378e-13 0.000761595 0.0216718 7.57414e-10 0
86.7162 1.43556e-10 1.43449e-10 1.06224e-13 0.00073995 0.0214791 8.52883e-10 0
91.1674 1.20582e-10 1.20496e-10 8.65668e-14 0.000717906 0.0201796 9.36731e-10 0
95.847 1.01689e-10 1.01619e-10 7.05661e-14 0.000693937 0.0183986 1.00712e-09 0
100.767 8.58939e-11 8.58363e-11 5.75824e-14 0.00067039 0.0163733 1.05874e-09 0
105.939 7.28867e-11 7.28397e-11 4.69868e-14 0.000644655 0.0136784 1.09286e-09 0
111.377 6.23975e-11 6.23591e-11 3.83396e-14 0.000614441 0.01096 1.11359e-09 0
117.094 5.45598e-11 5.45285e-11 3.12997e-14 0.000573676 0.00823721 1.13527e-09 0
123.105 4.88073e-11 4.87818e-11 2.55751e-14 0.000524001 0.00570225 1.16104e-09 0
129.424 4.46781e-11 4.46571e-11 2.09169e-14 0.00046817 0.00343145 1.19257e-09 0
136.067 4.09567e-11 4.09396e-11 1.71214e-14 0.000418036 0.00155009 1.20514e-09 0
143.051 3.72538e-11 3.72397e-11 1.40353e-14 0.000376748 -3.43731e-05 1.18818e-09 0
150.394 3.32171e-11 3.32056e-11 1.15023e-14 0.000346277 -0.00142389 1.13012e-09 0
158.114 2.96063e-11 2.95969e-11 9.4127e-15 0.000317929 -0.00240859 1.0583e-09 0
166.23 2.63447e-11 2.6337e-11 7.69785e-15 0.000292198 -0.00335451 9.75293e-10 0
174.763 2.34478e-11 2.34415e-11 6.29807e-15 0.0002686 -0.0042614 8.86826e-10 0
183.733 2.12033e-11 2.11982e-11 5.15035e-15 0.000242903 -0.00483173 8.08779e-10 0
193.164 1.92231e-11 1.92189e-11 4.2108e-15 0.000219049 -0.00536807 7.30518e-10 0
203.079 1.75014e-11 1.74979e-11 3.44339e-15 0.000196749 -0.00580681 6.55002e-10 0
213.503 1.6054e-11 1.60512e-11 2.81695e-15 0.000175467 -0.00604158 5.85293e-10 0
224.463 1.47342e-11 1.47319e-11 2.30402e-15 0.000156372 -0.00626854 5.17911e-10 0
235.984 1.35294e-11 1.35276e-11 1.88411e-15 0.00013926 -0.00648774 4.54068e-10 0
248.097 1.24311e-11 1.24295e-11 1.54156e-15 0.000124009 -0.00669894 3.94707e-10 0
260.832 1.14782e-11 1.14769e-11 1.26137e-15 0.000109893 -0.00672697 3.4183e-10 0
274.221 1.06077e-11 1.06067e-11 1.03187e-15 9.72754e-05 -0.00672218 2.93894e-10 0
288.297 9.80413e-12 9.80329e-12 8.44013e-16 8.60874e-05 -0.00671729 2.50774e-10 0
303.095 9.06802e-12 9.06733e-12 6.90821e-16 7.61821e-05 -0.00668464 2.12599e-10 0
318.653 8.40045e-12 8.39988e-12 5.65308e-16 6.7295e-05 -0.00654872 1.79301e-10 0
335.009 7.78118e-12 7.78072e-12 4.62484e-16 5.94362e-05 -0.00641914 1.50243e-10 0
352.206 7.20788e-12 7.2075e-12 3.78441e-16 5.25037e-05 -0.00629574 1.25149e-10 0
370.284 6.6783e-12 6.67799e-12 3.09766e-16 4.63839e-05 -0.00609203 1.03686e-10 0
389.291 6.18669e-12 6.18644e-12 2.5349e-16 4.09735e-05 -0.00588808 8.54402e-11 0
409.273 5.73055e-12 5.73034e-12 2.07388e-16 3.61898e-05 -0.0056946 7.00494e-11 0
430.282 5.3031e-12 5.30293e-12 1.69759e-16 3.20112e-05 -0.00544591 5.71122e-11 0
452.368 4.90556e-12 4.90542e-12 1.38952e-16 2.83253e-05 -0.00519595 4.6344e-11 0
475.588 4.53711e-12 4.537e-12 1.13706e-16 2.50614e-05 -0.00496055 3.74473e-11 0
500 4.19582e-12 4.19572e-12 9.30352e-17 2.21733e-05 -0.00473786 3.01394e-11 0
525.665 3.8658e-12 3.86572e-12 7.61697e-17 1.97035e-05 -0.00444669 2.40812e-11 0
552.648 3.5609e-12 3.56084e-12 6.23446e-17 1.75081e-05 -0.00417414 1.91717e-11 0
581.015 3.27955e-12 3.2795e-12 5.10157e-17 1.55557e-05 -0.00391963 1.52128e-11 0
610.838 3.02039e-12 3.02035e-12 4.17539e-17 1.3824e-05 -0.00368209 1.20357e-11 0
642.193 2.78183e-12 2.78179e-12 3.41823e-17 1.22877e-05 -0.00346032 9.49609e-12 0
675.157 2.56207e-12 2.56204e-12 2.79761e-17 1.09193e-05 -0.00325293 7.47278e-12 0
709.813 2.35551e-12 2.35548e-12 2.28913e-17 9.71819e-06 -0.00304495 5.85589e-12 0
746.247 2.15575e-12 2.15574e-12 1.87406e-17 8.6933e-06 -0.00281685 4.55754e-12 0
784.553 1.973e-12 1.97299e-12 1.53412e-17 7.77558e-06 -0.0026058 3.53953e-12 0
824.824 1.80575e-12 1.80574e-12 1.25552e-17 6.95291e-06 -0.00241036 2.74338e-12 0
867.162 1.65278e-12 1.65277e-12 1.0274e-17 6.21616e-06 -0.00222933 2.12242e-12 0
911.674 1.51318e-12 1.51317e-12 8.41203e-18 5.55917e-06 -0.00206187 1.63952e-12 0
958.471 1.3855e-12 1.38549e-12 6.88563e-18 4.96979e-06 -0.00190652 1.26448e-12 0
1007.67 1.26778e-12 1.26777e-12 5.63467e-18 4.44453e-06 -0.0017604 9.73072e-13 0
1059.39 1.15553e-12 1.15553e-12 4.61217e-18 3.99139e-06 -0.00161533 7.44794e-13 0
1113.77 1.0535e-12 1.0535e-12 3.77604e-18 3.58427e-06 -0.00148174 5.69423e-13 0
1170.94 9.60612e-13 9.60609e-13 3.09055e-18 3.21727e-06 -0.00135849 4.3483e-13 0
1231.05 8.7432e-13 8.74318e-13 2.52895e-18 2.89248e-06 -0.00124366 3.31038e-13 0
1294.24 7.9514e-13 7.95138e-13 2.07054e-18 2.60399e-06 -0.00113694 2.51525e-13 0
1360.67 7.23387e-13 7.23386e-13 1.69499e-18 2.34313e-06 -0.00103878 1.90968e-13 0
1430.51 6.58245e-13 6.58244e-13 1.3872e-18 2.10742e-06 -0.000948463 1.4487e-13 0
1503.94 5.98993e-13 5.98991e-13 1.13521e-18 1.8952e-06 -0.000865329 1.09796e-13 0
1581.14 5.43459e-13 5.43458e-13 9.29514e-19 1.71037e-06 -0.000788794 8.28916e-14 0
1662.3 4.9317e-13 4.93169e-13 7.6087e-19 1.54282e-06 -0.0007186 6.25374e-14 0
1747.63 4.4764e-13 4.4764e-13 6.2265e-19 1.39096e-06 -0.00065419 4.71534e-14 0
1837.33 4.06478e-13 4.06478e-13 5.09671e-19 1.25387e-06 -0.000595142 3.55408e-14 0
1931.64 3.6925e-13 3.69249e-13 4.1728e-19 1.13008e-06 -0.000540967 2.67793e-14 0
2030.79 3.34473e-13 3.34472e-13 3.4154e-19 1.02113e-06 -0.000491625 2.01061e-14 0
2135.03 3.00935e-13 3.00935e-13 2.79475e-19 9.28687e-07 -0.000447643 1.49845e-14 0
2244.63 2.70989e-13 2.70989e-13 2.28824e-19 8.44403e-07 -0.000407831 1.11701e-14 0
2359.84 2.44156e-13 2.44156e-13 1.87325e-19 7.67235e-07 -0.000371687 8.32635e-15 0
2480.97 2.20083e-13 2.20083e-13 1.5331e-19 6.96602e-07 -0.000338841 6.20602e-15 0
2608.32 1.98481e-13 1.98481e-13 1.25464e-19 6.32123e-07 -0.000308996 4.62553e-15 0
2742.21 1.79114e-13 1.79114e-13 1.0273e-19 5.73545e-07 -0.0002819 3.44804e-15 0
2882.96 1.61691e-13 1.61691e-13 8.40917e-20 5.20076e-07 -0.000257232 2.56997e-15 0
3030.95 1.46007e-13 1.46007e-13 6.88162e-20 4.71322e-07 -0.000234759 1.91522e-15 0
3186.53 1.31903e-13 1.31903e-13 5.63308e-20 4.27064e-07 -0.000214307 1.42732e-15 0
3350.09 1.19205e-13 1.19205e-13 4.61191e-20 3.86888e-07 -0.000195677 1.06369e-15 0
3522.05 1.07753e-13 1.07753e-13 3.77485e-20 3.50325e-07 -0.000178675 7.92566e-16 0
3702.84 9.74171e-14 9.7417e-14 3.08887e-20 3.17077e-07 -0.00016315 5.90437e-16 0
3892.91 8.81099e-14 8.81099e-14 2.52907e-20 2.87035e-07 -0.000148998 4.39896e-16 0
4092.73 7.97053e-14 7.97053e-14 2.0704e-20 2.59757e-07 -0.000136065 3.27688e-16 0
4302.81 7.21107e-14 7.21107e-14 1.69446e-20 2.34981e-07 -0.000124233 2.44056e-16 0
4523.68 6.52507e-14 6.52507e-14 1.38671e-20 2.12521e-07 -0.000113411 1.81746e-16 0
4755.88 5.90628e-14 5.90627e-14 1.13543e-20 1.92241e-07 -0.000103519 1.35352e-16 0
5000 5.34662e-14 5.34662e-14 9.29428e-21 1.73835e-07 -9.44548e-05 1.00784e-16 0
