# 4.3582e-06 4 46 : grain size, compostion index, size index
# This grain was stochastically heated: No
# Heating and cooling timescale: 47.3625 296049
# Ratio of heating to cooling to determine stochastic cutoff: 100
# Equilibrium emission is recorded even for those grains in the stochastic regime.
# Emission spectrum was computed for: 
# Type: IRSF
# Scale: 1
# Temperature: -1
# Wavelength  CExt  CAbs  CSca  Albedo G EqEmission StEmission
0.05 1.1717e-10 6.19279e-11 5.52422e-11 0.47147 0.875885 0 0
0.0525665 1.18815e-10 6.28057e-11 5.6009e-11 0.471398 0.866214 0 0
0.0552647 1.21015e-10 6.34495e-11 5.75658e-11 0.47569 0.853713 0 0
0.0581015 1.24766e-10 6.43451e-11 6.0421e-11 0.484274 0.836956 0 0
0.0610839 1.29995e-10 6.62002e-11 6.37952e-11 0.49075 0.819009 0 0
0.0642193 1.35579e-10 6.88903e-11 6.66883e-11 0.491879 0.803843 0 0
0.0675157 1.40957e-10 7.19767e-11 6.89806e-11 0.489372 0.791942 0 0
0.0709813 1.45894e-10 7.51429e-11 7.07515e-11 0.48495 0.782608 0 0
0.0746248 1.50201e-10 7.81608e-11 7.20404e-11 0.479626 0.775098 0 0
0.0784553 1.53563e-10 8.0872e-11 7.26908e-11 0.473362 0.769275 0 0
0.0824824 1.55609e-10 8.32117e-11 7.23974e-11 0.465252 0.76616 0 0
0.0867162 1.55902e-10 8.44508e-11 7.14513e-11 0.458309 0.76014 0 0
0.0911674 1.5884e-10 8.58401e-11 7.29995e-11 0.45958 0.746666 0 0
0.095847 1.62523e-10 8.76685e-11 7.48543e-11 0.460577 0.735454 0 0
0.100767 1.65396e-10 8.93339e-11 7.60617e-11 0.459877 0.724837 0 0
0.105939 1.67779e-10 9.08644e-11 7.69146e-11 0.458428 0.715087 0 0
0.111377 1.69655e-10 9.19808e-11 7.76745e-11 0.457837 0.704228 0 0
0.117094 1.72379e-10 9.30601e-11 7.93191e-11 0.460143 0.692152 0 0
0.123105 1.76193e-10 9.44626e-11 8.17305e-11 0.463869 0.681189 0 0
0.129424 1.80866e-10 9.61473e-11 8.47191e-11 0.468407 0.670976 0 0
0.136067 1.85876e-10 9.76662e-11 8.82099e-11 0.474563 0.65862 0 0
0.143051 1.91877e-10 9.8637e-11 9.32398e-11 0.485936 0.640032 0 0
0.150394 2.01762e-10 9.65027e-11 1.0526e-10 0.521701 0.609993 0 0
0.158114 2.07765e-10 8.28228e-11 1.24943e-10 0.601364 0.550665 0 0
0.16623 2.10045e-10 6.31085e-11 1.46936e-10 0.699548 0.498838 0 0
0.174762 2.15459e-10 5.23247e-11 1.63134e-10 0.757148 0.501112 0 0
0.183733 2.07115e-10 4.30409e-11 1.64074e-10 0.792189 0.539628 0 0
0.193164 1.67103e-10 2.95909e-11 1.37512e-10 0.822918 0.561546 0 0
0.203079 1.21898e-10 1.75179e-11 1.0438e-10 0.856291 0.529625 0 0
0.213503 9.03098e-11 1.06809e-11 7.96288e-11 0.88173 0.4654 0 0
0.224463 7.02866e-11 7.69646e-12 6.25902e-11 0.890499 0.399674 0 0
0.235984 5.68017e-11 6.52195e-12 5.02797e-11 0.88518 0.344221 0 0
0.248097 4.6802e-11 5.95632e-12 4.08457e-11 0.872734 0.299087 0 0
0.260832 3.87265e-11 5.43527e-12 3.32913e-11 0.85965 0.261862 0 0
0.274221 3.20894e-11 4.97646e-12 2.71129e-11 0.844919 0.230811 0 0
0.288297 2.66406e-11 4.57364e-12 2.2067e-11 0.828321 0.204677 0 0
0.303095 2.21528e-11 4.21816e-12 1.79346e-11 0.809588 0.182327 0 0
0.318653 1.84484e-11 3.89719e-12 1.45512e-11 0.788752 0.162982 0 0
0.335009 1.54083e-11 3.60696e-12 1.18013e-11 0.765908 0.146128 0 0
0.352205 1.29109e-11 3.34443e-12 9.56649e-12 0.740961 0.131314 0 0
0.370284 1.08559e-11 3.10504e-12 7.75087e-12 0.713977 0.118196 0 0
0.389291 9.16957e-12 2.8875e-12 6.28207e-12 0.685099 0.106537 0 0
0.409273 7.78487e-12 2.68804e-12 5.09683e-12 0.654709 0.0961509 0 0
0.430281 6.63901e-12 2.50489e-12 4.13411e-12 0.622701 0.0868359 0 0
0.452368 5.69431e-12 2.3376e-12 3.35671e-12 0.589485 0.07848 0 0
0.475588 4.91024e-12 2.18416e-12 2.72609e-12 0.555184 0.0709576 0 0
0.5 4.26041e-12 2.0441e-12 2.21631e-12 0.520211 0.06419 0 0
0.525665 3.71786e-12 1.91572e-12 1.80214e-12 0.484725 0.058078 0 0
0.552647 3.26299e-12 1.79792e-12 1.46507e-12 0.448997 0.0525496 0 0
0.581015 2.88244e-12 1.68883e-12 1.19361e-12 0.414096 0.0475712 0 0
0.610839 2.56118e-12 1.58848e-12 9.72694e-13 0.379784 0.0430677 0 0
0.642193 2.28838e-12 1.49588e-12 7.92499e-13 0.346315 0.038987 0 0
0.675157 2.05634e-12 1.4104e-12 6.45934e-13 0.314119 0.0352933 0 0
0.709813 1.85862e-12 1.33152e-12 5.27096e-13 0.283595 0.031957 0 0
0.746248 1.68859e-12 1.25843e-12 4.30155e-13 0.254742 0.0289342 0 0
0.784553 1.54146e-12 1.19047e-12 3.50988e-13 0.227698 0.0261939 0 0
0.824824 1.41323e-12 1.12667e-12 2.86554e-13 0.202766 0.0237139 0 0
0.867162 1.30112e-12 1.06693e-12 2.34184e-13 0.179987 0.0214725 0 0
0.911674 1.20234e-12 1.01097e-12 1.91368e-13 0.159163 0.0194407 0 0
0.95847 1.11462e-12 9.58233e-13 1.56383e-13 0.140302 0.0175994 0 0
1.00767 1.03678e-12 9.08933e-13 1.27843e-13 0.123308 0.0159331 0 0
1.05939 9.67508e-13 8.62975e-13 1.04533e-13 0.108044 0.0144243 0 0
1.11377 9.05275e-13 8.19816e-13 8.54588e-14 0.094401 0.0130567 0 0
1.17094 8.48913e-13 7.7907e-13 6.98431e-14 0.0822736 0.0118171 0 0
1.23105 7.97849e-13 7.40734e-13 5.71155e-14 0.0715868 0.0106964 9.63616e-299 0
1.29424 7.53062e-13 7.06369e-13 4.66933e-14 0.0620046 0.0096807 3.36278e-284 0
1.36067 7.12581e-13 6.7439e-13 3.8191e-14 0.0535954 0.00876167 2.25755e-270 0
1.43051 6.75415e-13 6.442e-13 3.12156e-14 0.0462168 0.00792832 3.15823e-257 0
1.50394 6.41236e-13 6.15702e-13 2.55341e-14 0.0398202 0.00717539 9.94021e-245 0
1.58114 6.09499e-13 5.88617e-13 2.0882e-14 0.0342609 0.00649327 7.56779e-233 0
1.6623 5.79892e-13 5.62828e-13 1.70639e-14 0.029426 0.00587463 1.49371e-221 0
1.74762 5.52623e-13 5.38675e-13 1.39481e-14 0.0252397 0.00531518 8.17047e-211 0
1.83733 5.281e-13 5.16701e-13 1.13992e-14 0.0215852 0.00480874 1.32023e-200 0
1.93164 5.05566e-13 4.96254e-13 9.3124e-15 0.0184197 0.00434996 6.68377e-191 0
2.03079 4.84636e-13 4.77029e-13 7.60684e-15 0.015696 0.00393466 1.1215e-181 0
2.13503 4.65104e-13 4.5889e-13 6.21406e-15 0.0133606 0.00355915 6.58273e-173 0
2.24463 4.47118e-13 4.42045e-13 5.07325e-15 0.0113466 0.00321893 1.42335e-164 0
2.35984 4.30151e-13 4.26011e-13 4.13991e-15 0.00962431 0.00291081 1.18952e-156 0
2.48097 4.14275e-13 4.109e-13 3.3751e-15 0.00814702 0.0026316 4.02649e-149 0
2.60832 3.99708e-13 3.96956e-13 2.75251e-15 0.00688628 0.0023794 5.77382e-142 0
2.74221 3.85997e-13 3.83754e-13 2.24369e-15 0.0058127 0.00215107 3.6548e-135 0
2.88297 3.73348e-13 3.71523e-13 1.82583e-15 0.00489041 0.00194387 1.06362e-128 0
3.03095 3.61475e-13 3.5999e-13 1.48559e-15 0.00410981 0.00175662 1.47736e-122 0
3.18653 3.51134e-13 3.49926e-13 1.20818e-15 0.00344079 0.00158724 1.01783e-116 0
3.35009 3.41409e-13 3.40428e-13 9.81291e-16 0.00287424 0.00143376 3.59163e-111 0
3.52205 3.30957e-13 3.30161e-13 7.95604e-16 0.00240395 0.00129462 6.68044e-106 0
3.70284 3.20715e-13 3.2007e-13 6.44684e-16 0.00201015 0.00116893 6.77481e-101 0
3.89291 3.10854e-13 3.10333e-13 5.21352e-16 0.00167716 0.00105499 3.86078e-96 0
4.09273 3.0154e-13 3.0112e-13 4.20474e-16 0.00139442 0.000951643 1.2724e-91 0
4.30281 2.91833e-13 2.91495e-13 3.38161e-16 0.00115875 0.00085797 2.48323e-87 0
4.52368 2.82912e-13 2.8264e-13 2.71238e-16 0.000958739 0.000773181 2.9557e-83 0
4.75588 2.75176e-13 2.74959e-13 2.16661e-16 0.000787353 0.000696245 2.20181e-79 0
5 2.69355e-13 2.69183e-13 1.71992e-16 0.000638533 0.000626275 1.05367e-75 0
5.25665 2.66156e-13 2.66021e-13 1.35658e-16 0.000509695 0.000562768 3.32128e-72 0
5.52648 2.65212e-13 2.65106e-13 1.06289e-16 0.000400768 0.000505213 7.03293e-69 0
5.81015 2.67839e-13 2.67757e-13 8.22831e-17 0.00030721 0.000452732 1.02578e-65 0
6.10839 2.72896e-13 2.72833e-13 6.28858e-17 0.000230439 0.000405028 1.04522e-62 0
6.42193 2.76885e-13 2.76837e-13 4.71905e-17 0.000170434 0.000361619 7.47802e-60 0
6.75157 2.77548e-13 2.77514e-13 3.41014e-17 0.000122867 0.000321531 3.79044e-57 0
7.09813 2.8194e-13 2.81917e-13 2.2836e-17 8.09961e-05 0.000283795 1.41934e-54 0
7.46248 3.47322e-13 3.47309e-13 1.28663e-17 3.70442e-05 0.000247019 4.77084e-52 0
7.84553 6.74882e-13 6.74876e-13 6.42974e-18 9.52721e-06 0.000211996 1.90022e-49 0
8.24824 1.40374e-12 1.40373e-12 7.85661e-18 5.59692e-06 0.000182193 6.17114e-47 0
8.67162 2.14246e-12 2.14245e-12 1.41322e-17 6.59626e-06 0.00015862 1.13531e-44 0
9.11674 3.15872e-12 3.1587e-12 2.75602e-17 8.7251e-06 0.000135182 1.57724e-42 0
9.5847 3.55462e-12 3.55458e-12 3.92107e-17 1.10309e-05 0.000121061 1.32341e-40 0
10.0767 3.18525e-12 3.18521e-12 3.77088e-17 1.18386e-05 0.000114972 7.07623e-39 0
10.5939 2.67225e-12 2.67222e-12 3.41928e-17 1.27955e-05 0.000112984 2.86623e-37 0
11.1377 2.10081e-12 2.10078e-12 2.70626e-17 1.2882e-05 0.000115797 8.89355e-36 0
11.7094 1.67743e-12 1.67741e-12 2.12666e-17 1.26781e-05 0.000116479 2.31384e-34 0
12.3105 1.30982e-12 1.3098e-12 1.63023e-17 1.24462e-05 0.000115877 4.9061e-33 0
12.9424 1.02221e-12 1.0222e-12 1.21478e-17 1.18839e-05 0.000110907 8.7413e-32 0
13.6067 8.16836e-13 8.16828e-13 8.6989e-18 1.06495e-05 0.000100812 1.35226e-30 0
14.3051 7.50161e-13 7.50155e-13 5.96819e-18 7.95587e-06 8.63645e-05 2.05503e-29 0
15.0394 8.34801e-13 8.34797e-13 4.44024e-18 5.31891e-06 7.3131e-05 3.25975e-28 0
15.8114 9.63549e-13 9.63546e-13 3.67981e-18 3.81901e-06 6.27284e-05 4.65325e-27 0
16.623 1.10733e-12 1.10732e-12 3.36456e-18 3.03846e-06 5.42218e-05 5.77845e-26 0
17.4762 1.22109e-12 1.22108e-12 3.28749e-18 2.69226e-06 4.74137e-05 6.05556e-25 0
18.3733 1.26044e-12 1.26043e-12 3.24361e-18 2.5734e-06 4.22339e-05 5.25725e-24 0
19.3164 1.20185e-12 1.20184e-12 3.06664e-18 2.55161e-06 3.87673e-05 3.75358e-23 0
20.3079 1.07398e-12 1.07397e-12 2.70252e-18 2.51637e-06 3.67865e-05 2.24886e-22 0
21.3503 9.59275e-13 9.59273e-13 2.29263e-18 2.38997e-06 3.48545e-05 1.21233e-21 0
22.4463 8.57942e-13 8.5794e-13 1.93099e-18 2.25072e-06 3.30093e-05 5.92147e-21 0
23.5984 7.69126e-13 7.69125e-13 1.60635e-18 2.08853e-06 3.12053e-05 2.63602e-20 0
24.8097 6.92186e-13 6.92184e-13 1.3377e-18 1.93257e-06 2.9429e-05 1.07615e-19 0
26.0832 6.21722e-13 6.21721e-13 1.10502e-18 1.77735e-06 2.77697e-05 4.02321e-19 0
27.4221 5.5759e-13 5.57589e-13 9.12752e-19 1.63696e-06 2.62289e-05 1.38381e-18 0
28.8297 5.02034e-13 5.02033e-13 7.53791e-19 1.50147e-06 2.46969e-05 4.42043e-18 0
30.3095 4.51812e-13 4.51811e-13 6.22177e-19 1.37707e-06 2.32487e-05 1.31071e-17 0
31.8653 4.07542e-13 4.07541e-13 5.11481e-19 1.25504e-06 2.18147e-05 3.63035e-17 0
33.5009 3.66963e-13 3.66963e-13 4.21168e-19 1.14771e-06 2.04868e-05 9.38699e-17 0
35.2206 3.33348e-13 3.33347e-13 3.46034e-19 1.03806e-06 1.91022e-05 2.29752e-16 0
37.0284 3.02284e-13 3.02283e-13 2.84394e-19 9.40819e-07 1.78195e-05 5.28331e-16 0
38.9291 2.73501e-13 2.73501e-13 2.33984e-19 8.55514e-07 1.66396e-05 1.14431e-15 0
40.9273 2.46862e-13 2.46862e-13 1.92748e-19 7.80791e-07 1.55554e-05 2.34054e-15 0
43.0282 2.22683e-13 2.22682e-13 1.58389e-19 7.11276e-07 1.45128e-05 4.54124e-15 0
45.2368 2.004e-13 2.00399e-13 1.30109e-19 6.49248e-07 1.35384e-05 8.3649e-15 0
47.5588 1.80657e-13 1.80657e-13 1.06754e-19 5.90922e-07 1.259e-05 1.47232e-14 0
50 1.62317e-13 1.62317e-13 8.76499e-20 5.39993e-07 1.17153e-05 2.46944e-14 0
52.5665 1.46007e-13 1.46007e-13 7.1869e-20 4.92231e-07 1.08693e-05 3.97333e-14 0
55.2648 1.31242e-13 1.31242e-13 5.88909e-20 4.48721e-07 1.00676e-05 6.13425e-14 0
58.1015 1.17915e-13 1.17915e-13 4.82765e-20 4.09419e-07 9.3118e-06 9.10732e-14 0
61.0839 1.05948e-13 1.05948e-13 3.95447e-20 3.73248e-07 8.59437e-06 1.30343e-13 0
64.2193 9.51317e-14 9.51317e-14 3.2378e-20 3.40349e-07 7.91976e-06 1.8002e-13 0
67.5157 8.54619e-14 8.54619e-14 2.65053e-20 3.10141e-07 7.28423e-06 2.40618e-13 0
70.9813 7.67797e-14 7.67797e-14 2.17014e-20 2.82645e-07 6.68963e-06 3.11625e-13 0
74.6248 6.90264e-14 6.90263e-14 1.77581e-20 2.57265e-07 6.13188e-06 3.91894e-13 0
78.4553 6.20368e-14 6.20367e-14 1.45284e-20 2.3419e-07 5.61419e-06 4.78795e-13 0
82.4824 5.57758e-14 5.57758e-14 1.18906e-20 2.13186e-07 5.13423e-06 5.69478e-13 0
86.7162 5.01842e-14 5.01842e-14 9.73026e-21 1.93891e-07 4.68892e-06 6.60531e-13 0
91.1674 4.51604e-14 4.51604e-14 7.96033e-21 1.76268e-07 4.27781e-06 7.47641e-13 0
95.847 4.06422e-14 4.06422e-14 6.51118e-21 1.60207e-07 3.89926e-06 8.26719e-13 0
100.767 3.66038e-14 3.66038e-14 5.32914e-21 1.4559e-07 3.55153e-06 8.94727e-13 0
105.939 3.30298e-14 3.30298e-14 4.36001e-21 1.32002e-07 3.23117e-06 9.49879e-13 0
111.377 2.97495e-14 2.97495e-14 3.56646e-21 1.19883e-07 2.93853e-06 9.86526e-13 0
117.094 2.67916e-14 2.67915e-14 2.91817e-21 1.08921e-07 2.67156e-06 1.00507e-12 0
123.105 2.41579e-14 2.41579e-14 2.38823e-21 9.88591e-08 2.42727e-06 1.00679e-12 0
129.424 2.18204e-14 2.18204e-14 1.95427e-21 8.95617e-08 2.20424e-06 9.92984e-13 0
136.067 1.9656e-14 1.9656e-14 1.59884e-21 8.13411e-08 2.00106e-06 9.60874e-13 0
143.051 1.77775e-14 1.77775e-14 1.30847e-21 7.36026e-08 1.81566e-06 9.19153e-13 0
150.394 1.60136e-14 1.60136e-14 1.07088e-21 6.68732e-08 1.64726e-06 8.62885e-13 0
158.114 1.45236e-14 1.45236e-14 8.76197e-22 6.03291e-08 1.49343e-06 8.0431e-13 0
166.23 1.31156e-14 1.31156e-14 7.16791e-22 5.46517e-08 1.35396e-06 7.36679e-13 0
174.763 1.17861e-14 1.17861e-14 5.86802e-22 4.97877e-08 1.22768e-06 6.6307e-13 0
183.733 1.06804e-14 1.06804e-14 4.8028e-22 4.49685e-08 1.11272e-06 5.94746e-13 0
193.164 9.63975e-15 9.63975e-15 3.93001e-22 4.07688e-08 1.0084e-06 5.25416e-13 0
203.079 8.68653e-15 8.68653e-15 3.21649e-22 3.70285e-08 9.13817e-07 4.58543e-13 0
213.503 7.86029e-15 7.86029e-15 2.63355e-22 3.35045e-08 8.2793e-07 3.97861e-13 0
224.463 7.07791e-15 7.07791e-15 2.15576e-22 3.04575e-08 7.50306e-07 3.40303e-13 0
235.984 6.39549e-15 6.39549e-15 1.76424e-22 2.75857e-08 6.79604e-07 2.89497e-13 0
248.097 5.75464e-15 5.75464e-15 1.44506e-22 2.51112e-08 6.16016e-07 2.43202e-13 0
260.832 5.12111e-15 5.12111e-15 1.18307e-22 2.31017e-08 5.58428e-07 2.0048e-13 0
274.221 4.55009e-15 4.55009e-15 9.68013e-23 2.12746e-08 5.05557e-07 1.63783e-13 0
288.297 4.06309e-15 4.06309e-15 7.91701e-23 1.94852e-08 4.57324e-07 1.33543e-13 0
303.095 3.62142e-15 3.62142e-15 6.47887e-23 1.78904e-08 4.13361e-07 1.07974e-13 0
318.653 3.26046e-15 3.26046e-15 5.30061e-23 1.62573e-08 3.7437e-07 8.76446e-14 0
335.009 2.91653e-15 2.91653e-15 4.33539e-23 1.48649e-08 3.39147e-07 7.0277e-14 0
352.206 2.60157e-15 2.60157e-15 3.54659e-23 1.36325e-08 3.05492e-07 5.58894e-14 0
370.284 2.35135e-15 2.35135e-15 2.9023e-23 1.23431e-08 2.76495e-07 4.48077e-14 0
389.291 2.1133e-15 2.1133e-15 2.37438e-23 1.12354e-08 2.49905e-07 3.55523e-14 0
409.273 1.90637e-15 1.90637e-15 1.942e-23 1.01869e-08 2.26234e-07 2.81868e-14 0
430.282 1.72712e-15 1.72712e-15 1.58916e-23 9.20121e-09 2.04479e-07 2.23495e-14 0
452.368 1.5604e-15 1.5604e-15 1.30036e-23 8.33352e-09 1.84957e-07 1.76029e-14 0
475.588 1.42094e-15 1.42094e-15 1.0639e-23 7.48731e-09 1.67626e-07 1.39227e-14 0
500 1.28832e-15 1.28832e-15 8.70302e-24 6.75532e-09 1.51308e-07 1.09263e-14 0
525.665 1.17709e-15 1.17709e-15 7.12458e-24 6.05273e-09 1.36326e-07 8.61294e-15 0
552.648 1.07307e-15 1.07307e-15 5.83075e-24 5.4337e-09 1.25134e-07 6.75372e-15 0
581.015 9.82893e-16 9.82893e-16 4.77067e-24 4.8537e-09 1.1137e-07 5.30585e-15 0
610.838 8.99459e-16 8.99459e-16 3.90435e-24 4.34077e-09 1.00727e-07 4.15338e-15 0
642.193 8.25535e-16 8.25535e-16 3.19647e-24 3.872e-09 9.20327e-08 3.25266e-15 0
675.157 7.59015e-16 7.59015e-16 2.61623e-24 3.44688e-09 8.19056e-08 2.54571e-15 0
709.813 6.99147e-16 6.99147e-16 2.14079e-24 3.062e-09 7.68074e-08 1.99171e-15 0
746.247 6.44567e-16 6.44567e-16 1.75266e-24 2.71913e-09 6.90775e-08 1.55639e-15 0
784.553 5.94938e-16 5.94938e-16 1.43479e-24 2.41166e-09 6.27742e-08 1.21526e-15 0
824.824 5.49552e-16 5.49552e-16 1.17434e-24 2.13691e-09 5.6597e-08 9.47885e-16 0
867.162 5.07119e-16 5.07119e-16 9.61103e-25 1.89522e-09 5.32801e-08 7.37323e-16 0
911.674 4.6744e-16 4.6744e-16 7.87065e-25 1.68378e-09 4.64544e-08 5.71966e-16 0
958.471 4.31411e-16 4.31411e-16 6.44429e-25 1.49377e-09 4.12784e-08 4.43576e-16 0
1007.67 3.97581e-16 3.97581e-16 5.27495e-25 1.32676e-09 3.57367e-08 3.43016e-16 0
1059.39 3.67789e-16 3.67789e-16 4.31841e-25 1.17415e-09 3.54622e-08 2.65896e-16 0
1113.77 3.39471e-16 3.39471e-16 3.53611e-25 1.04165e-09 2.54398e-08 2.05393e-16 0
1170.94 3.12523e-16 3.12523e-16 2.89467e-25 9.26226e-10 3.17606e-08 1.58058e-16 0
1231.05 2.87635e-16 2.87635e-16 2.36939e-25 8.2375e-10 1.70783e-08 1.21461e-16 0
1294.24 2.66045e-16 2.66045e-16 1.94039e-25 7.29346e-10 2.42537e-08 9.37022e-17 0
1360.67 2.45738e-16 2.45738e-16 1.5888e-25 6.46542e-10 1.66049e-08 7.21157e-17 0
1430.51 2.26421e-16 2.26421e-16 1.30059e-25 5.74411e-10 1.9381e-08 5.53128e-17 0
1503.94 2.08202e-16 2.08202e-16 1.06458e-25 5.1132e-10 1.42375e-08 4.23019e-17 0
1581.14 1.9306e-16 1.9306e-16 8.71838e-26 4.5159e-10 1.3418e-08 3.2596e-17 0
1662.3 1.78672e-16 1.78672e-16 7.13791e-26 3.99497e-10 1.41387e-08 2.50487e-17 0
1747.63 1.64984e-16 1.64984e-16 5.84236e-26 3.54116e-10 1.07504e-08 1.91909e-17 0
1837.33 1.51976e-16 1.51976e-16 4.78323e-26 3.14735e-10 8.44591e-09 1.46571e-17 0
1931.64 1.39614e-16 1.39614e-16 3.91697e-26 2.80557e-10 2.59883e-08 1.11565e-17 0
2030.79 1.28363e-16 1.28363e-16 3.20661e-26 2.49808e-10 2.16764e-08 8.49365e-18 0
2135.03 1.188e-16 1.188e-16 2.62421e-26 2.20894e-10 1.60051e-08 6.5052e-18 0
2244.63 1.09716e-16 1.09716e-16 2.14887e-26 1.95858e-10 3.13317e-09 4.96894e-18 0
2359.84 1.01075e-16 1.01075e-16 1.75939e-26 1.74068e-10 2.5209e-08 3.78401e-18 0
2480.97 9.2898e-17 9.2898e-17 1.44012e-26 1.55022e-10 3.92014e-09 2.87348e-18 0
2608.32 8.59372e-17 8.59372e-17 1.1788e-26 1.3717e-10 4.92483e-08 2.19518e-18 0
2742.21 7.93587e-17 7.93587e-17 9.65397e-27 1.2165e-10 -2.89258e-08 1.6733e-18 0
2882.96 7.31005e-17 7.31005e-17 7.90425e-27 1.08129e-10 2.1131e-08 1.27175e-18 0
3030.95 6.73074e-17 6.73074e-17 6.46977e-27 9.61227e-11 4.88931e-08 9.65761e-19 0
3186.53 6.2407e-17 6.2407e-17 5.29664e-27 8.48726e-11 -2.62837e-08 7.38243e-19 0
3350.09 5.7748e-17 5.7748e-17 4.33705e-27 7.5103e-11 -3.93398e-08 5.62995e-19 0
3522.05 5.33156e-17 5.33156e-17 3.55038e-27 6.65919e-11 1.85896e-08 4.28226e-19 0
3702.84 4.90983e-17 4.90983e-17 2.90563e-27 5.91798e-11 2.78946e-09 3.24782e-19 0
3892.91 4.5093e-17 4.5093e-17 2.37941e-27 5.27666e-11 -3.64823e-08 2.45589e-19 0
4092.73 4.15344e-17 4.15344e-17 1.94816e-27 4.69047e-11 -4.82843e-08 1.86189e-19 0
4302.81 3.84362e-17 3.84362e-17 1.5946e-27 4.14869e-11 -3.70515e-08 1.41779e-19 0
4523.68 3.54897e-17 3.54897e-17 1.30515e-27 3.67755e-11 -2.69699e-08 1.07692e-19 0
4755.88 3.26905e-17 3.26905e-17 1.06878e-27 3.2694e-11 8.43103e-08 8.15836e-20 0
5000 3.00482e-17 3.00482e-17 8.74989e-28 2.91195e-11 -5.51665e-08 6.16592e-20 0
