# 5.38285e-07 1 26 : grain size, compostion index, size index
# This grain was stochastically heated: Yes
# Heating and cooling timescale: 4913.92 4365.81
# Ratio of heating to cooling to determine stochastic cutoff: 100
# Equilibrium emission is recorded even for those grains in the stochastic regime.
# Emission spectrum was computed for: 
# Type: IRSF
# Scale: 1
# Temperature: -1
# Wavelength  CExt  CAbs  CSca  Albedo G EqEmission StEmission
0.05 5.70438e-13 5.19129e-13 5.13089e-14 0.0899465 0.0711823 0 0
0.0525665 6.54588e-13 5.99001e-13 5.5587e-14 0.0849191 0.0635296 0 0
0.0552647 7.50253e-13 6.90149e-13 6.01042e-14 0.0801118 0.0566165 0 0
0.0581015 9.78822e-13 9.14974e-13 6.38489e-14 0.0652303 0.0503422 0 0
0.0610839 1.51267e-12 1.44402e-12 6.86499e-14 0.0453831 0.0443595 0 0
0.0642193 1.90301e-12 1.82496e-12 7.80501e-14 0.041014 0.0385228 0 0
0.0675157 2.27806e-12 2.18294e-12 9.51194e-14 0.0417546 0.0325931 0 0
0.0709813 2.61426e-12 2.50808e-12 1.06183e-13 0.0406168 0.0270454 0 0
0.0746248 2.44574e-12 2.34322e-12 1.02521e-13 0.0419181 0.0228026 0 0
0.0784553 1.9285e-12 1.84135e-12 8.71562e-14 0.0451937 0.0198985 0 0
0.0824824 1.52669e-12 1.46159e-12 6.50979e-14 0.0426399 0.0181157 0 0
0.0867162 1.27524e-12 1.22438e-12 5.08573e-14 0.0398807 0.0169703 0 0
0.0911674 1.11163e-12 1.06835e-12 4.32785e-14 0.0389324 0.0160867 0 0
0.095847 9.91407e-13 9.56117e-13 3.52901e-14 0.035596 0.0165701 0 0
0.100767 8.63739e-13 8.39334e-13 2.44042e-14 0.0282541 0.0192191 0 0
0.105939 7.48763e-13 7.31788e-13 1.69751e-14 0.0226709 0.0208819 0 0
0.111377 6.38308e-13 6.28026e-13 1.02825e-14 0.016109 0.0238104 0 0
0.117094 5.38633e-13 5.3232e-13 6.31248e-15 0.0117194 0.0222983 0 0
0.123105 4.51558e-13 4.47486e-13 4.07185e-15 0.00901733 0.0192004 0 0
0.129424 3.79042e-13 3.76445e-13 2.59754e-15 0.00685289 0.016154 0 0
0.136067 3.43109e-13 3.41436e-13 1.67271e-15 0.00487515 0.0136754 0 0
0.143051 3.11042e-13 3.09948e-13 1.09382e-15 0.00351664 0.0116764 0 0
0.150394 2.93599e-13 2.92857e-13 7.41928e-16 0.00252701 0.00997863 0 0
0.158114 2.90112e-13 2.89554e-13 5.58156e-16 0.00192393 0.00855517 0 0
0.16623 3.01676e-13 3.01164e-13 5.12138e-16 0.00169764 0.00736418 0 0
0.174762 3.30671e-13 3.30059e-13 6.11849e-16 0.00185033 0.0063405 0 0
0.183733 3.82311e-13 3.81444e-13 8.67107e-16 0.00226807 0.00540751 0 0
0.193164 4.73568e-13 4.72194e-13 1.37358e-15 0.00290049 0.00450494 0 3.717e-311
0.203079 6.20546e-13 6.18432e-13 2.11419e-15 0.00340698 0.00361328 0 1.8222e-296
0.213503 7.64486e-13 7.61839e-13 2.64772e-15 0.0034634 0.00277825 0 1.61862e-282
0.224463 7.34174e-13 7.31935e-13 2.23899e-15 0.00304967 0.00205975 0 2.34104e-269
0.235984 5.67766e-13 5.66243e-13 1.52236e-15 0.00268131 0.00147429 0 6.14546e-257
0.248097 4.294e-13 4.28419e-13 9.81305e-16 0.00228529 0.00112499 0 3.8251e-245
0.260832 3.44256e-13 3.43585e-13 6.70975e-16 0.00194906 0.00115224 0 6.55714e-234
0.274221 2.93361e-13 2.92879e-13 4.82309e-16 0.00164408 0.00152352 0 3.31567e-223
0.288297 2.61661e-13 2.61302e-13 3.58573e-16 0.00137038 0.00205025 0 5.18577e-213
0.303095 2.37533e-13 2.37258e-13 2.75824e-16 0.0011612 0.0023089 0 2.58908e-203
0.318653 2.08207e-13 2.07993e-13 2.1447e-16 0.00103008 0.0024177 0 4.1435e-194
0.335009 1.83481e-13 1.83313e-13 1.68733e-16 0.000919619 0.00238363 0 2.3361e-185
0.352205 1.60706e-13 1.60572e-13 1.34415e-16 0.000836398 0.00226552 0 4.8293e-177
0.370284 1.39836e-13 1.39728e-13 1.0804e-16 0.00077262 0.00212045 0 3.84206e-169
0.389291 1.20839e-13 1.20752e-13 8.75186e-17 0.000724256 0.00197865 0 1.23208e-161
0.409273 1.03713e-13 1.03642e-13 7.1113e-17 0.00068567 0.00184049 0 1.66484e-154
0.430281 8.83589e-14 8.8301e-14 5.78436e-17 0.000654644 0.00170893 0 9.88215e-148
0.452368 7.46938e-14 7.46468e-14 4.70458e-17 0.000629848 0.00157263 1.06186e-296 2.68138e-141
0.475588 6.26393e-14 6.2601e-14 3.82909e-17 0.000611292 0.00144187 2.95695e-282 3.45473e-135
0.5 5.21216e-14 5.20904e-14 3.12487e-17 0.000599534 0.00131626 1.57734e-268 2.19244e-129
0.525665 4.29992e-14 4.29737e-14 2.55301e-17 0.000593734 0.00119737 1.74531e-255 7.09018e-124
0.552647 3.51609e-14 3.514e-14 2.08663e-17 0.000593453 0.00108902 4.3221e-243 1.20741e-118
0.581015 2.85054e-14 2.84883e-14 1.71383e-17 0.00060123 0.000988236 2.57705e-231 1.11786e-113
0.610839 2.291e-14 2.28959e-14 1.40808e-17 0.000614613 0.000896928 3.96377e-220 5.79842e-109
0.642193 1.82442e-14 1.82327e-14 1.15671e-17 0.000634012 0.000814075 1.67856e-209 1.7334e-104
0.675157 1.43951e-14 1.43856e-14 9.51319e-18 0.000660863 0.000739217 2.08341e-199 3.06992e-100
0.709813 1.12669e-14 1.12591e-14 7.83743e-18 0.000695613 0.000672057 8.05291e-190 3.3111e-96
0.746248 8.74238e-15 8.73592e-15 6.45807e-18 0.000738709 0.000612046 1.02525e-180 2.22938e-92
0.784553 6.72517e-15 6.71985e-15 5.31991e-18 0.000791045 0.000557539 4.53615e-172 9.60062e-89
0.824824 5.13106e-15 5.12668e-15 4.38141e-18 0.000853899 0.000508618 7.34441e-164 2.70805e-85
0.867162 3.8851e-15 3.88149e-15 3.60985e-18 0.000929152 0.000464595 4.57157e-156 5.12039e-82
0.911674 2.90777e-15 2.9048e-15 2.97261e-18 0.0010223 0.000424768 1.14124e-148 6.60568e-79
0.95847 2.12574e-15 2.12329e-15 2.44585e-18 0.00115059 0.000389071 1.17992e-141 5.8667e-76
1.00767 1.45814e-15 1.45613e-15 2.0126e-18 0.00138025 0.000356655 5.06051e-135 3.51525e-73
1.05939 9.99786e-16 9.98131e-16 1.65541e-18 0.00165576 0.00032725 9.98198e-129 1.54332e-70
1.11377 7.68725e-16 7.67364e-16 1.3612e-18 0.00177073 0.000300479 1.05534e-122 5.67345e-68
1.17094 5.89978e-16 5.88859e-16 1.11881e-18 0.00189635 0.000275484 5.51775e-117 1.58124e-65
1.23105 4.32202e-16 4.31282e-16 9.20005e-19 0.00212865 0.0002526 1.41178e-111 3.2467e-63
1.29424 3.31574e-16 3.30818e-16 7.56774e-19 0.00228237 0.000231546 2.00396e-106 5.46971e-61
1.36067 2.62848e-16 2.62226e-16 6.22147e-19 0.00236694 0.000212366 1.60616e-101 7.56211e-59
1.43051 2.08453e-16 2.07942e-16 5.11234e-19 0.00245252 0.000194891 7.24787e-97 8.40875e-57
1.50394 1.64028e-16 1.63608e-16 4.20249e-19 0.00256206 0.000178738 1.87828e-92 7.54131e-55
1.58114 1.27645e-16 1.273e-16 3.45464e-19 0.00270644 0.000163677 2.86143e-88 5.49114e-53
1.6623 9.81568e-17 9.78728e-17 2.84016e-19 0.00289349 0.000149706 2.62647e-84 3.27287e-51
1.74762 7.4648e-17 7.44145e-17 2.33525e-19 0.00312834 0.000137116 1.48925e-80 1.61115e-49
1.83733 5.61779e-17 5.59859e-17 1.91989e-19 0.00341752 0.000125608 5.34065e-77 6.6039e-48
1.93164 4.18738e-17 4.1716e-17 1.57782e-19 0.00376804 0.000115042 1.23919e-73 2.27164e-46
2.03079 3.10057e-17 3.08761e-17 1.2964e-19 0.00418117 0.000105235 1.90509e-70 6.62054e-45
2.13503 2.29722e-17 2.28656e-17 1.06601e-19 0.00464042 9.62656e-05 1.99373e-67 1.657e-43
2.24463 1.71514e-17 1.70638e-17 8.76162e-20 0.00510839 8.80911e-05 1.45755e-64 3.60814e-42
2.35984 1.30708e-17 1.29989e-17 7.19855e-20 0.00550733 8.05554e-05 7.67669e-62 6.96407e-41
2.48097 1.03531e-17 1.0294e-17 5.9133e-20 0.00571161 7.3595e-05 3.01734e-59 1.21996e-39
2.60832 8.70215e-18 8.65353e-18 4.86161e-20 0.00558668 6.71725e-05 9.18493e-57 1.99104e-38
2.74221 7.88584e-18 7.84588e-18 3.99562e-20 0.00506683 6.13271e-05 2.23424e-54 3.09139e-37
2.88297 7.81921e-18 7.78639e-18 3.28135e-20 0.00419653 5.60378e-05 4.47245e-52 4.65646e-36
3.03095 8.83219e-18 8.80524e-18 2.69524e-20 0.00305161 5.12342e-05 7.77747e-50 7.11621e-35
3.18653 1.69494e-17 1.69273e-17 2.2142e-20 0.00130636 4.67773e-05 1.77619e-47 1.65342e-33
3.35009 5.94511e-17 5.94329e-17 1.81841e-20 0.000305867 4.26792e-05 5.79608e-45 6.30186e-32
3.52205 1.25017e-17 1.24868e-17 1.49267e-20 0.00119397 3.89501e-05 8.96101e-44 1.29621e-31
3.70284 1.25212e-17 1.25089e-17 1.2258e-20 0.000978985 3.55406e-05 5.2902e-42 1.15104e-30
3.89291 1.42833e-17 1.42732e-17 1.00629e-20 0.000704521 3.23934e-05 2.87991e-40 1.05821e-29
4.09273 1.69876e-17 1.69794e-17 8.25969e-21 0.000486218 2.94228e-05 1.33697e-38 9.2535e-29
4.30281 2.08165e-17 2.08097e-17 6.77824e-21 0.00032562 2.67367e-05 5.28205e-37 7.63296e-28
4.52368 2.64554e-17 2.64498e-17 5.5642e-21 0.000210324 2.42926e-05 1.80448e-35 5.99944e-27
4.75588 3.57345e-17 3.57299e-17 4.56583e-21 0.000127771 2.20517e-05 5.51129e-34 4.61996e-26
5 5.72657e-17 5.7262e-17 3.74551e-21 6.54058e-05 1.99079e-05 1.69416e-32 3.90335e-25
5.25665 2.01105e-16 2.01102e-16 3.07327e-21 1.52819e-05 1.79856e-05 9.75961e-31 6.70386e-24
5.52648 1.66843e-16 1.6684e-16 2.52153e-21 1.51132e-05 1.62658e-05 1.14448e-29 2.53031e-23
5.81015 3.02227e-16 3.02225e-16 2.06752e-21 6.84094e-06 1.46958e-05 2.54374e-28 1.94542e-22
6.10839 1.06662e-15 1.06662e-15 1.6948e-21 1.58895e-06 1.3224e-05 9.62739e-27 2.72575e-21
6.42193 7.00218e-16 7.00217e-16 1.38928e-21 1.98406e-06 1.20193e-05 5.9633e-26 6.66197e-21
6.75157 5.75e-16 5.74999e-16 1.13898e-21 1.98083e-06 1.07313e-05 4.09039e-25 1.91454e-20
7.09813 6.72984e-16 6.72983e-16 9.33254e-22 1.38674e-06 9.60844e-06 3.56157e-24 7.38911e-20
7.46248 1.66151e-15 1.66151e-15 7.64457e-22 4.60098e-07 8.57447e-06 5.85884e-23 5.68071e-19
7.84553 2.12368e-15 2.12368e-15 6.26422e-22 2.9497e-07 7.57906e-06 4.49321e-22 2.1398e-18
8.24824 9.51494e-16 9.51493e-16 5.13139e-22 5.39299e-07 6.65156e-06 1.09326e-21 2.67944e-18
8.67162 7.66497e-16 7.66497e-16 4.20063e-22 5.4803e-07 5.84787e-06 4.3501e-21 5.73277e-18
9.11674 2.08538e-16 2.08537e-16 3.43868e-22 1.64895e-06 5.13015e-06 5.3415e-21 3.94421e-18
9.5847 1.18367e-16 1.18367e-16 2.81379e-22 2.37717e-06 4.48365e-06 1.25588e-20 5.40101e-18
10.0767 8.85138e-17 8.85136e-17 2.30145e-22 2.6001e-06 3.8797e-06 3.58518e-20 9.31241e-18
10.5939 8.44456e-17 8.44454e-17 1.88099e-22 2.22746e-06 3.30107e-06 1.20825e-19 1.96141e-17
11.1377 2.61545e-16 2.61545e-16 1.53618e-22 5.87347e-07 2.76473e-06 1.22783e-18 1.28635e-16
11.7094 1.41675e-16 1.41675e-16 1.26627e-22 8.93789e-07 2.28959e-06 2.0342e-18 1.41757e-16
12.3105 1.39085e-16 1.39085e-16 1.02961e-22 7.40274e-07 1.79031e-06 5.71323e-18 2.72456e-16
12.9424 1.15846e-16 1.15846e-16 8.40727e-23 7.25731e-07 1.30433e-06 1.27757e-17 4.28219e-16
13.6067 9.18729e-17 9.18728e-17 6.86514e-23 7.47243e-07 8.98806e-07 2.56064e-17 6.18602e-16
14.3051 7.15588e-17 7.15587e-17 5.6014e-23 7.8277e-07 5.4721e-07 4.75896e-17 8.48436e-16
15.0394 5.88613e-17 5.88612e-17 4.56761e-23 7.75995e-07 2.30867e-07 8.84346e-17 1.18966e-15
15.8114 5.93978e-17 5.93977e-17 3.72452e-23 6.27047e-07 -6.57343e-08 1.91388e-16 1.98373e-15
16.623 7.95208e-17 7.95208e-17 3.03648e-23 3.81848e-07 -3.64268e-07 5.22994e-16 4.25944e-15
17.4762 6.82848e-17 6.82848e-17 2.47426e-23 3.62344e-07 -6.51438e-07 8.74525e-16 5.70063e-15
18.3733 4.61429e-17 4.61429e-17 2.01504e-23 4.36697e-07 -9.23284e-07 1.1004e-15 5.84128e-15
19.3164 3.89603e-17 3.89603e-17 1.64317e-23 4.21755e-07 -1.20044e-06 1.65795e-15 7.28429e-15
20.3079 3.30878e-17 3.30878e-17 1.34078e-23 4.05219e-07 -1.51499e-06 2.41289e-15 8.90869e-15
21.3503 2.85415e-17 2.85415e-17 1.09521e-23 3.83724e-07 -1.74504e-06 3.43193e-15 1.08009e-14
22.4463 2.47635e-17 2.47634e-17 8.97508e-24 3.62432e-07 -1.92832e-06 4.73319e-15 1.28679e-14
23.5984 2.15389e-17 2.15389e-17 7.39891e-24 3.43514e-07 -2.09619e-06 6.31991e-15 1.50281e-14
24.8097 1.87645e-17 1.87645e-17 6.15224e-24 3.27866e-07 -2.32588e-06 8.17667e-15 1.72051e-14
26.0832 1.63762e-17 1.63762e-17 5.18184e-24 3.16425e-07 -2.47824e-06 1.02686e-14 1.9328e-14
27.4221 1.43251e-17 1.43251e-17 4.42484e-24 3.08886e-07 -2.59916e-06 1.2544e-14 2.13348e-14
28.8297 1.25594e-17 1.25594e-17 3.84209e-24 3.05914e-07 -2.64677e-06 1.49263e-14 2.31561e-14
30.3095 1.10349e-17 1.10349e-17 3.37725e-24 3.06051e-07 -2.66742e-06 1.7323e-14 2.47277e-14
31.8653 9.71637e-18 9.71637e-18 2.96731e-24 3.05392e-07 -2.62346e-06 1.96347e-14 2.59986e-14
33.5009 8.57709e-18 8.57708e-18 2.60266e-24 3.03444e-07 -2.57578e-06 2.17705e-14 2.69413e-14
35.2206 7.58621e-18 7.58621e-18 2.22889e-24 2.93809e-07 -2.42949e-06 2.36281e-14 2.75184e-14
37.0284 6.72222e-18 6.72222e-18 1.88534e-24 2.80464e-07 -2.28425e-06 2.51281e-14 2.77194e-14
38.9291 5.9678e-18 5.96779e-18 1.56621e-24 2.62444e-07 -2.08673e-06 2.62146e-14 2.75532e-14
40.9273 5.30788e-18 5.30788e-18 1.28856e-24 2.42763e-07 -1.87608e-06 2.68551e-14 2.70415e-14
43.0282 4.72778e-18 4.72778e-18 1.05122e-24 2.2235e-07 -1.59625e-06 2.70313e-14 2.62074e-14
45.2368 4.21669e-18 4.21669e-18 8.54725e-25 2.02701e-07 -1.29376e-06 2.67562e-14 2.50921e-14
47.5588 3.76642e-18 3.76642e-18 6.93227e-25 1.84055e-07 -7.75408e-07 2.60712e-14 2.37498e-14
50 3.36829e-18 3.36829e-18 5.6234e-25 1.66951e-07 -2.78352e-07 2.50227e-14 2.22278e-14
52.5665 3.01523e-18 3.01523e-18 4.55892e-25 1.51197e-07 2.68544e-07 2.36708e-14 2.05761e-14
55.2648 2.70164e-18 2.70164e-18 3.69668e-25 1.36831e-07 7.63589e-07 2.20856e-14 1.88468e-14
58.1015 2.42345e-18 2.42345e-18 3.00165e-25 1.23859e-07 1.19359e-06 2.03452e-14 1.70932e-14
61.0839 2.17547e-18 2.17547e-18 2.43826e-25 1.1208e-07 1.54328e-06 1.85097e-14 1.53508e-14
64.2193 1.95413e-18 1.95413e-18 1.98144e-25 1.01397e-07 1.81437e-06 1.66417e-14 1.36558e-14
67.5157 1.75657e-18 1.75657e-18 1.61146e-25 9.17392e-08 1.99592e-06 1.47971e-14 1.20393e-14
70.9813 1.58013e-18 1.58013e-18 1.31184e-25 8.30213e-08 2.10354e-06 1.30204e-14 1.05237e-14
74.6248 1.42206e-18 1.42206e-18 1.06824e-25 7.51187e-08 2.14571e-06 1.1342e-14 9.12174e-15
78.4553 1.28034e-18 1.28034e-18 8.70058e-26 6.7955e-08 2.12888e-06 9.7862e-15 7.843e-15
82.4824 1.15343e-18 1.15343e-18 7.09282e-26 6.14932e-08 2.05405e-06 8.36986e-15 6.69306e-15
86.7162 1.03953e-18 1.03953e-18 5.78444e-26 5.56446e-08 1.90726e-06 7.0984e-15 5.67011e-15
91.1674 9.37147e-19 9.37147e-19 4.71786e-26 5.03428e-08 1.72568e-06 5.97179e-15 4.76958e-15
95.847 8.45074e-19 8.45074e-19 3.84836e-26 4.55387e-08 1.53206e-06 4.98609e-15 3.9851e-15
100.767 7.62441e-19 7.62441e-19 3.14196e-26 4.12092e-08 1.34258e-06 4.1346e-15 3.30918e-15
105.939 6.88017e-19 6.88017e-19 2.56497e-26 3.72807e-08 1.11963e-06 3.40545e-15 2.73102e-15
111.377 6.20958e-19 6.20958e-19 2.09368e-26 3.37168e-08 8.94278e-07 2.78711e-15 2.24067e-15
117.094 5.60586e-19 5.60586e-19 1.70971e-26 3.04985e-08 6.79305e-07 2.26773e-15 1.82835e-15
123.105 5.06239e-19 5.06239e-19 1.39729e-26 2.76014e-08 4.74696e-07 1.83513e-15 1.48427e-15
129.424 4.57206e-19 4.57206e-19 1.14297e-26 2.4999e-08 2.89866e-07 1.4772e-15 1.19887e-15
136.067 4.12956e-19 4.12956e-19 9.35684e-27 2.26582e-08 1.39471e-07 1.18317e-15 9.63704e-16
143.051 3.73099e-19 3.73099e-19 7.67101e-27 2.05602e-08 6.44418e-09 9.43465e-16 7.71325e-16
150.394 3.37134e-19 3.37134e-19 6.28712e-27 1.86487e-08 -1.02194e-07 7.49076e-16 6.14737e-16
158.114 3.04648e-19 3.04648e-19 5.14529e-27 1.68893e-08 -1.85404e-07 5.92283e-16 4.87934e-16
166.23 2.75307e-19 2.75307e-19 4.20813e-27 1.52852e-08 -2.70305e-07 4.66504e-16 3.85796e-16
174.763 2.48865e-19 2.48865e-19 3.44309e-27 1.38351e-08 -3.35866e-07 3.66197e-16 3.04003e-16
183.733 2.24966e-19 2.24966e-19 2.81577e-27 1.25164e-08 -3.91746e-07 2.86474e-16 2.3872e-16
193.164 2.03362e-19 2.03362e-19 2.30219e-27 1.13207e-08 -4.42902e-07 2.23384e-16 1.8684e-16
203.079 1.83854e-19 1.83854e-19 1.88269e-27 1.02401e-08 -4.64068e-07 1.73682e-16 1.45797e-16
213.503 1.66244e-19 1.66244e-19 1.54023e-27 9.26485e-09 -4.82651e-07 1.34677e-16 1.13455e-16
224.463 1.50319e-19 1.50319e-19 1.25981e-27 8.38094e-09 -5.01625e-07 1.04151e-16 8.80423e-17
235.984 1.35915e-19 1.35915e-19 1.03023e-27 7.58002e-09 -5.23574e-07 8.03415e-17 6.81416e-17
248.097 1.22915e-19 1.22915e-19 8.42947e-28 6.85796e-09 -5.32354e-07 6.18414e-17 5.26197e-17
260.832 1.11163e-19 1.11163e-19 6.8975e-28 6.20487e-09 -5.64202e-07 4.74981e-17 4.05408e-17
274.221 1.0053e-19 1.0053e-19 5.64264e-28 5.61289e-09 -5.36488e-07 3.64047e-17 3.11651e-17
288.297 9.09128e-20 9.09128e-20 4.61548e-28 5.07682e-09 -5.63748e-07 2.78474e-17 2.39078e-17
303.095 8.2234e-20 8.2234e-20 3.77782e-28 4.59398e-09 -5.55435e-07 2.12675e-17 1.8309e-17
318.653 7.43798e-20 7.43798e-20 3.09149e-28 4.15636e-09 -5.28554e-07 1.62136e-17 1.39948e-17
335.009 6.72723e-20 6.72723e-20 2.52923e-28 3.75969e-09 -5.42558e-07 1.23401e-17 1.06782e-17
352.206 6.08484e-20 6.08484e-20 2.06964e-28 3.4013e-09 -4.98169e-07 9.37837e-18 8.13487e-18
370.284 5.50439e-20 5.50439e-20 1.6941e-28 3.07772e-09 -5.35285e-07 7.1181e-18 6.18846e-18
389.291 4.979e-20 4.979e-20 1.38635e-28 2.7844e-09 -4.89641e-07 5.39497e-18 4.70064e-18
409.273 4.50349e-20 4.50349e-20 1.13423e-28 2.51855e-09 -4.53687e-07 4.08353e-18 3.56542e-18
430.282 4.07406e-20 4.07406e-20 9.28446e-29 2.27892e-09 -5.13513e-07 3.0877e-18 2.70129e-18
452.368 3.68558e-20 3.68558e-20 7.59962e-29 2.06199e-09 -4.34508e-07 2.33211e-18 2.04412e-18
475.588 3.33392e-20 3.33392e-20 6.21897e-29 1.86536e-09 -3.51616e-07 1.75942e-18 1.54493e-18
500 3.01572e-20 3.01572e-20 5.08846e-29 1.68731e-09 -4.19286e-07 1.32601e-18 1.16635e-18
525.665 2.72841e-20 2.72841e-20 4.16608e-29 1.52692e-09 -3.64785e-07 9.98607e-19 8.79801e-19
552.648 2.46829e-20 2.46829e-20 3.40996e-29 1.38151e-09 -3.0884e-07 7.51315e-19 6.62955e-19
581.015 2.23281e-20 2.23281e-20 2.79035e-29 1.2497e-09 -1.82293e-07 5.64749e-19 4.99065e-19
610.838 2.01993e-20 2.01993e-20 2.28379e-29 1.13063e-09 -1.92058e-07 4.24205e-19 3.75391e-19
642.193 1.82751e-20 1.82751e-20 1.86966e-29 1.02307e-09 -2.60264e-07 3.18425e-19 2.82158e-19
675.157 1.65328e-20 1.65328e-20 1.53022e-29 9.25568e-10 -2.735e-07 2.38833e-19 2.11899e-19
709.813 1.49556e-20 1.49556e-20 1.25209e-29 8.3721e-10 -2.65636e-07 1.79004e-19 1.59008e-19
746.247 1.35311e-20 1.35311e-20 1.02508e-29 7.57572e-10 -1.64709e-07 1.34101e-19 1.19256e-19
784.553 1.22419e-20 1.22419e-20 8.39144e-30 6.85467e-10 -3.38146e-07 1.00398e-19 8.93812e-20
824.824 1.10748e-20 1.10748e-20 6.86757e-30 6.2011e-10 -1.17954e-07 7.51181e-20 6.69439e-20
867.162 1.00187e-20 1.00187e-20 5.61979e-30 5.60932e-10 -1.01439e-07 5.61723e-20 5.01086e-20
911.674 9.06476e-21 9.06476e-21 4.60135e-30 5.07609e-10 -2.20804e-07 4.19905e-20 3.74925e-20
958.471 8.20105e-21 8.20105e-21 3.76644e-30 4.59263e-10 9.30401e-08 3.13717e-20 2.80358e-20
1007.67 7.41908e-21 7.41908e-21 3.08217e-30 4.15439e-10 -3.38226e-07 2.3426e-20 2.09525e-20
1059.39 6.71213e-21 6.71213e-21 2.52288e-30 3.75869e-10 -1.4624e-07 1.74864e-20 1.56525e-20
1113.77 6.07297e-21 6.07297e-21 2.06552e-30 3.40116e-10 -2.88784e-08 1.30484e-20 1.16888e-20
1170.94 5.49423e-21 5.49423e-21 1.69056e-30 3.07698e-10 4.82578e-07 9.73222e-21 8.72437e-21
1231.05 4.97027e-21 4.97027e-21 1.38336e-30 2.78327e-10 -4.20828e-07 7.25567e-21 6.5087e-21
1294.24 4.49702e-21 4.49702e-21 1.13261e-30 2.51858e-10 -2.74921e-07 5.40836e-21 4.85471e-21
1360.67 4.06872e-21 4.06872e-21 9.27188e-31 2.27882e-10 -3.71534e-07 4.02994e-21 3.61962e-21
1430.51 3.68091e-21 3.68091e-21 7.58822e-31 2.06151e-10 -7.15175e-08 3.00165e-21 2.6976e-21
1503.94 3.32998e-21 3.32998e-21 6.2098e-31 1.86482e-10 -8.03157e-08 2.23504e-21 2.00976e-21
1581.14 3.01299e-21 3.01299e-21 5.08462e-31 1.68756e-10 -7.81403e-08 1.66403e-21 1.49709e-21
1662.3 2.72597e-21 2.72597e-21 4.16212e-31 1.52684e-10 -5.98684e-08 1.23848e-21 1.11478e-21
1747.63 2.46608e-21 2.46608e-21 3.40603e-31 1.38115e-10 8.70198e-07 9.21443e-22 8.29807e-22
1837.33 2.23115e-21 2.23115e-21 2.78801e-31 1.24959e-10 5.51351e-07 6.85459e-22 6.1757e-22
1931.64 2.01871e-21 2.01871e-21 2.28262e-31 1.13073e-10 2.99048e-07 5.09827e-22 4.59529e-22
2030.79 1.82636e-21 1.82636e-21 1.86831e-31 1.02297e-10 7.39838e-07 3.79086e-22 3.41825e-22
2135.03 1.6522e-21 1.6522e-21 1.5288e-31 9.25312e-11 1.31781e-06 2.8179e-22 2.54191e-22
2244.63 1.49492e-21 1.49492e-21 1.25172e-31 8.3732e-11 -1.77698e-06 2.09464e-22 1.89018e-22
2359.84 1.35255e-21 1.35255e-21 1.02471e-31 7.57616e-11 -5.89249e-07 1.55668e-22 1.40522e-22
2480.97 1.22364e-21 1.22364e-21 8.38649e-32 6.85371e-11 -4.97694e-07 1.15657e-22 1.04439e-22
2608.32 1.10699e-21 1.10699e-21 6.86329e-32 6.19994e-11 1.74213e-07 8.5915e-23 7.76061e-23
2742.21 1.00162e-21 1.00162e-21 5.61961e-32 5.61051e-11 -5.95756e-07 6.38212e-23 5.76662e-23
2882.96 9.0621e-22 9.0621e-22 4.60007e-32 5.07616e-11 4.83509e-07 4.73983e-23 4.28394e-23
3030.95 8.19822e-22 8.19822e-22 3.76445e-32 4.59179e-11 -6.13708e-07 3.51936e-23 3.18172e-23
