# 0.000594021 3 93 : grain size, compostion index, size index
# This grain was stochastically heated: No
# Heating and cooling timescale: 9.36476e-05 8.58419e+12
# Ratio of heating to cooling to determine stochastic cutoff: 100
# Equilibrium emission is recorded even for those grains in the stochastic regime.
# Emission spectrum was computed for: 
# Type: IRSF
# Scale: 1
# Temperature: -1
# Wavelength  CExt  CAbs  CSca  Albedo G EqEmission StEmission
0.05 2.24052e-06 7.88143e-07 1.45238e-06 0.648233 0.855382 0 0
0.0525665 2.24177e-06 7.75788e-07 1.46598e-06 0.653939 0.843044 0 0
0.0552647 2.24306e-06 7.66596e-07 1.47647e-06 0.658237 0.832808 0 0
0.0581015 2.24431e-06 7.62693e-07 1.48162e-06 0.660166 0.826543 0 0
0.0610839 2.24557e-06 7.52246e-07 1.49333e-06 0.665009 0.817915 0 0
0.0642193 2.24713e-06 7.25712e-07 1.52142e-06 0.67705 0.79989 0 0
0.0675157 2.24909e-06 6.9966e-07 1.54943e-06 0.688914 0.780201 0 0
0.0709813 2.25118e-06 6.98002e-07 1.55318e-06 0.68994 0.77322 0 0
0.0746248 2.25322e-06 7.09711e-07 1.54351e-06 0.685024 0.77461 0 0
0.0784553 2.25513e-06 7.2559e-07 1.52954e-06 0.678249 0.779504 0 0
0.0824824 2.25703e-06 7.43652e-07 1.51337e-06 0.670517 0.785353 0 0
0.0867162 2.25896e-06 7.48743e-07 1.51022e-06 0.668545 0.784283 0 0
0.0911674 2.26113e-06 7.46647e-07 1.51449e-06 0.669791 0.779232 0 0
0.095847 2.26334e-06 7.51414e-07 1.51192e-06 0.668006 0.777509 0 0
0.100767 2.26481e-06 7.79041e-07 1.48577e-06 0.656024 0.788781 0 0
0.105939 2.26582e-06 8.06368e-07 1.45945e-06 0.644116 0.803204 0 0
0.111377 2.26567e-06 8.54856e-07 1.41082e-06 0.622692 0.830729 0 0
0.117094 2.26551e-06 9.0406e-07 1.36145e-06 0.600946 0.862637 0 0
0.123105 2.26624e-06 9.36202e-07 1.33004e-06 0.586893 0.884981 0 0
0.129424 2.26732e-06 9.63785e-07 1.30353e-06 0.574923 0.904689 0 0
0.136067 2.26841e-06 9.86109e-07 1.2823e-06 0.565287 0.920664 0 0
0.143051 2.26912e-06 1.00353e-06 1.26559e-06 0.557743 0.933122 0 0
0.150394 2.26904e-06 1.01315e-06 1.25589e-06 0.55349 0.941146 0 0
0.158114 2.26884e-06 1.00903e-06 1.25981e-06 0.555266 0.942014 0 0
0.16623 2.26996e-06 9.84344e-07 1.28561e-06 0.56636 0.931409 0 0
0.174762 2.27317e-06 9.37401e-07 1.33577e-06 0.587624 0.905457 0 0
0.183733 2.2773e-06 8.7919e-07 1.39811e-06 0.613934 0.870458 0 0
0.193164 2.28194e-06 8.19298e-07 1.46264e-06 0.640964 0.834469 0 0
0.203079 2.28696e-06 7.67812e-07 1.51915e-06 0.664265 0.804771 0 0
0.213503 2.29247e-06 7.24128e-07 1.56834e-06 0.684127 0.780674 0 0
0.224463 2.29901e-06 6.96549e-07 1.60246e-06 0.697022 0.764107 0 0
0.235984 2.3064e-06 6.83116e-07 1.62329e-06 0.703817 0.753031 0 0
0.248097 2.31392e-06 6.91162e-07 1.62276e-06 0.701303 0.749462 0 0
0.260832 2.31904e-06 7.11544e-07 1.6075e-06 0.693173 0.75146 0 0
0.274221 2.32153e-06 7.33902e-07 1.58762e-06 0.683871 0.755331 0 0
0.288297 2.32188e-06 7.60971e-07 1.5609e-06 0.67226 0.764331 0 0
0.303095 2.32294e-06 7.79778e-07 1.54317e-06 0.664315 0.771241 0 0
0.318653 2.32436e-06 7.95306e-07 1.52905e-06 0.657838 0.777339 0 0
0.335009 2.3263e-06 8.07943e-07 1.51836e-06 0.652692 0.782604 0 0
0.352205 2.32882e-06 8.17185e-07 1.51163e-06 0.649099 0.786325 0 0
0.370284 2.33174e-06 8.23793e-07 1.50795e-06 0.646705 0.788616 0 0
0.389291 2.33494e-06 8.28085e-07 1.50685e-06 0.64535 0.789476 0 0
0.409273 2.33824e-06 8.31722e-07 1.50652e-06 0.644296 0.789974 0 0
0.430281 2.34164e-06 8.35069e-07 1.50657e-06 0.643382 0.790308 0 0
0.452368 2.34524e-06 8.38526e-07 1.50671e-06 0.642456 0.790827 0 0
0.475588 2.349e-06 8.41869e-07 1.50713e-06 0.641605 0.791289 0 0
0.5 2.35301e-06 8.44801e-07 1.50821e-06 0.64097 0.791494 0 0
0.525665 2.35726e-06 8.47499e-07 1.50976e-06 0.640473 0.79154 0 0
0.552647 2.36164e-06 8.50077e-07 1.51157e-06 0.640049 0.791463 0 0
0.581015 2.36638e-06 8.51439e-07 1.51494e-06 0.640194 0.790606 0 0
0.610839 2.37125e-06 8.52802e-07 1.51845e-06 0.640357 0.789705 0 0
0.642193 2.37625e-06 8.54161e-07 1.52209e-06 0.640542 0.788756 0 0
0.675157 2.38145e-06 8.5507e-07 1.52637e-06 0.640945 0.787492 0 0
0.709813 2.3868e-06 8.55556e-07 1.53125e-06 0.641547 0.785931 0 0
0.746248 2.39227e-06 8.5585e-07 1.53642e-06 0.642243 0.784209 0 0
0.784553 2.39787e-06 8.56103e-07 1.54176e-06 0.642973 0.782438 0 0
0.824824 2.40354e-06 8.56323e-07 1.54722e-06 0.643725 0.780606 0 0
0.867162 2.4093e-06 8.56496e-07 1.55281e-06 0.644505 0.778717 0 0
0.911674 2.41514e-06 8.56681e-07 1.55846e-06 0.645288 0.776805 0 0
0.95847 2.421e-06 8.57003e-07 1.564e-06 0.646013 0.774923 0 0
1.00767 2.42708e-06 8.57309e-07 1.56977e-06 0.646773 0.773024 0 0
1.05939 2.43337e-06 8.57845e-07 1.57553e-06 0.647466 0.771215 0 0
1.11377 2.43903e-06 8.58235e-07 1.58079e-06 0.648124 0.769259 0 0
1.17094 2.44461e-06 8.58761e-07 1.58585e-06 0.648713 0.76731 0 0
1.23105 2.45352e-06 8.59064e-07 1.59445e-06 0.649864 0.76558 0 0
1.29424 2.45694e-06 8.58731e-07 1.59821e-06 0.650488 0.76302 0 0
1.36067 2.46572e-06 8.58046e-07 1.60768e-06 0.65201 0.760846 0 0
1.43051 2.47238e-06 8.56806e-07 1.61557e-06 0.653448 0.758327 0 0
1.50394 2.47718e-06 8.5494e-07 1.62224e-06 0.654874 0.755301 0 0
1.58114 2.48641e-06 8.52346e-07 1.63406e-06 0.657198 0.752403 0 0
1.6623 2.49515e-06 8.48558e-07 1.64659e-06 0.659917 0.748993 0 0
1.74762 2.49343e-06 8.43832e-07 1.6496e-06 0.661577 0.744473 0 0
1.83733 2.52189e-06 8.37957e-07 1.68393e-06 0.667727 0.742308 0 0
1.93164 2.49707e-06 8.33099e-07 1.66397e-06 0.666369 0.734979 0 0
2.03079 2.53128e-06 8.26295e-07 1.70498e-06 0.673566 0.733465 0 0
2.13503 2.54353e-06 8.17995e-07 1.72553e-06 0.678401 0.727725 0 0
2.24463 2.50905e-06 8.09556e-07 1.6995e-06 0.677346 0.718616 0 0
2.35984 2.56104e-06 8.0095e-07 1.76009e-06 0.687256 0.720611 0 0
2.48097 2.5808e-06 7.97318e-07 1.78348e-06 0.691058 0.71673 0 0
2.60832 2.53493e-06 7.85601e-07 1.74933e-06 0.69009 0.704081 0 0
2.74221 2.55405e-06 7.79259e-07 1.7748e-06 0.694893 0.699398 5.28636e-296 0
2.88297 2.62269e-06 7.76525e-07 1.84616e-06 0.70392 0.701785 2.29312e-281 0
3.03095 2.61454e-06 7.6787e-07 1.84667e-06 0.706307 0.694342 1.88067e-267 0
3.18653 2.54999e-06 7.53861e-07 1.79613e-06 0.704367 0.67713 3.16359e-254 0
3.35009 2.56202e-06 7.4422e-07 1.8178e-06 0.709519 0.67021 1.19414e-241 0
3.52205 2.64703e-06 7.3316e-07 1.91387e-06 0.723025 0.679254 1.07985e-229 0
3.70284 2.68621e-06 7.23371e-07 1.96284e-06 0.73071 0.678833 2.51737e-218 0
3.89291 2.63546e-06 7.20981e-07 1.91448e-06 0.72643 0.659074 1.63058e-207 0
4.09273 2.577e-06 7.29466e-07 1.84753e-06 0.716932 0.643239 3.14066e-197 0
4.30281 2.59247e-06 7.18481e-07 1.87399e-06 0.722859 0.64784 1.83156e-187 0
4.52368 2.65238e-06 6.85977e-07 1.96641e-06 0.741373 0.653526 3.40948e-178 0
4.75588 2.75298e-06 7.00588e-07 2.05239e-06 0.745517 0.658195 2.36007e-169 0
5 2.78437e-06 6.92119e-07 2.09225e-06 0.751427 0.645623 5.78441e-161 0
5.25665 2.78151e-06 6.90296e-07 2.09121e-06 0.751827 0.646101 5.50295e-153 0
5.52648 2.66346e-06 6.6236e-07 2.0011e-06 0.751316 0.602476 2.02843e-145 0
5.81015 2.59028e-06 6.87221e-07 1.90306e-06 0.734692 0.577954 3.40508e-138 0
6.10839 2.60788e-06 6.35561e-07 1.97232e-06 0.756292 0.575195 2.23774e-131 0
6.42193 2.64598e-06 6.78397e-07 1.96758e-06 0.743612 0.578006 7.76253e-125 0
6.75157 2.81659e-06 6.27671e-07 2.18892e-06 0.777152 0.612439 1.10864e-118 0
7.09813 2.90955e-06 6.83552e-07 2.226e-06 0.765066 0.605826 9.18313e-113 0
7.46248 2.97245e-06 6.20889e-07 2.35156e-06 0.791119 0.636902 3.23505e-107 0
7.84553 3.01678e-06 6.97635e-07 2.31914e-06 0.768748 0.605727 7.43076e-102 0
8.24824 2.82933e-06 6.13025e-07 2.2163e-06 0.783332 0.613434 7.25726e-97 0
8.67162 2.81789e-06 6.91314e-07 2.12658e-06 0.754669 0.587682 5.0962e-92 0
9.11674 2.65244e-06 6.54683e-07 1.99776e-06 0.753177 0.524055 1.7316e-87 0
9.5847 2.63838e-06 6.9495e-07 1.94343e-06 0.7366 0.506289 3.9046e-83 0
10.0767 2.61246e-06 6.95112e-07 1.91735e-06 0.733925 0.468504 5.03789e-79 0
10.5939 2.65953e-06 6.79054e-07 1.98047e-06 0.744671 0.458611 3.95112e-75 0
11.1377 2.85657e-06 7.45387e-07 2.11119e-06 0.739063 0.463559 2.21749e-71 0
11.7094 2.83939e-06 7.31453e-07 2.10794e-06 0.742391 0.451258 7.24305e-68 0
12.3105 3.05502e-06 7.04354e-07 2.35066e-06 0.769444 0.506797 1.54362e-64 0
12.9424 3.28118e-06 7.54498e-07 2.52669e-06 0.770053 0.520278 2.48179e-61 0
13.6067 3.31321e-06 7.64034e-07 2.54918e-06 0.769398 0.507812 2.60744e-58 0
14.3051 3.25152e-06 7.10651e-07 2.54087e-06 0.781441 0.500658 1.77078e-55 0
15.0394 3.29657e-06 7.18563e-07 2.57801e-06 0.782027 0.501664 9.36037e-53 0
15.8114 3.3168e-06 7.56299e-07 2.5605e-06 0.771979 0.499086 3.74796e-50 0
16.623 3.22041e-06 7.66161e-07 2.45425e-06 0.762092 0.488036 1.06765e-47 0
17.4762 3.07361e-06 7.48469e-07 2.32514e-06 0.756486 0.472013 2.19985e-45 0
18.3733 2.94117e-06 7.38636e-07 2.20254e-06 0.748863 0.458255 3.48341e-43 0
19.3164 2.82078e-06 7.41512e-07 2.07927e-06 0.737125 0.446356 4.32556e-41 0
20.3079 2.70141e-06 7.43721e-07 1.95769e-06 0.724691 0.429273 4.19023e-39 0
21.3503 2.59716e-06 7.43143e-07 1.85402e-06 0.713863 0.400975 3.19575e-37 0
22.4463 2.52743e-06 7.42964e-07 1.78447e-06 0.70604 0.360252 1.94953e-35 0
23.5984 2.50314e-06 7.4742e-07 1.75572e-06 0.701406 0.310998 9.67135e-34 0
24.8097 2.52391e-06 7.57017e-07 1.76689e-06 0.700061 0.258597 3.94497e-32 0
26.0832 2.58729e-06 7.75944e-07 1.81134e-06 0.700094 0.207725 1.34307e-30 0
27.4221 2.67191e-06 7.98202e-07 1.8737e-06 0.701261 0.160495 3.82069e-29 0
28.8297 2.77557e-06 8.26852e-07 1.94872e-06 0.702097 0.117918 9.19393e-28 0
30.3095 2.87748e-06 8.55413e-07 2.02207e-06 0.702721 0.0790706 1.872e-26 0
31.8653 2.96303e-06 8.80874e-07 2.08215e-06 0.702712 0.0434955 3.24051e-25 0
33.5009 3.02361e-06 9.00826e-07 2.12279e-06 0.70207 0.0106377 4.79461e-24 0
35.2206 3.04332e-06 9.15671e-07 2.12765e-06 0.699121 -0.0188227 6.11381e-23 0
37.0284 3.02738e-06 9.25995e-07 2.10138e-06 0.694126 -0.0452535 6.77165e-22 0
38.9291 2.96524e-06 9.31953e-07 2.03329e-06 0.685707 -0.0681874 6.56055e-21 0
40.9273 2.85707e-06 9.2914e-07 1.92793e-06 0.674793 -0.0882787 5.56873e-20 0
43.0282 2.69857e-06 9.14175e-07 1.7844e-06 0.661238 -0.105896 4.15071e-19 0
45.2368 2.49625e-06 8.81998e-07 1.61425e-06 0.646671 -0.12171 2.71473e-18 0
47.5588 2.25975e-06 8.36908e-07 1.42284e-06 0.629645 -0.135674 1.57117e-17 0
50 2.00478e-06 7.76215e-07 1.22856e-06 0.612817 -0.148538 8.0382e-17 0
52.5665 1.75065e-06 7.10819e-07 1.03983e-06 0.593969 -0.159919 3.69027e-16 0
55.2648 1.51043e-06 6.43945e-07 8.6648e-07 0.573666 -0.170203 1.53029e-15 0
58.1015 1.29441e-06 5.80333e-07 7.14076e-07 0.551662 -0.179486 5.78991e-15 0
61.0839 1.10618e-06 5.22546e-07 5.8363e-07 0.52761 -0.18786 2.01584e-14 0
64.2193 9.46087e-07 4.71747e-07 4.74339e-07 0.50137 -0.195403 6.50728e-14 0
67.5157 8.12537e-07 4.2826e-07 3.84277e-07 0.472935 -0.202101 1.96078e-13 0
70.9813 7.02313e-07 3.91453e-07 3.1086e-07 0.442623 -0.208047 5.54227e-13 0
74.6248 6.11823e-07 3.60633e-07 2.5119e-07 0.41056 -0.21327 1.47609e-12 0
78.4553 5.37927e-07 3.35044e-07 2.02883e-07 0.377158 -0.217805 3.71857e-12 0
82.4824 4.78342e-07 3.14347e-07 1.63995e-07 0.34284 -0.2216 8.9012e-12 0
86.7162 4.30262e-07 2.97636e-07 1.32625e-07 0.308243 -0.224506 2.0292e-11 0
91.1674 3.91086e-07 2.83798e-07 1.07288e-07 0.274333 -0.226594 4.40871e-11 0
95.847 3.59345e-07 2.72515e-07 8.683e-08 0.241634 -0.227951 9.15341e-11 0
100.767 3.34582e-07 2.64215e-07 7.03668e-08 0.210313 -0.228424 1.82551e-10 0
105.939 3.15681e-07 2.58666e-07 5.70147e-08 0.180609 -0.227161 3.50589e-10 0
111.377 3.01772e-07 2.55551e-07 4.62217e-08 0.153167 -0.224646 6.49499e-10 0
117.094 2.91548e-07 2.54108e-07 3.74401e-08 0.128418 -0.218855 1.16016e-09 0
123.105 2.78126e-07 2.47892e-07 3.02333e-08 0.108704 -0.208907 1.9518e-09 0
129.424 2.57239e-07 2.32849e-07 2.43897e-08 0.0948134 -0.197737 3.04129e-09 0
136.067 2.32177e-07 2.12522e-07 1.96549e-08 0.0846548 -0.185417 4.43775e-09 0
143.051 1.97931e-07 1.82072e-07 1.58593e-08 0.0801255 -0.177745 5.86836e-09 0
150.394 1.65171e-07 1.52344e-07 1.28273e-08 0.0776609 -0.173503 7.33e-09 0
158.114 1.40024e-07 1.29608e-07 1.04162e-08 0.0743884 -0.175177 9.01807e-09 0
166.23 1.19185e-07 1.10718e-07 8.46732e-09 0.0710435 -0.177498 1.08088e-08 0
174.763 1.01986e-07 9.50916e-08 6.89484e-09 0.0676055 -0.180024 1.26558e-08 0
183.733 9.03844e-08 8.47648e-08 5.61956e-09 0.0621741 -0.182532 1.4965e-08 0
193.164 8.0542e-08 7.59606e-08 4.58138e-09 0.056882 -0.184823 1.73328e-08 0
203.079 7.24677e-08 6.87306e-08 3.73714e-09 0.0515697 -0.1867 1.97747e-08 0
213.503 6.63409e-08 6.32905e-08 3.05036e-09 0.04598 -0.187948 2.24264e-08 0
224.463 6.08265e-08 5.83366e-08 2.48991e-09 0.0409347 -0.189087 2.4895e-08 0
235.984 5.58523e-08 5.38198e-08 2.03249e-09 0.0363905 -0.19013 2.70788e-08 0
248.097 5.13656e-08 4.97053e-08 1.66036e-09 0.0323244 -0.191085 2.88955e-08 0
260.832 4.78532e-08 4.64968e-08 1.3564e-09 0.028345 -0.191463 3.06372e-08 0
274.221 4.47154e-08 4.36075e-08 1.10797e-09 0.0247783 -0.191728 3.19787e-08 0
288.297 4.1818e-08 4.09129e-08 9.05071e-10 0.0216431 -0.191976 3.28176e-08 0
303.095 3.9209e-08 3.84691e-08 7.399e-10 0.0188706 -0.192119 3.32017e-08 0
318.653 3.70245e-08 3.64198e-08 6.04702e-10 0.0163325 -0.191908 3.3297e-08 0
335.009 3.49824e-08 3.44882e-08 4.9415e-10 0.0141257 -0.191716 3.29099e-08 0
352.206 3.30727e-08 3.26687e-08 4.0394e-10 0.0122137 -0.191539 3.20832e-08 0
370.284 3.14431e-08 3.11128e-08 3.30274e-10 0.0105039 -0.191034 3.10312e-08 0
389.291 2.99275e-08 2.96575e-08 2.69997e-10 0.00902169 -0.190515 2.96645e-08 0
409.273 2.84967e-08 2.8276e-08 2.20688e-10 0.00774432 -0.190027 2.80279e-08 0
430.282 2.72481e-08 2.70676e-08 1.80461e-10 0.00662287 -0.189232 2.62906e-08 0
452.368 2.60887e-08 2.59412e-08 1.47566e-10 0.00565632 -0.188394 2.44283e-08 0
475.588 2.4986e-08 2.48654e-08 1.20648e-10 0.0048286 -0.187593 2.24745e-08 0
500 2.3937e-08 2.38383e-08 9.86338e-11 0.00412057 -0.186823 2.04855e-08 0
525.665 2.30448e-08 2.29641e-08 8.06619e-11 0.00350023 -0.185452 1.85958e-08 0
552.648 2.21934e-08 2.21274e-08 6.59516e-11 0.00297168 -0.184112 1.67431e-08 0
581.015 2.13782e-08 2.13243e-08 5.39144e-11 0.00252193 -0.18281 1.49582e-08 0
610.838 2.05966e-08 2.05525e-08 4.40865e-11 0.00214047 -0.181547 1.32657e-08 0
642.193 1.98456e-08 1.98095e-08 3.60619e-11 0.00181712 -0.180321 1.16831e-08 0
675.157 1.91223e-08 1.90928e-08 2.94919e-11 0.00154228 -0.179133 1.02214e-08 0
709.813 1.84404e-08 1.84163e-08 2.41108e-11 0.0013075 -0.177746 8.89441e-09 0
746.247 1.78248e-08 1.78051e-08 1.97158e-11 0.00110609 -0.175766 7.71271e-09 0
784.553 1.72306e-08 1.72145e-08 1.61217e-11 0.000935641 -0.173807 6.65179e-09 0
824.824 1.6656e-08 1.66429e-08 1.318e-11 0.000791305 -0.171869 5.70733e-09 0
867.162 1.60995e-08 1.60887e-08 1.07745e-11 0.000669248 -0.169956 4.87308e-09 0
911.674 1.55604e-08 1.55516e-08 8.81366e-12 0.000566417 -0.168067 4.14171e-09 0
958.471 1.50366e-08 1.50294e-08 7.20803e-12 0.000479365 -0.166202 3.50459e-09 0
1007.67 1.45293e-08 1.45234e-08 5.89324e-12 0.000405611 -0.164259 2.95349e-09 0
1059.39 1.40459e-08 1.4041e-08 4.81812e-12 0.000343028 -0.161756 2.481e-09 0
1113.77 1.35752e-08 1.35713e-08 3.9402e-12 0.000290249 -0.159259 2.07635e-09 0
1170.94 1.31164e-08 1.31132e-08 3.22142e-12 0.000245602 -0.156767 1.73148e-09 0
1231.05 1.26675e-08 1.26649e-08 2.63292e-12 0.000207848 -0.154035 1.43885e-09 0
1294.24 1.22279e-08 1.22258e-08 2.15291e-12 0.000176065 -0.151054 1.19165e-09 0
1360.67 1.17979e-08 1.17961e-08 1.76024e-12 0.0001492 -0.148064 9.83779e-10 0
1430.51 1.13771e-08 1.13756e-08 1.43888e-12 0.000126472 -0.14507 8.09698e-10 0
1503.94 1.09647e-08 1.09635e-08 1.17611e-12 0.000107264 -0.142038 6.64441e-10 0
1581.14 1.05528e-08 1.05519e-08 9.61611e-13 9.11235e-05 -0.138422 5.43288e-10 0
1662.3 1.0148e-08 1.01472e-08 7.86028e-13 7.74568e-05 -0.134782 4.42925e-10 0
1747.63 9.75015e-09 9.7495e-09 6.42349e-13 6.58809e-05 -0.131135 3.60078e-10 0
1837.33 9.35987e-09 9.35934e-09 5.25089e-13 5.61e-05 -0.127489 2.91937e-10 0
1931.64 8.97732e-09 8.97689e-09 4.29345e-13 4.78255e-05 -0.123852 2.36073e-10 0
2030.79 8.58818e-09 8.58783e-09 3.50853e-13 4.08529e-05 -0.119541 1.90095e-10 0
2135.03 8.16853e-09 8.16825e-09 2.86425e-13 3.50644e-05 -0.113642 1.51955e-10 0
2244.63 7.7492e-09 7.74897e-09 2.33981e-13 3.01943e-05 -0.107739 1.20977e-10 0
2359.84 7.33173e-09 7.33154e-09 1.91125e-13 2.60682e-05 -0.101865 9.5926e-11 0
2480.97 6.91814e-09 6.91798e-09 1.56085e-13 2.25617e-05 -0.0960579 7.5761e-11 0
2608.32 6.51075e-09 6.51062e-09 1.27472e-13 1.95787e-05 -0.0903537 5.96063e-11 0
2742.21 6.11208e-09 6.11197e-09 1.04169e-13 1.70431e-05 -0.0847909 4.67263e-11 0
2882.96 5.72376e-09 5.72367e-09 8.51097e-14 1.48696e-05 -0.0793933 3.65006e-11 0
3030.95 5.34763e-09 5.34756e-09 6.95255e-14 1.30012e-05 -0.0741862 2.84175e-11 0
3186.53 4.98571e-09 4.98565e-09 5.68162e-14 1.13958e-05 -0.069196 2.2057e-11 0
3350.09 4.63928e-09 4.63924e-09 4.64437e-14 1.0011e-05 -0.0644385 1.70716e-11 0
3522.05 4.30908e-09 4.30904e-09 3.79584e-14 8.80893e-06 -0.0599211 1.31778e-11 0
3702.84 3.9958e-09 3.99576e-09 3.10179e-14 7.76263e-06 -0.0556502 1.01473e-11 0
3892.91 3.70045e-09 3.70042e-09 2.53644e-14 6.85441e-06 -0.0516373 7.7976e-12 0
4092.73 3.42269e-09 3.42267e-09 2.07402e-14 6.05962e-06 -0.0478744 5.98032e-12 0
4302.81 3.16235e-09 3.16233e-09 1.69559e-14 5.3618e-06 -0.0443565 4.57851e-12 0
4523.68 2.91925e-09 2.91924e-09 1.38625e-14 4.74866e-06 -0.0410791 3.49998e-12 0
4755.88 2.69326e-09 2.69325e-09 1.13403e-14 4.21061e-06 -0.0380378 2.67235e-12 0
5000 2.4833e-09 2.48329e-09 9.27501e-15 3.73495e-06 -0.0352163 2.03806e-12 0
