# 2.33182e-07 1 18 : grain size, compostion index, size index
# This grain was stochastically heated: Yes
# Heating and cooling timescale: 60494.2 233.06
# Ratio of heating to cooling to determine stochastic cutoff: 100
# Equilibrium emission is recorded even for those grains in the stochastic regime.
# Emission spectrum was computed for: 
# Type: IRSF
# Scale: 1
# Temperature: -1
# Wavelength  CExt  CAbs  CSca  Albedo G EqEmission StEmission
0.05 5.20096e-14 5.15263e-14 4.83268e-16 0.00929191 0.0121492 0 0
0.0525665 6.02209e-14 5.97013e-14 5.19675e-16 0.00862947 0.0108186 0 0
0.0552647 6.95125e-14 6.89542e-14 5.58276e-16 0.00803131 0.00962815 0 0
0.0581015 8.32621e-14 8.26716e-14 5.90456e-16 0.00709153 0.00856178 0 0
0.0610839 1.18018e-13 1.17388e-13 6.30349e-16 0.00534113 0.00753699 0 0
0.0642193 1.49061e-13 1.48355e-13 7.06629e-16 0.00474053 0.00651931 0 0
0.0675157 1.78295e-13 1.77456e-13 8.39107e-16 0.00470629 0.00549072 0 0
0.0709813 2.04769e-13 2.03887e-13 8.81615e-16 0.00430541 0.0045884 0 0
0.0746248 1.91269e-13 1.90485e-13 7.84334e-16 0.00410068 0.00393922 0 0
0.0784553 1.50304e-13 1.49687e-13 6.16872e-16 0.00410417 0.00350657 0 0
0.0824824 1.19253e-13 1.18816e-13 4.36587e-16 0.00366103 0.00326287 0 0
0.0867162 9.98687e-14 9.95324e-14 3.36293e-16 0.00336735 0.00312009 0 0
0.0911674 8.71313e-14 8.68488e-14 2.82488e-16 0.0032421 0.00301801 0 0
0.095847 7.79496e-14 7.77247e-14 2.24915e-16 0.00288539 0.00317171 0 0
0.100767 6.83848e-14 6.82312e-14 1.53528e-16 0.00224507 0.00370027 0 4.86873e-312
0.105939 5.95948e-14 5.94885e-14 1.06314e-16 0.00178395 0.00399965 0 2.07093e-297
0.111377 5.11184e-14 5.10536e-14 6.48523e-17 0.00126867 0.00457943 0 1.64754e-283
0.117094 4.33138e-14 4.32735e-14 4.03133e-17 0.000930728 0.00421135 0 2.66808e-270
0.123105 3.64034e-14 3.63771e-14 2.62169e-17 0.000720178 0.00361603 0 9.53973e-258
0.129424 3.06188e-14 3.0602e-14 1.68384e-17 0.000549937 0.00304176 0 8.17677e-246
0.136067 2.7767e-14 2.77561e-14 1.0897e-17 0.000392444 0.00257404 0 1.9413e-234
0.143051 2.52035e-14 2.51964e-14 7.15157e-18 0.000283753 0.00219619 0 1.26632e-223
0.150394 2.38119e-14 2.3807e-14 4.86821e-18 0.000204444 0.00187517 0 2.51416e-213
0.158114 2.35421e-14 2.35384e-14 3.67826e-18 0.000156242 0.00160612 0 1.62206e-203
0.16623 2.44857e-14 2.44823e-14 3.39365e-18 0.000138598 0.00138106 0 3.61953e-194
0.174762 2.68353e-14 2.68312e-14 4.08309e-18 0.000152154 0.00118777 0 2.95459e-185
0.183733 3.10141e-14 3.10083e-14 5.8233e-18 0.000187763 0.00101185 0 9.29827e-177
0.193164 3.83949e-14 3.83856e-14 9.24729e-18 0.000240847 0.000842152 0 1.20371e-168
0.203079 5.02878e-14 5.02736e-14 1.41373e-17 0.000281127 0.000675328 0 6.63447e-161
0.213503 6.19488e-14 6.19314e-14 1.74108e-17 0.000281051 0.00051936 0 1.44719e-153
0.224463 5.9515e-14 5.95005e-14 1.4505e-17 0.00024372 0.000384612 0 1.08071e-146
0.235984 4.60409e-14 4.6031e-14 9.84025e-18 0.000213729 0.000274622 0 2.96998e-140
0.248097 3.48335e-14 3.48271e-14 6.36337e-18 0.00018268 0.00021019 0 3.79094e-134
0.260832 2.79351e-14 2.79307e-14 4.36631e-18 0.000156302 0.000218093 0 2.52639e-128
0.274221 2.38119e-14 2.38087e-14 3.14723e-18 0.000132171 0.000291086 0 9.1263e-123
0.288297 2.12441e-14 2.12417e-14 2.34465e-18 0.000110368 0.000390803 0 1.81908e-117
0.303095 1.92889e-14 1.92871e-14 1.80616e-18 9.36371e-05 0.000438552 0 2.00764e-112
0.318653 1.69094e-14 1.6908e-14 1.40603e-18 8.31507e-05 0.00045789 0 1.1995e-107
0.335009 1.49028e-14 1.49017e-14 1.10722e-18 7.42965e-05 0.000450494 0 4.15765e-103
0.352205 1.30539e-14 1.30531e-14 8.8271e-19 6.76202e-05 0.000427591 0 8.49545e-99
0.370284 1.13593e-14 1.13586e-14 7.09967e-19 6.25011e-05 0.000399834 0 1.0501e-94
0.389291 9.81651e-15 9.81594e-15 5.75434e-19 5.8619e-05 0.000372832 0 8.05056e-91
0.409273 8.42553e-15 8.42506e-15 4.67793e-19 5.5521e-05 0.000346601 0 3.92233e-87
0.430281 7.17833e-15 7.17795e-15 3.80671e-19 5.30306e-05 0.000321671 0 1.24253e-83
0.452368 6.06826e-15 6.06795e-15 3.09731e-19 5.10411e-05 0.000295906 8.63176e-298 2.61675e-80
0.475588 5.08895e-15 5.0887e-15 2.52181e-19 4.95546e-05 0.000271223 2.40364e-283 3.74362e-77
0.5 4.23446e-15 4.23426e-15 2.05866e-19 4.86168e-05 0.000247537 1.28217e-269 3.71632e-74
0.525665 3.49328e-15 3.49312e-15 1.6824e-19 4.81608e-05 0.000225138 1.41868e-256 2.61007e-71
0.552647 2.85641e-15 2.85627e-15 1.37541e-19 4.81518e-05 0.000204731 3.51311e-244 1.32163e-68
0.581015 2.31561e-15 2.3155e-15 1.12993e-19 4.87963e-05 0.000185764 2.0946e-232 4.91388e-66
0.610839 1.86094e-15 1.86084e-15 9.2854e-20 4.98964e-05 0.000168582 3.22151e-221 1.36386e-63
0.642193 1.48177e-15 1.48169e-15 7.62918e-20 5.14871e-05 0.000152996 1.36409e-210 2.86718e-61
0.675157 1.16894e-15 1.16888e-15 6.27559e-20 5.36862e-05 0.000138916 1.69284e-200 4.6277e-59
0.709813 9.14646e-16 9.14594e-16 5.17092e-20 5.65346e-05 0.000126286 6.54151e-191 5.81093e-57
0.746248 7.09347e-16 7.09304e-16 4.26144e-20 6.00756e-05 0.000115002 8.32437e-182 5.73495e-55
0.784553 5.45162e-16 5.45127e-16 3.51086e-20 6.44002e-05 0.000104755 3.67981e-173 4.49176e-53
0.824824 4.15138e-16 4.15109e-16 2.89183e-20 6.96595e-05 9.55575e-05 5.94679e-165 2.81738e-51
0.867162 3.12875e-16 3.12851e-16 2.38284e-20 7.61594e-05 8.7282e-05 3.68472e-157 1.426e-49
0.911674 2.30996e-16 2.30976e-16 1.9624e-20 8.49539e-05 7.97956e-05 9.07457e-150 5.81353e-48
0.95847 1.61204e-16 1.61188e-16 1.61479e-20 0.000100171 7.30859e-05 8.95731e-143 1.85721e-46
1.00767 1.06368e-16 1.06354e-16 1.32886e-20 0.000124931 6.69931e-05 3.69616e-136 4.68831e-45
1.05939 7.96247e-17 7.96138e-17 1.0931e-20 0.000137282 6.14665e-05 7.96191e-130 1.13126e-43
1.11377 6.1687e-17 6.1678e-17 8.98895e-21 0.000145719 5.64354e-05 8.48248e-124 2.3994e-42
1.17094 4.49239e-17 4.49166e-17 7.3887e-21 0.000164471 5.17385e-05 4.20879e-118 4.09672e-41
1.23105 3.35843e-17 3.35782e-17 6.07615e-21 0.000180922 4.74385e-05 1.09917e-112 6.20183e-40
1.29424 2.659e-17 2.65851e-17 4.99838e-21 0.000187979 4.34827e-05 1.61042e-107 8.66698e-39
1.36067 2.12531e-17 2.1249e-17 4.10937e-21 0.000193354 3.98794e-05 1.30152e-102 1.07648e-37
1.43051 1.68898e-17 1.68864e-17 3.37693e-21 0.000199939 3.65965e-05 5.88582e-98 1.1833e-36
1.50394 1.32977e-17 1.32949e-17 2.77604e-21 0.000208761 3.35621e-05 1.5263e-93 1.16087e-35
1.58114 1.03491e-17 1.03468e-17 2.28211e-21 0.000220512 3.07331e-05 2.32576e-89 1.0266e-34
1.6623 7.95764e-18 7.95577e-18 1.87625e-21 0.00023578 2.8109e-05 2.13498e-85 8.27107e-34
1.74762 6.05068e-18 6.04913e-18 1.54275e-21 0.000254972 2.57444e-05 1.21061e-81 6.12718e-33
1.83733 4.55242e-18 4.55115e-18 1.26839e-21 0.000278618 2.35831e-05 4.34147e-78 4.19366e-32
1.93164 3.3922e-18 3.39116e-18 1.04242e-21 0.000307299 2.15987e-05 1.00736e-74 2.65434e-31
2.03079 2.51083e-18 2.50998e-18 8.56513e-22 0.000341127 1.97573e-05 1.54868e-71 1.5538e-30
2.13503 1.8595e-18 1.85879e-18 7.04311e-22 0.000378764 1.80729e-05 1.62075e-68 8.43985e-30
2.24463 1.38773e-18 1.38715e-18 5.7889e-22 0.000417149 1.65379e-05 1.18487e-65 4.26894e-29
2.35984 1.05718e-18 1.0567e-18 4.75624e-22 0.0004499 1.5123e-05 6.24053e-63 2.0321e-28
2.48097 8.37208e-19 8.36818e-19 3.90712e-22 0.000466684 1.3816e-05 2.45285e-60 9.26251e-28
2.60832 7.03785e-19 7.03463e-19 3.21228e-22 0.000456429 1.26101e-05 7.46662e-58 4.12951e-27
2.74221 6.38072e-19 6.37808e-19 2.64011e-22 0.000413763 1.15126e-05 1.81626e-55 1.83205e-26
2.88297 6.33189e-19 6.32972e-19 2.16818e-22 0.000342423 1.05196e-05 3.63575e-53 8.22466e-26
3.03095 7.15974e-19 7.15796e-19 1.78092e-22 0.000248741 9.61774e-06 6.32246e-51 3.89922e-25
3.18653 1.3762e-18 1.37605e-18 1.46308e-22 0.000106313 8.78097e-06 1.4439e-48 2.92033e-24
3.35009 4.83155e-18 4.83143e-18 1.20157e-22 2.48692e-05 8.01159e-06 4.71176e-46 3.72297e-23
3.52205 1.01517e-18 1.01507e-18 9.86328e-23 9.71588e-05 7.3115e-06 7.28456e-45 2.65468e-23
3.70284 1.01696e-18 1.01688e-18 8.09998e-23 7.96489e-05 6.67146e-06 4.30053e-43 8.46156e-23
3.89291 1.16037e-18 1.1603e-18 6.64948e-23 5.7305e-05 6.08061e-06 2.34114e-41 2.88831e-22
4.09273 1.38034e-18 1.38029e-18 5.45798e-23 3.95407e-05 5.52294e-06 1.08685e-39 9.6917e-22
4.30281 1.6917e-18 1.69166e-18 4.47907e-23 2.64767e-05 5.01875e-06 4.29388e-38 3.16785e-21
4.52368 2.1502e-18 2.15017e-18 3.67684e-23 1.71e-05 4.55994e-06 1.4669e-36 1.01807e-20
4.75588 2.90459e-18 2.90456e-18 3.01713e-23 1.03875e-05 4.13925e-06 4.48025e-35 3.30516e-20
5 4.65497e-18 4.65495e-18 2.47506e-23 5.31702e-06 3.73686e-06 1.37722e-33 1.21303e-19
5.25665 1.6348e-17 1.6348e-17 2.03085e-23 1.24226e-06 3.37603e-06 7.93377e-32 9.31855e-19
5.52648 1.35628e-17 1.35628e-17 1.66626e-23 1.22855e-06 3.05315e-06 9.30375e-31 1.61896e-18
5.81015 2.45684e-17 2.45684e-17 1.36625e-23 5.56098e-07 2.75844e-06 2.06786e-29 5.89255e-18
6.10839 8.6708e-17 8.67079e-17 1.11996e-23 1.29164e-07 2.48226e-06 7.82633e-28 4.01765e-17
6.42193 5.69221e-17 5.69221e-17 9.18058e-24 1.61283e-07 2.25607e-06 4.84769e-27 4.9092e-17
6.75157 4.67429e-17 4.67429e-17 7.5266e-24 1.61021e-07 2.01436e-06 3.32516e-26 7.24299e-17
7.09813 5.47081e-17 5.47081e-17 6.16714e-24 1.12728e-07 1.80352e-06 2.89527e-25 1.47294e-16
7.46248 1.35068e-16 1.35068e-16 5.05172e-24 3.74014e-08 1.60954e-06 4.76278e-24 6.12095e-16
7.84553 1.72639e-16 1.72639e-16 4.13954e-24 2.39781e-08 1.42262e-06 3.65262e-23 1.27781e-15
8.24824 7.73488e-17 7.73488e-17 3.39095e-24 4.38397e-08 1.24861e-06 8.88731e-23 9.08745e-16
8.67162 6.23101e-17 6.23101e-17 2.77588e-24 4.45495e-08 1.09773e-06 3.53628e-22 1.13097e-15
9.11674 1.69524e-17 1.69524e-17 2.27238e-24 1.34044e-07 9.62909e-07 4.34221e-22 4.63307e-16
9.5847 9.62232e-18 9.62232e-18 1.85943e-24 1.93242e-07 8.41616e-07 1.02093e-21 3.86435e-16
10.0767 7.19546e-18 7.19546e-18 1.52087e-24 2.11365e-07 7.28378e-07 2.91447e-21 4.14914e-16
10.5939 6.86474e-18 6.86474e-18 1.24302e-24 1.81072e-07 6.19831e-07 9.82213e-21 5.55998e-16
11.1377 2.12615e-17 2.12615e-17 1.01515e-24 4.77459e-08 5.18676e-07 9.98134e-20 2.36868e-15
11.7094 1.1517e-17 1.1517e-17 8.36792e-25 7.2657e-08 4.29871e-07 1.65364e-19 1.73007e-15
12.3105 1.13065e-17 1.13065e-17 6.80398e-25 6.01776e-08 3.35832e-07 4.64441e-19 2.24711e-15
12.9424 9.41733e-18 9.41733e-18 5.55579e-25 5.89954e-08 2.44925e-07 1.03856e-18 2.43187e-15
13.6067 7.46852e-18 7.46852e-18 4.5367e-25 6.07443e-08 1.69315e-07 2.0816e-18 2.46298e-15
14.3051 5.81715e-18 5.81715e-18 3.70158e-25 6.36322e-08 1.02757e-07 3.86865e-18 2.40982e-15
15.0394 4.78495e-18 4.78494e-18 3.01843e-25 6.30818e-08 4.32635e-08 7.18902e-18 2.45102e-15
15.8114 4.82857e-18 4.82857e-18 2.46129e-25 5.09734e-08 -1.2212e-08 1.55584e-17 3.01249e-15
16.623 6.46441e-18 6.46441e-18 2.00661e-25 3.10409e-08 -6.84648e-08 4.25153e-17 4.8416e-15
17.4762 5.55102e-18 5.55102e-18 1.63507e-25 2.94553e-08 -1.2234e-07 7.1092e-17 4.92224e-15
18.3733 3.75105e-18 3.75105e-18 1.33161e-25 3.54995e-08 -1.72913e-07 8.94537e-17 3.88598e-15
19.3164 3.16716e-18 3.16716e-18 1.08586e-25 3.4285e-08 -2.2499e-07 1.34778e-16 3.7847e-15
20.3079 2.68977e-18 2.68977e-18 8.86032e-26 3.29408e-08 -2.84246e-07 1.96149e-16 3.66249e-15
21.3503 2.3202e-18 2.3202e-18 7.2375e-26 3.11934e-08 -3.28026e-07 2.78989e-16 3.5578e-15
22.4463 2.01307e-18 2.01307e-18 5.93103e-26 2.94627e-08 -3.62801e-07 3.84769e-16 3.43724e-15
23.5984 1.75095e-18 1.75095e-18 4.88945e-26 2.79246e-08 -3.91749e-07 5.1376e-16 3.29322e-15
24.8097 1.5254e-18 1.5254e-18 4.06561e-26 2.66527e-08 -4.36075e-07 6.64698e-16 3.12764e-15
26.0832 1.33126e-18 1.33126e-18 3.42433e-26 2.57225e-08 -4.65139e-07 8.34758e-16 2.94613e-15
27.4221 1.16452e-18 1.16452e-18 2.92408e-26 2.51097e-08 -4.86549e-07 1.01973e-15 2.75515e-15
28.8297 1.02098e-18 1.02098e-18 2.53899e-26 2.48682e-08 -4.96644e-07 1.21339e-15 2.55885e-15
30.3095 8.97052e-19 8.97052e-19 2.23181e-26 2.48794e-08 -5.0005e-07 1.40822e-15 2.36083e-15
31.8653 7.89861e-19 7.89861e-19 1.96089e-26 2.48258e-08 -4.91686e-07 1.59614e-15 2.16455e-15
33.5009 6.97248e-19 6.97248e-19 1.71993e-26 2.46674e-08 -4.84077e-07 1.76976e-15 1.9737e-15
35.2206 6.16699e-19 6.16699e-19 1.47293e-26 2.38841e-08 -4.5463e-07 1.92078e-15 1.78937e-15
37.0284 5.46463e-19 5.46463e-19 1.2459e-26 2.27994e-08 -4.29016e-07 2.04271e-15 1.61332e-15
38.9291 4.85135e-19 4.85135e-19 1.03501e-26 2.13345e-08 -3.89188e-07 2.13104e-15 1.4471e-15
40.9273 4.31489e-19 4.31489e-19 8.51523e-27 1.97345e-08 -3.51971e-07 2.18311e-15 1.29168e-15
43.0282 3.8433e-19 3.8433e-19 6.94686e-27 1.80752e-08 -2.99396e-07 2.19743e-15 1.14721e-15
45.2368 3.42783e-19 3.42783e-19 5.64832e-27 1.64778e-08 -2.43981e-07 2.17506e-15 1.01399e-15
47.5588 3.0618e-19 3.0618e-19 4.58109e-27 1.49621e-08 -1.47659e-07 2.11938e-15 8.9229e-16
50 2.73816e-19 2.73816e-19 3.71614e-27 1.35717e-08 -4.92132e-08 2.03415e-15 7.81723e-16
52.5665 2.45114e-19 2.45114e-19 3.0127e-27 1.2291e-08 5.0122e-08 1.92424e-15 6.81832e-16
55.2648 2.19622e-19 2.19622e-19 2.44289e-27 1.11232e-08 1.46187e-07 1.79539e-15 5.92172e-16
58.1015 1.97007e-19 1.97007e-19 1.98359e-27 1.00686e-08 2.25597e-07 1.6539e-15 5.12332e-16
61.0839 1.76849e-19 1.76849e-19 1.61129e-27 9.11114e-09 2.92484e-07 1.50469e-15 4.41453e-16
64.2193 1.58856e-19 1.58856e-19 1.3094e-27 8.24272e-09 3.39507e-07 1.35284e-15 3.78874e-16
67.5157 1.42795e-19 1.42795e-19 1.06491e-27 7.45759e-09 3.70184e-07 1.20289e-15 3.23948e-16
70.9813 1.28452e-19 1.28452e-19 8.66915e-28 6.74894e-09 4.00035e-07 1.05845e-15 2.75992e-16
74.6248 1.15603e-19 1.15603e-19 7.05929e-28 6.10651e-09 4.02209e-07 9.22016e-16 2.34261e-16
78.4553 1.04082e-19 1.04082e-19 5.74964e-28 5.52417e-09 4.08848e-07 7.95539e-16 1.98112e-16
82.4824 9.37651e-20 9.37651e-20 4.68719e-28 4.99886e-09 3.90078e-07 6.80406e-16 1.66979e-16
86.7162 8.45059e-20 8.45059e-20 3.82256e-28 4.52342e-09 3.63231e-07 5.77044e-16 1.4025e-16
91.1674 7.61826e-20 7.61826e-20 3.11772e-28 4.09243e-09 3.23874e-07 4.8546e-16 1.17387e-16
95.847 6.86978e-20 6.86978e-20 2.54312e-28 3.7019e-09 2.79061e-07 4.05329e-16 9.79119e-17
100.767 6.19804e-20 6.19804e-20 2.07631e-28 3.34994e-09 2.48554e-07 3.3611e-16 8.1411e-17
105.939 5.59303e-20 5.59303e-20 1.69502e-28 3.03059e-09 2.20304e-07 2.76837e-16 6.74597e-17
111.377 5.04791e-20 5.04791e-20 1.38357e-28 2.74089e-09 1.46362e-07 2.26571e-16 5.57094e-17
117.094 4.55713e-20 4.55713e-20 1.12983e-28 2.47926e-09 1.45748e-07 1.84349e-16 4.58567e-17
123.105 4.11532e-20 4.11532e-20 9.23379e-29 2.24376e-09 9.8908e-08 1.49181e-16 3.76269e-17
129.424 3.71672e-20 3.71672e-20 7.55314e-29 2.03221e-09 6.53601e-08 1.20085e-16 3.07714e-17
136.067 3.35701e-20 3.35701e-20 6.18333e-29 1.84192e-09 2.65632e-08 9.61828e-17 2.50817e-17
143.051 3.033e-20 3.033e-20 5.06927e-29 1.67137e-09 2.90546e-08 7.66961e-17 2.03815e-17
150.394 2.74064e-20 2.74064e-20 4.15475e-29 1.51598e-09 -1.57888e-08 6.0894e-17 1.65095e-17
158.114 2.47654e-20 2.47654e-20 3.40018e-29 1.37295e-09 -4.57535e-08 4.81479e-17 1.33298e-17
166.23 2.23803e-20 2.23803e-20 2.78089e-29 1.24256e-09 -3.82107e-08 3.79231e-17 1.07285e-17
174.763 2.02308e-20 2.02308e-20 2.27532e-29 1.12468e-09 -8.39967e-08 2.9769e-17 8.60995e-18
183.733 1.82879e-20 1.82879e-20 1.86076e-29 1.01748e-09 -9.67821e-08 2.3288e-17 6.88824e-18
193.164 1.65317e-20 1.65317e-20 1.52137e-29 9.20273e-10 -7.05133e-08 1.81593e-17 5.49393e-18
203.079 1.49459e-20 1.49459e-20 1.24414e-29 8.32432e-10 -9.89126e-08 1.41189e-17 4.36918e-18
213.503 1.35144e-20 1.35144e-20 1.01784e-29 7.53153e-10 -1.28311e-07 1.09482e-17 3.46503e-18
224.463 1.22197e-20 1.22197e-20 8.32528e-30 6.813e-10 -3.69592e-08 8.46668e-18 2.74003e-18
235.984 1.10488e-20 1.10488e-20 6.80814e-30 6.16189e-10 -1.05009e-07 6.53113e-18 2.16058e-18
248.097 9.99201e-21 9.99201e-21 5.57049e-30 5.57494e-10 -9.76526e-08 5.0272e-18 1.69935e-18
260.832 9.03664e-21 9.03664e-21 4.55811e-30 5.04404e-10 -5.5105e-08 3.86122e-18 1.33308e-18
274.221 8.17228e-21 8.17228e-21 3.72885e-30 4.56281e-10 -1.26828e-07 2.95941e-18 1.04302e-18
288.297 7.3905e-21 7.3905e-21 3.05007e-30 4.12702e-10 -7.03746e-08 2.26378e-18 8.14021e-19
303.095 6.68498e-21 6.68498e-21 2.49651e-30 3.73451e-10 -7.94941e-08 1.72888e-18 6.3391e-19
318.653 6.0465e-21 6.0465e-21 2.04297e-30 3.37877e-10 -1.7499e-07 1.31804e-18 4.92473e-19
335.009 5.46871e-21 5.46871e-21 1.6714e-30 3.0563e-10 -9.04399e-08 1.00315e-18 3.81714e-19
352.206 4.94648e-21 4.94648e-21 1.36769e-30 2.76498e-10 4.30696e-08 7.62386e-19 2.95246e-19
370.284 4.47463e-21 4.47463e-21 1.11952e-30 2.50192e-10 -1.60004e-07 5.78645e-19 2.27917e-19
389.291 4.04753e-21 4.04753e-21 9.16149e-31 2.26348e-10 1.00463e-07 4.38567e-19 1.75579e-19
409.273 3.66099e-21 3.66099e-21 7.49536e-31 2.04736e-10 -4.36531e-07 3.3196e-19 1.34993e-19
430.282 3.3119e-21 3.3119e-21 6.13547e-31 1.85256e-10 6.11129e-08 2.51006e-19 1.03615e-19
452.368 2.99609e-21 2.99609e-21 5.02209e-31 1.67621e-10 1.45679e-07 1.89582e-19 7.93913e-20
475.588 2.71022e-21 2.71022e-21 4.10971e-31 1.51637e-10 -5.05274e-08 1.43028e-19 6.07246e-20
500 2.45154e-21 2.45154e-21 3.36263e-31 1.37164e-10 2.96087e-07 1.07794e-19 4.63708e-20
525.665 2.21798e-21 2.21798e-21 2.75309e-31 1.24126e-10 6.38078e-08 8.11787e-20 3.53627e-20
552.648 2.00652e-21 2.00652e-21 2.25342e-31 1.12305e-10 -4.36225e-07 6.10758e-20 2.69263e-20
581.015 1.81509e-21 1.81509e-21 1.84397e-31 1.01591e-10 -7.7656e-08 4.59096e-20 2.04727e-20
610.838 1.64205e-21 1.64205e-21 1.50921e-31 9.19101e-11 -3.29951e-07 3.44845e-20 1.55464e-20
642.193 1.48562e-21 1.48562e-21 1.23554e-31 8.31667e-11 1.18468e-07 2.58854e-20 1.17916e-20
675.157 1.34399e-21 1.34399e-21 1.01122e-31 7.52407e-11 1.45983e-08 1.94153e-20 8.93219e-21
709.813 1.21577e-21 1.21577e-21 8.27429e-32 6.80581e-11 -7.9152e-07 1.45516e-20 6.758e-21
746.247 1.09997e-21 1.09997e-21 6.77406e-32 6.15843e-11 -2.26215e-07 1.09013e-20 5.10833e-21
784.553 9.95171e-22 9.95171e-22 5.54536e-32 5.57227e-11 7.30568e-08 8.16157e-21 3.85727e-21
824.824 9.00293e-22 9.00293e-22 4.53833e-32 5.04095e-11 1.03803e-07 6.10652e-21 2.90954e-21
867.162 8.14434e-22 8.14434e-22 3.71376e-32 4.55992e-11 -1.23945e-06 4.56634e-21 2.19256e-21
911.674 7.36893e-22 7.36893e-22 3.04073e-32 4.12642e-11 -6.95348e-07 3.4135e-21 1.65109e-21
958.471 6.6668e-22 6.6668e-22 2.48899e-32 3.73342e-11 -1.81566e-07 2.55027e-21 1.24219e-21
1007.67 6.03113e-22 6.03113e-22 2.03681e-32 3.37716e-11 1.28444e-06 1.90435e-21 9.33744e-22
1059.39 5.45643e-22 5.45643e-22 1.66721e-32 3.05549e-11 -6.11367e-07 1.42151e-21 7.01405e-22
1113.77 4.93684e-22 4.93684e-22 1.36497e-32 2.76486e-11 1.8426e-07 1.06073e-21 5.26536e-22
1170.94 4.46637e-22 4.46637e-22 1.11718e-32 2.50132e-11 -4.94836e-07 7.91153e-22 3.94962e-22
1231.05 4.04044e-22 4.04044e-22 9.14175e-33 2.26257e-11 -8.90437e-07 5.89829e-22 2.96053e-22
1294.24 3.65573e-22 3.65573e-22 7.48474e-33 2.0474e-11 2.62686e-06 4.39658e-22 2.21815e-22
1360.67 3.30755e-22 3.30755e-22 6.12717e-33 1.85248e-11 -3.37188e-07 3.27603e-22 1.6609e-22
1430.51 2.99228e-22 2.99228e-22 5.01458e-33 1.67584e-11 3.22092e-06 2.4401e-22 1.24285e-22
1503.94 2.707e-22 2.707e-22 4.10364e-33 1.51594e-11 -3.51736e-06 1.81691e-22 9.29522e-23
1581.14 2.44932e-22 2.44932e-22 3.36009e-33 1.37184e-11 -4.94096e-07 1.35273e-22 6.94952e-23
1662.3 2.216e-22 2.216e-22 2.75047e-33 1.24118e-11 -9.64401e-07 1.00679e-22 5.19291e-23
1747.63 2.00473e-22 2.00473e-22 2.25083e-33 1.12276e-11 3.06133e-07 7.49059e-23 3.87821e-23
1837.33 1.81374e-22 1.81374e-22 1.84242e-33 1.01581e-11 1.57882e-06 5.57223e-23 2.89536e-23
1931.64 1.64106e-22 1.64106e-22 1.50844e-33 9.19186e-12 3.59553e-08 4.14449e-23 2.16086e-23
2030.79 1.48469e-22 1.48469e-22 1.23464e-33 8.3158e-12 -4.94983e-06 3.08167e-23 1.61194e-23
2135.03 1.34311e-22 1.34311e-22 1.01028e-33 7.52192e-12 -4.66017e-06 2.29073e-23 1.20192e-23
2244.63 1.21525e-22 1.21525e-22 8.27183e-34 6.8067e-12 2.28703e-07 1.70278e-23 8.96044e-24
2359.84 1.09952e-22 1.09952e-22 6.77165e-34 6.15876e-12 -6.91324e-06 1.26545e-23 6.67766e-24
2480.97 9.94722e-23 9.94722e-23 5.54212e-34 5.57152e-12 4.59152e-06 9.40201e-24 4.97447e-24
2608.32 8.99899e-23 8.99899e-23 4.53552e-34 5.04003e-12 2.54642e-06 6.98421e-24 3.70453e-24
2742.21 8.14243e-23 8.14243e-23 3.71365e-34 4.56086e-12 1.3115e-06 5.18818e-24 2.75846e-24
