# 5.98828e-08 2 5 : grain size, compostion index, size index
# This grain was stochastically heated: Yes
# Heating and cooling timescale: 3.49073e+06 0.547432
# Ratio of heating to cooling to determine stochastic cutoff: 100
# Equilibrium emission is recorded even for those grains in the stochastic regime.
# Emission spectrum was computed for: 
# Type: IRSF
# Scale: 1
# Temperature: -1
# Wavelength  CExt  CAbs  CSca  Albedo G EqEmission StEmission
0.05 9.11547e-16 9.11398e-16 1.49472e-19 0.000163976 0.000784179 0 1.04348e-98
0.0525665 1.05569e-15 1.05553e-15 1.60267e-19 0.000151813 0.000698515 0 9.06812e-95
0.0552647 1.21824e-15 1.21807e-15 1.71698e-19 0.000140939 0.000621997 0 5.04127e-91
0.0581015 1.38239e-15 1.3822e-15 1.81126e-19 0.000131024 0.000553563 0 1.80825e-87
0.0610839 1.56704e-15 1.56685e-15 1.92579e-19 0.000122893 0.000487525 0 4.34046e-84
0.0642193 1.83008e-15 1.82987e-15 2.14556e-19 0.000117238 0.000421658 0 7.33343e-81
0.0675157 2.22907e-15 2.22882e-15 2.52128e-19 0.000113109 0.000355283 0 8.99586e-78
0.0709813 2.47358e-15 2.47332e-15 2.60265e-19 0.000105218 0.000297832 0 7.12477e-75
0.0746248 2.35165e-15 2.35142e-15 2.27259e-19 9.66381e-05 0.000256882 0 3.48483e-72
0.0784553 2.00566e-15 2.00548e-15 1.76287e-19 8.78948e-05 0.000229642 0 1.12012e-69
0.0824824 1.61191e-15 1.61179e-15 1.24006e-19 7.69314e-05 0.000214667 0 2.52397e-67
0.0867162 1.40828e-15 1.40819e-15 9.55621e-20 6.78573e-05 0.000206124 0 4.66683e-65
0.0911674 1.24061e-15 1.24053e-15 8.01666e-20 6.46186e-05 0.000200151 0 6.66043e-63
0.095847 9.73508e-16 9.73445e-16 6.36123e-20 6.53434e-05 0.000211025 0 6.56734e-61
0.100767 6.71024e-16 6.70981e-16 4.3407e-20 6.46876e-05 0.000246132 0 4.46843e-59
0.105939 4.39966e-16 4.39936e-16 3.00755e-20 6.83588e-05 0.000265542 0 2.29909e-57
0.111377 2.6629e-16 2.66271e-16 1.83975e-20 6.90882e-05 0.000303911 0 8.78083e-56
0.117094 2.04018e-16 2.04006e-16 1.14708e-20 5.62246e-05 0.000278323 0 3.45105e-54
0.123105 1.59976e-16 1.59969e-16 7.47443e-21 4.67222e-05 0.000238783 0 1.14019e-52
0.129424 1.34321e-16 1.34316e-16 4.80823e-21 3.57966e-05 0.000200823 0 3.34592e-51
0.136067 1.27295e-16 1.27292e-16 3.11519e-21 2.44722e-05 0.000169913 0 9.27951e-50
0.143051 1.32087e-16 1.32085e-16 2.04616e-21 1.5491e-05 0.000144941 0 2.38061e-48
0.150394 1.52443e-16 1.52441e-16 1.39398e-21 9.14427e-06 0.000123727 0 5.78894e-47
0.158114 1.85061e-16 1.8506e-16 1.05422e-21 5.6966e-06 0.000105952 0 1.27322e-45
0.16623 2.3182e-16 2.31819e-16 9.73775e-22 4.20057e-06 9.10834e-05 0 2.5123e-44
0.174762 3.03485e-16 3.03483e-16 1.17327e-21 3.866e-06 7.83173e-05 0 4.59239e-43
0.183733 4.07455e-16 4.07453e-16 1.67534e-21 4.11173e-06 6.67028e-05 0 7.97937e-42
0.193164 5.65601e-16 5.65598e-16 2.66117e-21 4.70502e-06 5.55065e-05 0 1.46325e-40
0.203079 7.47484e-16 7.4748e-16 4.06135e-21 5.43337e-06 4.4511e-05 0 2.95384e-39
0.213503 8.07001e-16 8.06996e-16 4.9835e-21 6.17533e-06 3.42333e-05 0 5.72271e-38
0.224463 6.19802e-16 6.19798e-16 4.13995e-21 6.67947e-06 2.53457e-05 0 8.2374e-37
0.235984 4.22498e-16 4.22496e-16 2.80811e-21 6.64643e-06 1.80895e-05 0 9.85948e-36
0.248097 2.99868e-16 2.99866e-16 1.81747e-21 6.06091e-06 1.38567e-05 0 1.09579e-34
0.260832 2.36959e-16 2.36958e-16 1.24812e-21 5.26723e-06 1.44184e-05 0 1.19167e-33
0.274221 1.95508e-16 1.95507e-16 9.00219e-22 4.60452e-06 1.92793e-05 0 1.18799e-32
0.288297 1.68966e-16 1.68966e-16 6.70967e-22 3.97101e-06 2.58662e-05 0 1.09316e-31
0.303095 1.48618e-16 1.48617e-16 5.17038e-22 3.47898e-06 2.90022e-05 0 9.06757e-31
0.318653 1.31208e-16 1.31208e-16 4.02598e-22 3.0684e-06 3.02608e-05 0 6.72368e-30
0.335009 1.17651e-16 1.17651e-16 3.17106e-22 2.69531e-06 2.9758e-05 0 4.53449e-29
0.352205 1.07176e-16 1.07176e-16 2.5285e-22 2.35919e-06 2.82363e-05 0 2.7969e-28
0.370284 9.84238e-17 9.84236e-17 2.03398e-22 2.06655e-06 2.63978e-05 0 1.57356e-27
0.389291 9.01887e-17 9.01885e-17 1.64876e-22 1.82812e-06 2.46111e-05 0 8.03157e-27
0.409273 8.23155e-17 8.23154e-17 1.34049e-22 1.62848e-06 2.28766e-05 0 3.72959e-26
0.430281 7.47763e-17 7.47762e-17 1.09094e-22 1.45894e-06 2.12288e-05 0 1.58142e-25
0.452368 6.82898e-17 6.82897e-17 8.87716e-23 1.29992e-06 1.95268e-05 0 6.21064e-25
0.475588 6.24171e-17 6.24171e-17 7.22828e-23 1.15806e-06 1.78967e-05 0 2.25787e-24
0.5 5.7447e-17 5.7447e-17 5.90118e-23 1.02724e-06 1.6333e-05 0 7.67441e-24
0.525665 5.31564e-17 5.31564e-17 4.82288e-23 9.073e-07 1.48544e-05 0 2.44371e-23
0.552647 4.91078e-17 4.91077e-17 3.9431e-23 8.02948e-07 1.35075e-05 0 7.26419e-23
0.581015 4.57445e-17 4.57444e-17 3.23951e-23 7.08175e-07 1.22558e-05 0 2.04253e-22
0.610839 4.25355e-17 4.25354e-17 2.66223e-23 6.25885e-07 1.1122e-05 0 5.39488e-22
0.642193 3.94703e-17 3.94702e-17 2.18747e-23 5.54207e-07 1.00934e-05 0 1.34214e-21
0.675157 3.6632e-17 3.6632e-17 1.79942e-23 4.91215e-07 9.16439e-06 0 3.16094e-21
0.709813 3.40089e-17 3.40089e-17 1.48272e-23 4.35981e-07 8.33109e-06 0 7.06784e-21
0.746248 3.15446e-17 3.15446e-17 1.22198e-23 3.87381e-07 7.58659e-06 0 1.50243e-20
0.784553 2.92047e-17 2.92047e-17 1.00678e-23 3.44731e-07 6.91044e-06 0 3.04091e-20
0.824824 2.7018e-17 2.7018e-17 8.29287e-24 3.06938e-07 6.30366e-06 0 5.8807e-20
0.867162 2.49726e-17 2.49726e-17 6.83338e-24 2.73635e-07 5.75769e-06 0 1.08892e-19
0.911674 2.30513e-17 2.30513e-17 5.62778e-24 2.44141e-07 5.26375e-06 2.78502e-310 1.93403e-19
0.95847 2.12717e-17 2.12717e-17 4.63102e-24 2.17708e-07 4.82109e-06 2.23126e-295 3.30524e-19
1.00767 1.96083e-17 1.96083e-17 3.81107e-24 1.9436e-07 4.41911e-06 3.28939e-281 5.44184e-19
1.05939 1.8094e-17 1.8094e-17 3.13498e-24 1.73261e-07 4.05453e-06 9.71292e-268 8.667e-19
1.11377 1.66711e-17 1.66711e-17 2.57803e-24 1.54641e-07 3.7226e-06 6.19758e-255 1.33434e-18
1.17094 1.54083e-17 1.54083e-17 2.11911e-24 1.37531e-07 3.41278e-06 9.25183e-243 1.99873e-18
1.23105 1.42442e-17 1.42442e-17 1.74269e-24 1.22344e-07 3.12911e-06 3.45933e-231 2.90954e-18
1.29424 1.31649e-17 1.31649e-17 1.43359e-24 1.08895e-07 2.86814e-06 3.46441e-220 4.12104e-18
1.36067 1.21669e-17 1.21669e-17 1.17863e-24 9.68714e-08 2.63046e-06 9.91218e-210 5.68978e-18
1.43051 1.12459e-17 1.12459e-17 9.68561e-25 8.61256e-08 2.41385e-06 8.61511e-200 7.67056e-18
1.50394 1.04097e-17 1.04097e-17 7.96223e-25 7.64885e-08 2.21376e-06 2.41407e-190 1.01255e-17
1.58114 9.64638e-18 9.64638e-18 6.5456e-25 6.78555e-08 2.02707e-06 2.30405e-181 1.31015e-17
1.6623 8.94039e-18 8.94039e-18 5.38155e-25 6.01936e-08 1.85404e-06 7.8879e-173 1.66223e-17
1.74762 8.27587e-18 8.27586e-18 4.42501e-25 5.34688e-08 1.69801e-06 1.01695e-164 2.06753e-17
1.83733 7.66243e-18 7.66243e-18 3.63808e-25 4.74795e-08 1.55553e-06 5.18545e-157 2.52772e-17
1.93164 7.09409e-18 7.09409e-18 2.98996e-25 4.21473e-08 1.42458e-06 1.094e-149 3.03983e-17
2.03079 6.57319e-18 6.57319e-18 2.45674e-25 3.73752e-08 1.30316e-06 9.9783e-143 3.60248e-17
2.13503 6.08837e-18 6.08837e-18 2.02019e-25 3.31811e-08 1.19203e-06 4.09478e-136 4.20582e-17
2.24463 5.63592e-18 5.63592e-18 1.66045e-25 2.94619e-08 1.09076e-06 7.85773e-130 4.83982e-17
2.35984 5.22129e-18 5.22129e-18 1.36426e-25 2.61287e-08 9.97557e-07 7.32827e-124 5.50111e-17
2.48097 4.83878e-18 4.83878e-18 1.1207e-25 2.31607e-08 9.11068e-07 3.4393e-118 6.17712e-17
2.60832 4.48187e-18 4.48187e-18 9.21395e-26 2.05583e-08 8.31736e-07 8.39205e-113 6.85019e-17
2.74221 4.14599e-18 4.14599e-18 7.5728e-26 1.82653e-08 7.59339e-07 1.09838e-107 7.50077e-17
2.88297 3.83556e-18 3.83556e-18 6.21916e-26 1.62145e-08 6.94179e-07 7.95941e-103 8.12427e-17
3.03095 3.545e-18 3.545e-18 5.10836e-26 1.44101e-08 6.34056e-07 3.28355e-98 8.69926e-17
3.18653 3.27744e-18 3.27744e-18 4.19669e-26 1.28048e-08 5.78916e-07 7.93615e-94 9.22397e-17
3.35009 3.02985e-18 3.02985e-18 3.44657e-26 1.13754e-08 5.28787e-07 1.15313e-89 9.68477e-17
3.52205 2.79995e-18 2.79995e-18 2.82918e-26 1.01044e-08 4.82233e-07 1.03226e-85 1.00698e-16
3.70284 2.58759e-18 2.58759e-18 2.3234e-26 8.97899e-09 4.39798e-07 5.8316e-82 1.0376e-16
3.89291 2.39284e-18 2.39284e-18 1.90734e-26 7.97103e-09 4.01104e-07 2.12762e-78 1.06049e-16
4.09273 2.21315e-18 2.21315e-18 1.56557e-26 7.07391e-09 3.64828e-07 5.11915e-75 1.07494e-16
4.30281 2.04513e-18 2.04513e-18 1.28478e-26 6.28216e-09 3.30806e-07 8.28055e-72 1.07973e-16
4.52368 1.88927e-18 1.88927e-18 1.05467e-26 5.58242e-09 3.00739e-07 9.18626e-69 1.07563e-16
4.75588 1.74511e-18 1.74511e-18 8.65438e-27 4.95923e-09 2.72904e-07 7.1205e-66 1.06321e-16
5 1.61418e-18 1.61418e-18 7.09953e-27 4.39822e-09 2.47007e-07 3.93031e-63 1.04456e-16
5.25665 1.48909e-18 1.48909e-18 5.82534e-27 3.91201e-09 2.2289e-07 1.56444e-60 1.01609e-16
5.52648 1.37207e-18 1.37207e-18 4.77954e-27 3.48345e-09 2.0096e-07 4.56874e-58 9.80276e-17
5.81015 1.26476e-18 1.26476e-18 3.91898e-27 3.09861e-09 1.80548e-07 9.95441e-56 9.3961e-17
6.10839 1.16692e-18 1.16692e-18 3.21251e-27 2.75297e-09 1.62994e-07 1.6422e-53 8.95441e-17
6.42193 1.07388e-18 1.07388e-18 2.63338e-27 2.45221e-09 1.48887e-07 2.07234e-51 8.45579e-17
6.75157 9.91894e-19 9.91894e-19 2.15895e-27 2.1766e-09 1.32588e-07 2.03898e-49 7.96308e-17
7.09813 9.15201e-19 9.15201e-19 1.769e-27 1.93291e-09 1.179e-07 1.5763e-47 7.4443e-17
7.46248 8.45306e-19 8.45306e-19 1.44905e-27 1.71423e-09 1.06936e-07 9.707e-46 6.92381e-17
7.84553 7.82269e-19 7.82269e-19 1.1874e-27 1.51789e-09 9.15415e-08 4.81987e-44 6.41351e-17
8.24824 7.23019e-19 7.23019e-19 9.72674e-28 1.3453e-09 8.17987e-08 1.94386e-42 5.89842e-17
8.67162 6.68129e-19 6.68129e-19 7.96246e-28 1.19175e-09 7.25948e-08 6.4396e-41 5.39241e-17
9.11674 6.18616e-19 6.18616e-19 6.51816e-28 1.05367e-09 6.456e-08 1.7729e-39 4.91156e-17
9.5847 5.74624e-19 5.74624e-19 5.33367e-28 9.28201e-10 5.26182e-08 4.09912e-38 4.46323e-17
10.0767 5.35846e-19 5.35846e-19 4.36251e-28 8.14135e-10 4.74538e-08 8.0335e-37 4.04963e-17
10.5939 5.0165e-19 5.0165e-19 3.56551e-28 7.10757e-10 4.23132e-08 1.34574e-35 3.66925e-17
11.1377 4.73113e-19 4.73113e-19 2.9119e-28 6.15477e-10 3.44613e-08 1.94872e-34 3.33189e-17
11.7094 4.42968e-19 4.42968e-19 2.40028e-28 5.41863e-10 3.11403e-08 2.42185e-33 2.98844e-17
12.3105 4.2245e-19 4.2245e-19 1.95167e-28 4.61989e-10 2.17924e-08 2.66941e-32 2.71673e-17
12.9424 4.0385e-19 4.0385e-19 1.59364e-28 3.94611e-10 1.99527e-08 2.58533e-31 2.46377e-17
13.6067 3.88985e-19 3.88985e-19 1.30132e-28 3.34544e-10 1.42873e-08 2.2258e-30 2.24071e-17
14.3051 3.78916e-19 3.78916e-19 1.06178e-28 2.80215e-10 8.72667e-09 1.72025e-29 2.05159e-17
15.0394 3.73787e-19 3.73787e-19 8.65817e-29 2.31634e-10 4.54257e-09 1.20214e-28 1.89386e-17
15.8114 3.74671e-19 3.74671e-19 7.06004e-29 1.88433e-10 5.80388e-09 7.66361e-28 1.76885e-17
16.623 3.81446e-19 3.81446e-19 5.75583e-29 1.50895e-10 -4.40401e-09 4.47858e-27 1.67105e-17
17.4762 3.949e-19 3.949e-19 4.6901e-29 1.18767e-10 -7.36661e-09 2.41409e-26 1.59892e-17
18.3733 4.16936e-19 4.16936e-19 3.81964e-29 9.1612e-11 -1.02279e-08 1.2095e-25 1.55422e-17
19.3164 4.48146e-19 4.48146e-19 3.11473e-29 6.95025e-11 -3.68829e-09 5.64804e-25 1.53234e-17
20.3079 4.89978e-19 4.89978e-19 2.54153e-29 5.18703e-11 -1.20306e-08 2.46687e-24 1.53128e-17
21.3503 5.45861e-19 5.45861e-19 2.07604e-29 3.80323e-11 -2.52798e-08 1.0136e-23 1.55387e-17
22.4463 6.19176e-19 6.19176e-19 1.70128e-29 2.74765e-11 -3.66587e-08 3.93038e-23 1.60023e-17
23.5984 7.12609e-19 7.12609e-19 1.40251e-29 1.96814e-11 -2.595e-08 1.43857e-22 1.66686e-17
24.8097 8.26988e-19 8.26988e-19 1.1662e-29 1.41018e-11 -3.68322e-08 4.95686e-22 1.74557e-17
26.0832 9.61186e-19 9.61186e-19 9.82251e-30 1.02192e-11 -2.19043e-08 1.60234e-21 1.82562e-17
27.4221 1.10552e-18 1.10552e-18 8.38757e-30 7.58702e-12 -2.29107e-08 4.81681e-21 1.88441e-17
28.8297 1.23831e-18 1.23831e-18 7.28294e-30 5.88136e-12 -3.83914e-08 1.32919e-20 1.88955e-17
30.3095 1.3443e-18 1.3443e-18 6.40181e-30 4.76218e-12 -3.33116e-08 3.36046e-20 1.832e-17
31.8653 1.37522e-18 1.37522e-18 5.62473e-30 4.09007e-12 -3.35828e-08 7.58901e-20 1.67012e-17
33.5009 1.34814e-18 1.34814e-18 4.93352e-30 3.65951e-12 -1.98058e-08 1.56084e-19 1.45607e-17
35.2206 1.23719e-18 1.23719e-18 4.22502e-30 3.41501e-12 -5.12623e-08 2.86321e-19 1.18618e-17
37.0284 1.09499e-18 1.09499e-18 3.5738e-30 3.26377e-12 -6.95082e-09 4.83756e-19 9.30374e-18
38.9291 9.38932e-19 9.38932e-19 2.96887e-30 3.16196e-12 -5.27643e-09 7.57938e-19 7.05928e-18
40.9273 7.90926e-19 7.90926e-19 2.44254e-30 3.08821e-12 -2.15084e-08 1.119e-18 5.2549e-18
43.0282 6.61689e-19 6.61689e-19 1.99267e-30 3.0115e-12 -3.79131e-09 1.57702e-18 3.88051e-18
45.2368 5.5153e-19 5.5153e-19 1.62019e-30 2.93762e-12 -1.82958e-09 2.13243e-18 2.8523e-18
47.5588 4.62614e-19 4.62614e-19 1.31406e-30 2.84052e-12 -6.29661e-08 2.79953e-18 2.10816e-18
50 3.8802e-19 3.8802e-19 1.06595e-30 2.74716e-12 -1.20451e-09 3.55199e-18 1.55723e-18
52.5665 3.27967e-19 3.27967e-19 8.64175e-31 2.63495e-12 -1.69329e-08 4.39662e-18 1.15874e-18
55.2648 2.78794e-19 2.78794e-19 7.0073e-31 2.51343e-12 -3.26057e-08 5.30698e-18 8.67003e-19
58.1015 2.38449e-19 2.38449e-19 5.68983e-31 2.38618e-12 6.43945e-08 6.25885e-18 6.52723e-19
61.0839 2.05013e-19 2.05013e-19 4.6219e-31 2.25444e-12 -9.78513e-08 7.21601e-18 4.94099e-19
64.2193 1.77077e-19 1.77077e-19 3.75595e-31 2.12109e-12 4.72116e-08 8.13895e-18 3.75905e-19
67.5157 1.53739e-19 1.53739e-19 3.05463e-31 1.98689e-12 5.08372e-08 8.99752e-18 2.87646e-19
70.9813 1.34059e-19 1.34059e-19 2.4867e-31 1.85492e-12 6.65399e-09 9.75313e-18 2.21246e-19
74.6248 1.17346e-19 1.17346e-19 2.02491e-31 1.7256e-12 -4.05437e-08 1.03731e-17 1.7099e-19
78.4553 1.03072e-19 1.03072e-19 1.64925e-31 1.6001e-12 1.21324e-07 1.08332e-17 1.32758e-19
82.4824 9.0853e-20 9.0853e-20 1.34449e-31 1.47985e-12 -4.01389e-08 1.11217e-17 1.0357e-19
86.7162 8.03836e-20 8.03836e-20 1.09648e-31 1.36406e-12 1.65075e-07 1.12383e-17 8.12147e-20
91.1674 7.13365e-20 7.13365e-20 8.94302e-32 1.25364e-12 9.12012e-08 1.11803e-17 6.39736e-20
95.847 6.34848e-20 6.34848e-20 7.29483e-32 1.14907e-12 1.95336e-07 1.09582e-17 5.0613e-20
100.767 5.66808e-20 5.66808e-20 5.95579e-32 1.05076e-12 1.00968e-07 1.05958e-17 4.02379e-20
105.939 5.09121e-20 5.09121e-20 4.86209e-32 9.54995e-13 8.10833e-08 1.01443e-17 3.22362e-20
111.377 4.59407e-20 4.59407e-20 3.96871e-32 8.63877e-13 1.54862e-07 9.61021e-18 2.59872e-20
117.094 4.18442e-20 4.18442e-20 3.24086e-32 7.74508e-13 5.07213e-07 9.05885e-18 2.1181e-20
123.105 3.85962e-20 3.85962e-20 2.64866e-32 6.86249e-13 5.52258e-08 8.53063e-18 1.75105e-20
129.424 3.59713e-20 3.59713e-20 2.16658e-32 6.02307e-13 -1.91383e-07 8.01309e-18 1.46492e-20
136.067 3.34836e-20 3.34836e-20 1.77365e-32 5.29708e-13 6.29756e-07 7.42661e-18 1.22582e-20
143.051 3.03722e-20 3.03722e-20 1.4541e-32 4.78759e-13 4.57537e-07 6.63049e-18 1.00092e-20
150.394 2.70026e-20 2.70026e-20 1.19177e-32 4.41353e-13 2.2958e-07 5.73926e-18 8.02053e-21
158.114 2.36465e-20 2.36465e-20 9.75323e-33 4.1246e-13 -1.65189e-07 4.84321e-18 6.33778e-21
166.23 2.06772e-20 2.06772e-20 7.97679e-33 3.85776e-13 -8.09445e-07 4.04166e-18 5.00588e-21
174.763 1.81078e-20 1.81078e-20 6.52661e-33 3.6043e-13 5.19051e-07 3.34704e-18 3.96336e-21
183.733 1.60368e-20 1.60368e-20 5.33748e-33 3.32827e-13 -3.84153e-07 2.77904e-18 3.17588e-21
193.164 1.42287e-20 1.42287e-20 4.36396e-33 3.06702e-13 3.10447e-07 2.29298e-18 2.55121e-21
203.079 1.2673e-20 1.2673e-20 3.56876e-33 2.81604e-13 3.23496e-07 1.88474e-18 2.05839e-21
213.503 1.13647e-20 1.13647e-20 2.91961e-33 2.56902e-13 3.08446e-07 1.54864e-18 1.67286e-21
224.463 1.01859e-20 1.01859e-20 2.38806e-33 2.34448e-13 9.05055e-07 1.26322e-18 1.35922e-21
235.984 9.12328e-21 9.12328e-21 1.95288e-33 2.14055e-13 1.21584e-06 1.02321e-18 1.10387e-21
248.097 8.16736e-21 8.16736e-21 1.59786e-33 1.9564e-13 -7.61219e-10 8.2345e-19 8.96124e-22
260.832 7.35544e-21 7.35544e-21 1.30746e-33 1.77754e-13 -8.30673e-07 6.62948e-19 7.31849e-22
274.221 6.62475e-21 6.62475e-21 1.0696e-33 1.61456e-13 2.33366e-06 5.30979e-19 5.97689e-22
288.297 5.95966e-21 5.95966e-21 8.74892e-34 1.46802e-13 -2.45919e-06 4.22695e-19 4.87474e-22
303.095 5.3629e-21 5.3629e-21 7.1611e-34 1.3353e-13 -1.77752e-06 3.35042e-19 3.97606e-22
318.653 4.8426e-21 4.8426e-21 5.86015e-34 1.21012e-13 1.60879e-06 2.65333e-19 3.2533e-22
335.009 4.36698e-21 4.36698e-21 4.79432e-34 1.09786e-13 9.01814e-07 2.08999e-19 2.65741e-22
352.206 3.93339e-21 3.93339e-21 3.92314e-34 9.97394e-14 -5.60412e-07 1.63804e-19 2.16714e-22
370.284 3.55449e-21 3.55449e-21 3.21128e-34 9.03443e-14 9.75186e-07 1.28346e-19 1.77228e-22
389.291 3.20961e-21 3.20961e-21 2.62791e-34 8.18762e-14 -1.13779e-06 1.00149e-19 1.44745e-22
409.273 2.8943e-21 2.8943e-21 2.15e-34 7.4284e-14 1.40928e-06 7.77978e-20 1.17987e-22
430.282 2.61767e-21 2.61767e-21 1.75993e-34 6.72327e-14 1.02624e-06 6.04348e-20 9.63977e-23
452.368 2.36679e-21 2.36679e-21 1.44057e-34 6.08657e-14 2.65448e-06 4.68038e-20 7.86811e-23
475.588 2.13703e-21 2.13703e-21 1.17885e-34 5.5163e-14 1.88576e-06 3.61039e-20 6.40852e-23
500 1.92716e-21 1.92716e-21 9.64553e-35 5.00504e-14 1.00364e-06 2.77478e-20 5.20907e-23
525.665 1.7486e-21 1.7486e-21 7.89704e-35 4.5162e-14 -6.0024e-06 2.1408e-20 4.25662e-23
552.648 1.58453e-21 1.58453e-21 6.46383e-35 4.07934e-14 4.49607e-06 1.64599e-20 3.47074e-23
581.015 1.43389e-21 1.43389e-21 5.28931e-35 3.68878e-14 4.40319e-06 1.26128e-20 2.82348e-23
610.838 1.29597e-21 1.29597e-21 4.32901e-35 3.34036e-14 -1.40375e-05 9.6346e-21 2.29185e-23
642.193 1.16989e-21 1.16989e-21 3.5441e-35 3.02942e-14 6.77101e-06 7.33767e-21 1.85618e-23
675.157 1.05464e-21 1.05464e-21 2.90063e-35 2.75035e-14 -1.3316e-06 5.57137e-21 1.4997e-23
709.813 9.51889e-22 9.51889e-22 2.37344e-35 2.4934e-14 3.12204e-06 4.22871e-21 1.21181e-23
746.247 8.63974e-22 8.63974e-22 1.94308e-35 2.249e-14 -9.35525e-06 3.22287e-21 9.83584e-24
784.553 7.83162e-22 7.83162e-22 1.59065e-35 2.03106e-14 -3.0751e-07 2.44967e-21 7.96387e-24
824.824 7.08953e-22 7.08953e-22 1.3018e-35 1.83623e-14 5.31205e-06 1.85703e-21 6.432e-24
867.162 6.40933e-22 6.40933e-22 1.06527e-35 1.66207e-14 4.72779e-06 1.40419e-21 5.18191e-24
911.674 5.78794e-22 5.78794e-22 8.72216e-36 1.50695e-14 -2.32325e-06 1.05935e-21 4.16529e-24
958.471 5.21974e-22 5.21974e-22 7.13956e-36 1.3678e-14 3.86706e-06 7.97247e-22 3.3398e-24
1007.67 4.70602e-22 4.70602e-22 5.84232e-36 1.24146e-14 -2.6006e-05 5.9921e-22 2.67427e-24
1059.39 4.26302e-22 4.26302e-22 4.78228e-36 1.12181e-14 -1.71083e-06 4.52063e-22 2.14932e-24
1113.77 3.85704e-22 3.85704e-22 3.91538e-36 1.01512e-14 1.40234e-05 3.40325e-22 1.72369e-24
1170.94 3.48499e-22 3.48499e-22 3.20467e-36 9.19565e-15 3.24928e-05 2.55635e-22 1.37931e-24
1231.05 3.14939e-22 3.14939e-22 2.62228e-36 8.32632e-15 9.85165e-06 1.91898e-22 1.10312e-24
1294.24 2.85352e-22 2.85352e-22 2.14688e-36 7.52361e-15 -3.37067e-05 1.44316e-22 8.84002e-25
1360.67 2.5831e-22 2.5831e-22 1.75746e-36 6.8037e-15 -4.35875e-05 1.08355e-22 7.07424e-25
1430.51 2.3352e-22 2.3352e-22 1.43833e-36 6.15936e-15 -4.87835e-05 8.11897e-23 5.65161e-25
1503.94 2.10917e-22 2.10917e-22 1.17715e-36 5.58109e-15 3.35624e-05 6.07406e-23 4.50986e-25
1581.14 1.91371e-22 1.91371e-22 9.63791e-37 5.03624e-15 -3.35905e-05 4.56213e-23 3.61463e-25
1662.3 1.73415e-22 1.73415e-22 7.88936e-37 4.5494e-15 -2.59462e-05 3.42017e-23 2.8931e-25
1747.63 1.56934e-22 1.56934e-22 6.45624e-37 4.11398e-15 -2.08251e-05 2.55922e-23 2.31232e-25
1837.33 1.41851e-22 1.41851e-22 5.28522e-37 3.7259e-15 6.64354e-05 1.91173e-23 1.84578e-25
1931.64 1.28064e-22 1.28064e-22 4.32672e-37 3.37857e-15 -3.41471e-05 1.42564e-23 1.47138e-25
2030.79 1.16344e-22 1.16344e-22 3.54155e-37 3.04404e-15 1.18961e-05 1.06934e-23 1.18002e-25
2135.03 1.07438e-22 1.07438e-22 2.89785e-37 2.69723e-15 -3.22057e-05 8.14939e-24 9.61593e-26
2244.63 9.91209e-23 9.91209e-23 2.37257e-37 2.39362e-15 -6.27233e-05 6.20221e-24 7.82459e-26
2359.84 9.13468e-23 9.13468e-23 1.94255e-37 2.12657e-15 6.5613e-05 4.71322e-24 6.35554e-26
2480.97 8.40858e-23 8.40858e-23 1.58973e-37 1.8906e-15 3.05007e-06 3.57623e-24 5.15182e-26
2608.32 7.73151e-23 7.73151e-23 1.30112e-37 1.68288e-15 0.000106272 2.70952e-24 4.16695e-26
2742.21 7.10164e-23 7.10164e-23 1.06524e-37 1.49999e-15 2.26652e-06 2.05006e-24 3.36266e-26
