# 1.38236e-07 2 13 : grain size, compostion index, size index
# This grain was stochastically heated: Yes
# Heating and cooling timescale: 283502 4.37299
# Ratio of heating to cooling to determine stochastic cutoff: 100
# Equilibrium emission is recorded even for those grains in the stochastic regime.
# Emission spectrum was computed for: 
# Type: IRSF
# Scale: 1
# Temperature: -1
# Wavelength  CExt  CAbs  CSca  Albedo G EqEmission StEmission
0.05 1.10919e-14 1.10697e-14 2.21167e-17 0.00199395 0.00420552 0 0
0.0525665 1.28469e-14 1.28232e-14 2.37369e-17 0.00184768 0.00374558 0 0
0.0552647 1.48284e-14 1.48029e-14 2.54538e-17 0.00171656 0.00333455 0 0
0.0581015 1.68291e-14 1.68022e-14 2.6876e-17 0.001597 0.00296681 0 0
0.0610839 1.9083e-14 1.90544e-14 2.86157e-17 0.00149954 0.00261245 0 0
0.0642193 2.23068e-14 2.22748e-14 3.19471e-17 0.00143217 0.00225945 0 4.56286e-307
0.0675157 2.72376e-14 2.71999e-14 3.7671e-17 0.00138305 0.00190336 0 1.6915e-292
0.0709813 3.03714e-14 3.03323e-14 3.91019e-17 0.00128746 0.00159391 0 1.11324e-278
0.0746248 2.90195e-14 2.89852e-14 3.43342e-17 0.00118314 0.0013728 0 1.32241e-265
0.0784553 2.48322e-14 2.48055e-14 2.67377e-17 0.00107674 0.00122568 0 3.19681e-253
0.0824824 1.99777e-14 1.99589e-14 1.88365e-17 0.000942876 0.00114419 0 1.7754e-241
0.0867162 1.74481e-14 1.74336e-14 1.4511e-17 0.00083167 0.00109731 0 2.80058e-230
0.0911674 1.53798e-14 1.53677e-14 1.2177e-17 0.000791754 0.00106432 0 1.24606e-219
0.095847 1.20845e-14 1.20749e-14 9.67131e-18 0.000800304 0.00112113 0 1.46907e-209
0.100767 8.33356e-15 8.32696e-15 6.59912e-18 0.000791873 0.00130789 0 4.79759e-200
0.105939 5.46484e-15 5.46027e-15 4.57114e-18 0.000836464 0.00141193 0 4.97232e-191
0.111377 3.30666e-15 3.30387e-15 2.79363e-18 0.000844848 0.00161628 0 1.67457e-182
0.117094 2.52683e-15 2.52509e-15 1.74018e-18 0.000688681 0.00148212 0 2.64002e-174
0.123105 1.978e-15 1.97687e-15 1.13321e-18 0.000572907 0.00127191 0 1.65848e-166
0.129424 1.65863e-15 1.6579e-15 7.28626e-19 0.000439294 0.00106978 0 4.54618e-159
0.136067 1.57026e-15 1.56979e-15 4.71903e-19 0.000300526 0.00090518 0 5.98872e-152
0.143051 1.62798e-15 1.62767e-15 3.09882e-19 0.000190348 0.000772197 0 3.83359e-145
0.150394 1.87756e-15 1.87735e-15 2.1106e-19 0.000112411 0.000659223 0 1.26043e-138
0.158114 2.27816e-15 2.278e-15 1.59572e-19 7.00445e-05 0.000564552 0 2.0905e-132
0.16623 2.85262e-15 2.85247e-15 1.47344e-19 5.16523e-05 0.000485363 0 1.77832e-126
0.174762 3.73316e-15 3.73298e-15 1.77455e-19 4.75347e-05 0.000417365 0 8.13127e-121
0.183733 5.01077e-15 5.01052e-15 2.53302e-19 5.05514e-05 0.000355493 0 2.02597e-115
0.193164 6.95539e-15 6.95499e-15 4.02324e-19 5.78434e-05 0.000295838 0 2.86052e-110
0.203079 9.19676e-15 9.19615e-15 6.14343e-19 6.67999e-05 0.000237233 0 2.17104e-105
0.213503 9.93941e-15 9.93865e-15 7.54677e-19 7.59278e-05 0.000182452 0 7.81582e-101
0.224463 7.63977e-15 7.63914e-15 6.27464e-19 8.21313e-05 0.000135093 0 1.1926e-96
0.235984 5.20779e-15 5.20737e-15 4.25618e-19 8.17271e-05 9.64296e-05 0 9.86475e-93
0.248097 3.69549e-15 3.69521e-15 2.75395e-19 7.45219e-05 7.38466e-05 0 5.31866e-89
0.260832 2.91984e-15 2.91965e-15 1.89074e-19 6.47549e-05 7.67735e-05 0 2.04554e-85
0.274221 2.40898e-15 2.40884e-15 1.36344e-19 5.65984e-05 0.0001026 0 5.37865e-82
0.288297 2.08175e-15 2.08165e-15 1.01608e-19 4.88088e-05 0.000137685 0 9.90279e-79
0.303095 1.83084e-15 1.83076e-15 7.82899e-20 4.27616e-05 0.000154417 0 1.2651e-75
0.318653 1.61617e-15 1.61611e-15 6.09564e-20 3.77165e-05 0.000161152 0 1.12704e-72
0.335009 1.44901e-15 1.44896e-15 4.80091e-20 3.31325e-05 0.000158498 0 7.21327e-70
0.352205 1.31984e-15 1.31981e-15 3.82788e-20 2.90025e-05 0.000150408 0 3.37549e-67
0.370284 1.21194e-15 1.21191e-15 3.07909e-20 2.54063e-05 0.000140623 0 1.16543e-64
0.389291 1.11044e-15 1.11042e-15 2.49584e-20 2.24761e-05 0.000131112 0 2.98841e-62
0.409273 1.01343e-15 1.01341e-15 2.02913e-20 2.00224e-05 0.000121877 0 5.78181e-60
0.430281 9.20549e-16 9.20532e-16 1.65133e-20 1.79385e-05 0.000113102 0 8.60149e-58
0.452368 8.40647e-16 8.40634e-16 1.34367e-20 1.59838e-05 0.000104037 0 1.0175e-55
0.475588 7.68313e-16 7.68302e-16 1.09407e-20 1.42399e-05 9.53541e-05 0 9.80613e-54
0.5 7.07094e-16 7.07086e-16 8.93178e-21 1.26317e-05 8.70236e-05 0 8.00735e-52
0.525665 6.54253e-16 6.54246e-16 7.29961e-21 1.11572e-05 7.91466e-05 0 5.70463e-50
0.552647 6.04396e-16 6.0439e-16 5.96791e-21 9.87417e-06 7.19709e-05 0 3.58534e-48
0.581015 5.62981e-16 5.62976e-16 4.90295e-21 8.7089e-06 6.53021e-05 0 2.0069e-46
0.610839 5.23469e-16 5.23465e-16 4.0292e-21 7.6971e-06 5.92613e-05 0 9.77521e-45
0.642193 4.85732e-16 4.85729e-16 3.31061e-21 6.81572e-06 5.37813e-05 0 4.07987e-43
0.675157 4.50792e-16 4.50789e-16 2.7233e-21 6.04115e-06 4.88313e-05 0 1.4475e-41
0.709813 4.18502e-16 4.185e-16 2.24398e-21 5.36193e-06 4.43914e-05 0 4.34846e-40
0.746248 3.88169e-16 3.88167e-16 1.84934e-21 4.76428e-06 4.04245e-05 0 1.1055e-38
0.784553 3.59368e-16 3.59367e-16 1.52364e-21 4.23977e-06 3.68219e-05 0 2.38484e-37
0.824824 3.32454e-16 3.32453e-16 1.25502e-21 3.77502e-06 3.35888e-05 0 4.39359e-36
0.867162 3.07281e-16 3.0728e-16 1.03414e-21 3.36545e-06 3.06797e-05 0 6.95417e-35
0.911674 2.83635e-16 2.83635e-16 8.51678e-22 3.00272e-06 2.8048e-05 4.93576e-309 9.51349e-34
0.95847 2.61734e-16 2.61734e-16 7.00829e-22 2.67763e-06 2.56893e-05 3.88447e-294 1.13338e-32
1.00767 2.41265e-16 2.41264e-16 5.76742e-22 2.39049e-06 2.35476e-05 5.63034e-280 1.18244e-31
1.05939 2.22629e-16 2.22628e-16 4.74425e-22 2.13102e-06 2.16048e-05 1.63592e-266 1.08931e-30
1.11377 2.05119e-16 2.05118e-16 3.90139e-22 1.90202e-06 1.98363e-05 1.02795e-253 8.89143e-30
1.17094 1.8958e-16 1.8958e-16 3.20689e-22 1.69157e-06 1.81852e-05 1.51231e-241 6.49742e-29
1.23105 1.75255e-16 1.75255e-16 2.63723e-22 1.50479e-06 1.66737e-05 5.57669e-230 4.26151e-28
1.29424 1.61974e-16 1.61974e-16 2.16946e-22 1.33938e-06 1.52833e-05 5.51163e-219 2.5206e-27
1.36067 1.49694e-16 1.49694e-16 1.78361e-22 1.19151e-06 1.40167e-05 1.55727e-208 1.35148e-26
1.43051 1.38362e-16 1.38362e-16 1.46572e-22 1.05933e-06 1.28628e-05 1.33743e-198 6.60102e-26
1.50394 1.28073e-16 1.28072e-16 1.20492e-22 9.40807e-07 1.17962e-05 3.70531e-189 2.95421e-25
1.58114 1.18681e-16 1.18681e-16 9.90535e-23 8.34622e-07 1.08018e-05 3.49845e-180 1.21625e-24
1.6623 1.09994e-16 1.09994e-16 8.14382e-23 7.40389e-07 9.87947e-06 1.18544e-171 4.62081e-24
1.74762 1.01817e-16 1.01817e-16 6.69627e-23 6.57676e-07 9.04838e-06 1.51346e-163 1.62413e-23
1.83733 9.42695e-17 9.42695e-17 5.50543e-23 5.84009e-07 8.2887e-06 7.64573e-156 5.30861e-23
1.93164 8.72771e-17 8.72771e-17 4.52464e-23 5.18422e-07 7.59122e-06 1.59885e-148 1.61889e-22
2.03079 8.08682e-17 8.08681e-17 3.71772e-23 4.59726e-07 6.944e-06 1.44609e-141 4.62564e-22
2.13503 7.49034e-17 7.49033e-17 3.05709e-23 4.08138e-07 6.35198e-06 5.88702e-135 1.24092e-21
2.24463 6.93364e-17 6.93363e-17 2.5127e-23 3.62393e-07 5.81245e-06 1.12112e-128 3.1344e-21
2.35984 6.42355e-17 6.42355e-17 2.06448e-23 3.21392e-07 5.31514e-06 1.03805e-122 7.48692e-21
2.48097 5.95291e-17 5.95291e-17 1.69591e-23 2.84888e-07 4.85575e-06 4.8383e-117 1.69511e-20
2.60832 5.51379e-17 5.51379e-17 1.39431e-23 2.52877e-07 4.43199e-06 1.17286e-111 3.64443e-20
2.74221 5.10058e-17 5.10058e-17 1.14596e-23 2.24673e-07 4.0462e-06 1.52555e-106 7.4541e-20
2.88297 4.71865e-17 4.71865e-17 9.4112e-24 1.99447e-07 3.69725e-06 1.09895e-101 1.45594e-19
3.03095 4.36117e-17 4.36117e-17 7.73027e-24 1.77252e-07 3.38025e-06 4.50811e-97 2.71929e-19
3.18653 4.032e-17 4.032e-17 6.35066e-24 1.57506e-07 3.08609e-06 1.08376e-92 4.87357e-19
3.35009 3.7274e-17 3.7274e-17 5.21554e-24 1.39924e-07 2.81572e-06 1.5667e-88 8.39637e-19
3.52205 3.44457e-17 3.44457e-17 4.28128e-24 1.24291e-07 2.5697e-06 1.3957e-84 1.39301e-18
3.70284 3.1833e-17 3.1833e-17 3.5159e-24 1.10448e-07 2.34471e-06 7.84846e-81 2.23077e-18
3.89291 2.94371e-17 2.94371e-17 2.88629e-24 9.80496e-08 2.13719e-06 2.85092e-77 3.45673e-18
4.09273 2.72265e-17 2.72265e-17 2.3691e-24 8.70147e-08 1.94104e-06 6.83088e-74 5.18993e-18
4.30281 2.51594e-17 2.51594e-17 1.9442e-24 7.72752e-08 1.76387e-06 1.10056e-70 7.55451e-18
4.52368 2.3242e-17 2.3242e-17 1.59598e-24 6.86682e-08 1.60263e-06 1.21634e-67 1.06843e-17
4.75588 2.14684e-17 2.14684e-17 1.30963e-24 6.10026e-08 1.45485e-06 9.39429e-65 1.47071e-17
5 1.98577e-17 1.98577e-17 1.07434e-24 5.4102e-08 1.31343e-06 5.16767e-62 1.97611e-17
5.25665 1.83188e-17 1.83188e-17 8.81519e-25 4.81209e-08 1.18653e-06 2.0503e-59 2.58477e-17
5.52648 1.68792e-17 1.68792e-17 7.23265e-25 4.28495e-08 1.07308e-06 5.96913e-57 3.30024e-17
5.81015 1.5559e-17 1.5559e-17 5.9304e-25 3.81156e-08 9.69287e-07 1.29674e-54 4.12468e-17
6.10839 1.43555e-17 1.43555e-17 4.86134e-25 3.3864e-08 8.72278e-07 2.13329e-52 5.05435e-17
6.42193 1.32108e-17 1.32108e-17 3.98497e-25 3.01645e-08 7.93015e-07 2.68491e-50 6.05744e-17
6.75157 1.22022e-17 1.22022e-17 3.26704e-25 2.67742e-08 7.07894e-07 2.63501e-48 7.15159e-17
7.09813 1.12587e-17 1.12587e-17 2.67695e-25 2.37767e-08 6.34182e-07 2.03219e-46 8.28608e-17
7.46248 1.03989e-17 1.03989e-17 2.19278e-25 2.10867e-08 5.66047e-07 1.24858e-44 9.4493e-17
7.84553 9.62339e-18 9.62339e-18 1.79684e-25 1.86716e-08 5.00347e-07 6.18616e-43 1.06244e-16
8.24824 8.89451e-18 8.89451e-18 1.4719e-25 1.65484e-08 4.38356e-07 2.48973e-41 1.17489e-16
8.67162 8.21926e-18 8.21926e-18 1.20492e-25 1.46597e-08 3.85495e-07 8.23172e-40 1.28012e-16
9.11674 7.61014e-18 7.61014e-18 9.86362e-26 1.29612e-08 3.38755e-07 2.26205e-38 1.37813e-16
9.5847 7.06893e-18 7.06893e-18 8.07118e-26 1.14178e-08 2.957e-07 5.22074e-37 1.46874e-16
10.0767 6.59188e-18 6.59188e-18 6.60156e-26 1.00147e-08 2.55912e-07 1.02144e-35 1.55157e-16
10.5939 6.17117e-18 6.17117e-18 5.39552e-26 8.74309e-09 2.178e-07 1.7083e-34 1.62565e-16
11.1377 5.82014e-18 5.82014e-18 4.40643e-26 7.57101e-09 1.82759e-07 2.46995e-33 1.69611e-16
11.7094 5.4493e-18 5.4493e-18 3.63223e-26 6.6655e-09 1.5136e-07 3.06516e-32 1.73746e-16
12.3105 5.19688e-18 5.19688e-18 2.95338e-26 5.68298e-09 1.17556e-07 3.37379e-31 1.79381e-16
12.9424 4.96806e-18 4.96806e-18 2.41158e-26 4.85417e-09 8.55628e-08 3.26321e-30 1.83779e-16
13.6067 4.78519e-18 4.78519e-18 1.96923e-26 4.11525e-09 5.95175e-08 2.80589e-29 1.87885e-16
14.3051 4.66131e-18 4.66131e-18 1.60674e-26 3.44696e-09 3.59563e-08 2.16599e-28 1.92479e-16
15.0394 4.59822e-18 4.59822e-18 1.3102e-26 2.84936e-09 1.64762e-08 1.51191e-27 1.97935e-16
15.8114 4.60908e-18 4.60908e-18 1.06836e-26 2.31795e-09 -4.18404e-09 9.62796e-27 2.05095e-16
16.623 4.6924e-18 4.6924e-18 8.71003e-27 1.8562e-09 -2.59681e-08 5.62075e-26 2.14118e-16
17.4762 4.85792e-18 4.85792e-18 7.0973e-27 1.46098e-09 -4.28762e-08 3.02679e-25 2.25577e-16
18.3733 5.12899e-18 5.12899e-18 5.78007e-27 1.12694e-09 -6.34191e-08 1.51507e-24 2.40591e-16
19.3164 5.5129e-18 5.5129e-18 4.71336e-27 8.5497e-10 -8.10431e-08 7.06866e-24 2.59413e-16
20.3079 6.02748e-18 6.02748e-18 3.84597e-27 6.38073e-10 -9.96439e-08 3.08475e-23 2.82626e-16
21.3503 6.71494e-18 6.71494e-18 3.14156e-27 4.67847e-10 -1.132e-07 1.26646e-22 3.11757e-16
22.4463 7.61681e-18 7.61681e-18 2.57447e-27 3.37998e-10 -1.25597e-07 4.90715e-22 3.48022e-16
23.5984 8.76616e-18 8.76616e-18 2.12235e-27 2.42107e-10 -1.41017e-07 1.79478e-21 3.91913e-16
24.8097 1.01732e-17 1.01732e-17 1.76475e-27 1.7347e-10 -1.52351e-07 6.17999e-21 4.42583e-16
26.0832 1.1824e-17 1.1824e-17 1.48639e-27 1.25709e-10 -1.65179e-07 1.99642e-20 4.97952e-16
27.4221 1.35995e-17 1.35995e-17 1.26925e-27 9.33309e-11 -1.7247e-07 5.99771e-20 5.51666e-16
28.8297 1.5233e-17 1.5233e-17 1.10209e-27 7.23486e-11 -1.75735e-07 1.65408e-19 5.92427e-16
30.3095 1.65369e-17 1.65369e-17 9.68752e-28 5.85813e-11 -1.75206e-07 4.17948e-19 6.13863e-16
31.8653 1.69172e-17 1.69172e-17 8.51164e-28 5.03136e-11 -1.76263e-07 9.43355e-19 5.96906e-16
33.5009 1.6584e-17 1.6584e-17 7.46566e-28 4.50171e-11 -1.72282e-07 1.93922e-18 5.54029e-16
35.2206 1.52192e-17 1.52192e-17 6.3935e-28 4.20094e-11 -1.588e-07 3.55559e-18 4.79637e-16
37.0284 1.347e-17 1.347e-17 5.40804e-28 4.01488e-11 -1.56769e-07 6.0046e-18 3.99111e-16
38.9291 1.15503e-17 1.15503e-17 4.49264e-28 3.88964e-11 -1.35761e-07 9.40378e-18 3.20747e-16
40.9273 9.72954e-18 9.72954e-18 3.69618e-28 3.79892e-11 -1.2079e-07 1.38776e-17 2.52497e-16
43.0282 8.13974e-18 8.13974e-18 3.01541e-28 3.70455e-11 -1.03206e-07 1.95502e-17 1.96892e-16
45.2368 6.78465e-18 6.78465e-18 2.45175e-28 3.61367e-11 -8.61454e-08 2.64258e-17 1.52603e-16
47.5588 5.69083e-18 5.69083e-18 1.9885e-28 3.49422e-11 -5.19034e-08 3.468e-17 1.1877e-16
50 4.77323e-18 4.77323e-18 1.61305e-28 3.37937e-11 -2.16476e-08 4.39865e-17 9.22607e-17
52.5665 4.03448e-18 4.03448e-18 1.30771e-28 3.24134e-11 2.07599e-08 5.44283e-17 7.2102e-17
55.2648 3.42958e-18 3.42958e-18 1.06038e-28 3.09185e-11 5.41367e-08 6.56778e-17 5.65893e-17
58.1015 2.93329e-18 2.93329e-18 8.61013e-29 2.93532e-11 6.75939e-08 7.74353e-17 4.46327e-17
61.0839 2.52197e-18 2.52197e-18 6.99411e-29 2.77327e-11 9.91771e-08 8.92524e-17 3.53513e-17
64.2193 2.17831e-18 2.17831e-18 5.68369e-29 2.60922e-11 1.14479e-07 1.00641e-16 2.81057e-17
67.5157 1.89122e-18 1.89122e-18 4.62242e-29 2.44415e-11 1.37219e-07 1.1123e-16 2.24462e-17
70.9813 1.64913e-18 1.64913e-18 3.76299e-29 2.2818e-11 1.17044e-07 1.20542e-16 1.79957e-17
74.6248 1.44353e-18 1.44353e-18 3.0642e-29 2.12271e-11 1.24607e-07 1.28176e-16 1.44777e-17
78.4553 1.26793e-18 1.26793e-18 2.49573e-29 1.96834e-11 1.2333e-07 1.33831e-16 1.16848e-17
82.4824 1.11763e-18 1.11763e-18 2.03455e-29 1.82042e-11 1.4565e-07 1.37366e-16 9.46274e-18
86.7162 9.88838e-19 9.88838e-19 1.65925e-29 1.67798e-11 1.15699e-07 1.38779e-16 7.6915e-18
91.1674 8.77542e-19 8.77542e-19 1.3533e-29 1.54215e-11 1.43672e-07 1.38038e-16 6.27073e-18
95.847 7.80957e-19 7.80957e-19 1.10389e-29 1.41351e-11 1.38319e-07 1.35271e-16 5.12692e-18
100.767 6.97259e-19 6.97259e-19 9.0126e-30 1.29258e-11 9.83707e-08 1.30776e-16 4.20559e-18
105.939 6.26294e-19 6.26294e-19 7.35753e-30 1.17477e-11 6.23487e-08 1.25184e-16 3.47089e-18
111.377 5.65137e-19 5.65137e-19 6.00566e-30 1.06269e-11 9.503e-08 1.18574e-16 2.87785e-18
117.094 5.14745e-19 5.14745e-19 4.90423e-30 9.5275e-12 1.30027e-08 1.11755e-16 2.40864e-18
123.105 4.7479e-19 4.7479e-19 4.00809e-30 8.4418e-12 -2.30262e-08 1.05225e-16 2.04148e-18
129.424 4.42501e-19 4.42501e-19 3.27857e-30 7.40918e-12 2.6992e-08 9.88282e-17 1.74824e-18
136.067 4.11897e-19 4.11897e-19 2.68398e-30 6.51615e-12 8.88078e-08 9.15837e-17 1.49513e-18
143.051 3.73623e-19 3.73623e-19 2.20041e-30 5.88937e-12 -2.60555e-08 8.17569e-17 1.24585e-18
150.394 3.32171e-19 3.32171e-19 1.80344e-30 5.42925e-12 -2.94958e-08 7.07598e-17 1.0173e-18
158.114 2.90886e-19 2.90886e-19 1.47591e-30 5.07383e-12 6.25343e-08 5.97061e-17 8.18e-19
166.23 2.54361e-19 2.54361e-19 1.20709e-30 4.74558e-12 1.21919e-08 4.98201e-17 6.56577e-19
174.763 2.22752e-19 2.22752e-19 9.87641e-31 4.43381e-12 8.2703e-08 4.12539e-17 5.27595e-19
183.733 1.97276e-19 1.97276e-19 8.07694e-31 4.09423e-12 4.67098e-08 3.42502e-17 4.28557e-19
193.164 1.75033e-19 1.75033e-19 6.60376e-31 3.77286e-12 9.79303e-08 2.82574e-17 3.48578e-19
203.079 1.55896e-19 1.55896e-19 5.40042e-31 3.46412e-12 -1.6475e-07 2.32247e-17 2.84461e-19
213.503 1.39803e-19 1.39803e-19 4.4181e-31 3.16025e-12 -4.49397e-08 1.90818e-17 2.33591e-19
224.463 1.25301e-19 1.25301e-19 3.61373e-31 2.88403e-12 1.52897e-07 1.55639e-17 1.91589e-19
235.984 1.1223e-19 1.1223e-19 2.95519e-31 2.63316e-12 -1.77143e-07 1.26059e-17 1.56926e-19
248.097 1.00471e-19 1.00471e-19 2.41797e-31 2.40664e-12 -9.3878e-08 1.01443e-17 1.28375e-19
260.832 9.04828e-20 9.04828e-20 1.97853e-31 2.18664e-12 6.67638e-08 8.1666e-18 1.05565e-19
274.221 8.14944e-20 8.14944e-20 1.61857e-31 1.98612e-12 2.57472e-07 6.5406e-18 8.67437e-20
288.297 7.33128e-20 7.33128e-20 1.32393e-31 1.80587e-12 5.94009e-07 5.20651e-18 7.11324e-20
303.095 6.59715e-20 6.59715e-20 1.08365e-31 1.64261e-12 -1.68041e-07 4.12664e-18 5.82943e-20
318.653 5.95712e-20 5.95712e-20 8.86785e-32 1.48861e-12 4.21765e-07 3.26792e-18 4.78933e-20
335.009 5.37204e-20 5.37204e-20 7.25499e-32 1.35051e-12 4.43117e-07 2.57399e-18 3.92566e-20
352.206 4.83866e-20 4.83866e-20 5.9367e-32 1.22693e-12 7.98678e-08 2.0173e-18 3.21056e-20
370.284 4.37256e-20 4.37256e-20 4.85947e-32 1.11135e-12 2.85395e-07 1.58056e-18 2.6315e-20
389.291 3.9483e-20 3.9483e-20 3.9767e-32 1.00719e-12 7.73284e-08 1.23329e-18 2.15278e-20
409.273 3.56043e-20 3.56043e-20 3.25349e-32 9.13792e-13 8.68346e-07 9.58011e-19 1.75671e-20
430.282 3.22013e-20 3.22013e-20 2.66321e-32 8.27048e-13 -2.46239e-07 7.44178e-19 1.43597e-20
452.368 2.91151e-20 2.91151e-20 2.17993e-32 7.48727e-13 2.67099e-07 5.76314e-19 1.17195e-20
475.588 2.62887e-20 2.62887e-20 1.78389e-32 6.78578e-13 -1.18333e-07 4.4455e-19 9.53897e-21
500 2.37069e-20 2.37069e-20 1.45961e-32 6.15688e-13 9.31699e-08 3.41652e-19 7.74368e-21
525.665 2.15105e-20 2.15105e-20 1.19503e-32 5.55556e-13 7.05257e-07 2.63586e-19 6.3159e-21
552.648 1.94921e-20 1.94921e-20 9.78136e-33 5.01811e-13 -3.95748e-07 2.02658e-19 5.13697e-21
581.015 1.76391e-20 1.76391e-20 8.004e-33 4.53765e-13 -1.20514e-06 1.55289e-19 4.16593e-21
610.838 1.59424e-20 1.59424e-20 6.55096e-33 4.10914e-13 4.42627e-07 1.18619e-19 3.36882e-21
642.193 1.43914e-20 1.43914e-20 5.36307e-33 3.72657e-13 -1.69567e-07 9.03381e-20 2.7164e-21
675.157 1.29737e-20 1.29737e-20 4.38939e-33 3.3833e-13 2.80051e-07 6.85913e-20 2.18359e-21
709.813 1.17097e-20 1.17097e-20 3.5916e-33 3.0672e-13 -1.02935e-06 5.20603e-20 1.75428e-21
746.247 1.06282e-20 1.06282e-20 2.94039e-33 2.7666e-13 -1.70022e-06 3.96767e-20 1.41472e-21
784.553 9.6341e-21 9.6341e-21 2.40706e-33 2.49848e-13 6.62169e-07 3.01575e-20 1.13728e-21
824.824 8.72123e-21 8.72123e-21 1.96994e-33 2.25879e-13 8.66474e-07 2.28614e-20 9.11276e-22
867.162 7.88444e-21 7.88444e-21 1.61202e-33 2.04455e-13 -2.8914e-06 1.72862e-20 7.27803e-22
911.674 7.12004e-21 7.12004e-21 1.31988e-33 1.85376e-13 4.1063e-07 1.3041e-20 5.79476e-22
958.471 6.42107e-21 6.42107e-21 1.08039e-33 1.68257e-13 -1.91152e-06 9.81429e-21 4.5983e-22
1007.67 5.78914e-21 5.78914e-21 8.84117e-34 1.5272e-13 5.9232e-06 7.37635e-21 3.64049e-22
1059.39 5.24418e-21 5.24418e-21 7.23684e-34 1.37998e-13 5.8803e-06 5.5649e-21 2.88995e-22
1113.77 4.74476e-21 4.74476e-21 5.92488e-34 1.24872e-13 9.50503e-07 4.18936e-21 2.28665e-22
1170.94 4.28708e-21 4.28708e-21 4.84931e-34 1.13115e-13 -1.86051e-06 3.14681e-21 1.80312e-22
1231.05 3.87423e-21 3.87423e-21 3.96817e-34 1.02425e-13 8.03967e-06 2.3622e-21 1.41916e-22
1294.24 3.51027e-21 3.51027e-21 3.24889e-34 9.25536e-14 5.61255e-06 1.77647e-21 1.11757e-22
1360.67 3.17762e-21 3.17762e-21 2.65959e-34 8.36976e-14 -7.12881e-06 1.33379e-21 8.77476e-23
1430.51 2.87265e-21 2.87265e-21 2.17667e-34 7.57722e-14 3.92559e-06 9.99396e-22 6.86648e-23
1503.94 2.59461e-21 2.59461e-21 1.78126e-34 6.86524e-14 -1.90048e-06 7.47677e-22 5.35761e-23
1581.14 2.35416e-21 2.35416e-21 1.45849e-34 6.19537e-14 -1.1729e-05 5.61563e-22 4.19105e-23
1662.3 2.13328e-21 2.13328e-21 1.19388e-34 5.59646e-14 -3.85241e-06 4.20997e-22 3.26794e-23
1747.63 1.93054e-21 1.93054e-21 9.77019e-35 5.06087e-14 8.21143e-06 3.15018e-22 2.53985e-23
1837.33 1.74498e-21 1.74498e-21 7.9972e-35 4.58297e-14 -1.5109e-05 2.35315e-22 1.96794e-23
1931.64 1.57539e-21 1.57539e-21 6.54755e-35 4.15616e-14 -8.08907e-06 1.75483e-22 1.52018e-23
2030.79 1.43121e-21 1.43121e-21 5.35921e-35 3.74454e-14 4.62671e-06 1.31624e-22 1.17956e-23
2135.03 1.32165e-21 1.32165e-21 4.38534e-35 3.31808e-14 7.67149e-06 1.0031e-22 9.28705e-24
2244.63 1.21934e-21 1.21934e-21 3.59053e-35 2.94466e-14 1.60219e-06 7.63418e-23 7.2927e-24
2359.84 1.12371e-21 1.12371e-21 2.93938e-35 2.61579e-14 1.12422e-06 5.8014e-23 5.71086e-24
2480.97 1.03439e-21 1.03439e-21 2.40561e-35 2.32564e-14 -1.38583e-05 4.40189e-23 4.45978e-24
2608.32 9.51096e-22 9.51096e-22 1.9687e-35 2.06993e-14 -8.70165e-06 3.33507e-23 3.47346e-24
2742.21 8.73612e-22 8.73612e-22 1.61198e-35 1.84519e-14 7.57005e-06 2.52335e-23 2.69841e-24
2882.96 8.01475e-22 8.01475e-22 1.31954e-35 1.64639e-14 2.17018e-05 1.90629e-23 2.09073e-24
