# 0.000152549 2 80 : grain size, compostion index, size index
# This grain was stochastically heated: No
# Heating and cooling timescale: 0.00128781 2.51595e+07
# Ratio of heating to cooling to determine stochastic cutoff: 100
# Equilibrium emission is recorded even for those grains in the stochastic regime.
# Emission spectrum was computed for: 
# Type: IRSF
# Scale: 1
# Temperature: -1
# Wavelength  CExt  CAbs  CSca  Albedo G EqEmission StEmission
0.05 1.49697e-07 5.24016e-08 9.72955e-08 0.649949 0.857254 0 0
0.0525665 1.49931e-07 5.16728e-08 9.82581e-08 0.655356 0.845132 0 0
0.0552647 1.50175e-07 5.11625e-08 9.90121e-08 0.659313 0.83508 0 0
0.0581015 1.50406e-07 5.09996e-08 9.94062e-08 0.66092 0.828934 0 0
0.0610839 1.50637e-07 5.03774e-08 1.0026e-07 0.66557 0.820493 0 0
0.0642193 1.50944e-07 4.86959e-08 1.02248e-07 0.67739 0.802872 0 0
0.0675157 1.51352e-07 4.71102e-08 1.04241e-07 0.688737 0.78364 0 0
0.0709813 1.51794e-07 4.7209e-08 1.04585e-07 0.688993 0.776853 0 0
0.0746248 1.52211e-07 4.82135e-08 1.03998e-07 0.683246 0.778257 0 0
0.0784553 1.52592e-07 4.94905e-08 1.03101e-07 0.675668 0.783079 0 0
0.0824824 1.52952e-07 5.09172e-08 1.02035e-07 0.667103 0.788793 0 0
0.0867162 1.53306e-07 5.14508e-08 1.01855e-07 0.664391 0.787729 0 0
0.0911674 1.53707e-07 5.15258e-08 1.02182e-07 0.66478 0.782781 0 0
0.095847 1.5409e-07 5.20796e-08 1.02011e-07 0.662019 0.781029 0 0
0.100767 1.54266e-07 5.41029e-08 1.00163e-07 0.649289 0.791835 0 0
0.105939 1.54341e-07 5.60318e-08 9.83091e-08 0.636961 0.805754 0 0
0.111377 1.54097e-07 5.92481e-08 9.48491e-08 0.615515 0.832265 0 0
0.117094 1.54007e-07 6.25433e-08 9.14636e-08 0.593893 0.863362 0 0
0.123105 1.541e-07 6.47725e-08 8.93275e-08 0.579672 0.885177 0 0
0.129424 1.54259e-07 6.67405e-08 8.75181e-08 0.567346 0.904438 0 0
0.136067 1.54404e-07 6.83753e-08 8.60291e-08 0.557168 0.920047 0 0
0.143051 1.54432e-07 6.96528e-08 8.4779e-08 0.548974 0.932199 0 0
0.150394 1.54223e-07 7.02887e-08 8.39341e-08 0.544239 0.939974 0 0
0.158114 1.53951e-07 6.9868e-08 8.40828e-08 0.546167 0.94067 0 0
0.16623 1.54033e-07 6.80447e-08 8.59881e-08 0.558245 0.930117 0 0
0.174762 1.54677e-07 6.48949e-08 8.97822e-08 0.580449 0.904743 0 0
0.183733 1.55558e-07 6.11478e-08 9.44104e-08 0.606914 0.870827 0 0
0.193164 1.56579e-07 5.74053e-08 9.91741e-08 0.633379 0.836165 0 0
0.203079 1.5771e-07 5.43152e-08 1.03395e-07 0.655601 0.807764 0 0
0.213503 1.58999e-07 5.18346e-08 1.07164e-07 0.673994 0.784973 0 0
0.224463 1.60578e-07 5.06406e-08 1.09937e-07 0.684635 0.76965 0 0
0.235984 1.62217e-07 5.0469e-08 1.11748e-07 0.688881 0.759575 0 0
0.248097 1.63338e-07 5.15309e-08 1.11807e-07 0.684514 0.756059 0 0
0.260832 1.6358e-07 5.30392e-08 1.10541e-07 0.67576 0.757125 0 0
0.274221 1.63362e-07 5.45099e-08 1.08852e-07 0.666324 0.759718 0 0
0.288297 1.63081e-07 5.63377e-08 1.06743e-07 0.654541 0.767437 0 0
0.303095 1.63077e-07 5.76874e-08 1.05389e-07 0.646256 0.773467 0 0
0.318653 1.63177e-07 5.88455e-08 1.04331e-07 0.639375 0.778811 0 0
0.335009 1.63401e-07 5.98478e-08 1.03553e-07 0.633736 0.783443 0 0
0.352205 1.63732e-07 6.06504e-08 1.03082e-07 0.629576 0.786638 0 0
0.370284 1.6413e-07 6.12906e-08 1.02839e-07 0.626572 0.788461 0 0
0.389291 1.64562e-07 6.17782e-08 1.02784e-07 0.624591 0.788882 0 0
0.409273 1.65013e-07 6.22262e-08 1.02787e-07 0.622901 0.788933 0 0
0.430281 1.65474e-07 6.26587e-08 1.02815e-07 0.621337 0.788796 0 0
0.452368 1.65971e-07 6.31145e-08 1.02856e-07 0.619726 0.788828 0 0
0.475588 1.66493e-07 6.3573e-08 1.0292e-07 0.618164 0.78878 0 0
0.5 1.67054e-07 6.40166e-08 1.03037e-07 0.61679 0.788465 0 0
0.525665 1.67649e-07 6.4457e-08 1.03192e-07 0.615524 0.787972 0 0
0.552647 1.68262e-07 6.48962e-08 1.03366e-07 0.614315 0.787319 0 0
0.581015 1.6892e-07 6.52592e-08 1.03661e-07 0.613669 0.785891 0 0
0.610839 1.69598e-07 6.56277e-08 1.03971e-07 0.613041 0.784376 0 0
0.642193 1.7026e-07 6.6e-08 1.0426e-07 0.612358 0.782707 0 0
0.675157 1.71041e-07 6.6342e-08 1.04699e-07 0.612128 0.780853 0 0
0.709813 1.71751e-07 6.66487e-08 1.05102e-07 0.611946 0.778465 0 0
0.746248 1.72228e-07 6.69193e-08 1.05308e-07 0.611449 0.775247 0 0
0.784553 1.73336e-07 6.71332e-08 1.06202e-07 0.612698 0.772641 0 0
0.824824 1.7448e-07 6.72885e-08 1.07191e-07 0.614348 0.76997 0 0
0.867162 1.74241e-07 6.73926e-08 1.06848e-07 0.613222 0.764727 0 0
0.911674 1.74365e-07 6.73651e-08 1.06999e-07 0.613653 0.758569 0 0
0.95847 1.76834e-07 6.72728e-08 1.09561e-07 0.619571 0.75486 0 0
1.00767 1.79407e-07 6.70544e-08 1.12353e-07 0.626244 0.751087 0 0
1.05939 1.78682e-07 6.65548e-08 1.12127e-07 0.627523 0.742374 0 0
1.11377 1.75747e-07 6.55372e-08 1.1021e-07 0.627093 0.726081 0 0
1.17094 1.75487e-07 6.55122e-08 1.09974e-07 0.626682 0.719994 0 0
1.23105 1.80736e-07 6.57351e-08 1.15001e-07 0.636291 0.720433 0 0
1.29424 1.8571e-07 6.41359e-08 1.21575e-07 0.654646 0.721325 0 0
1.36067 1.875e-07 6.35407e-08 1.23959e-07 0.661116 0.714612 0 0
1.43051 1.85009e-07 6.29289e-08 1.22081e-07 0.659861 0.690221 0 0
1.50394 1.82195e-07 6.24018e-08 1.19793e-07 0.657499 0.672464 0 0
1.58114 1.75599e-07 6.03268e-08 1.15272e-07 0.656451 0.634236 0 0
1.6623 1.80428e-07 6.13528e-08 1.19075e-07 0.65996 0.623462 0 0
1.74762 1.79241e-07 5.79614e-08 1.2128e-07 0.676629 0.637626 0 0
1.83733 1.93857e-07 5.98257e-08 1.34031e-07 0.691393 0.641296 1.15219e-299 0
1.93164 1.92375e-07 5.61199e-08 1.36255e-07 0.708279 0.65878 6.90801e-285 0
2.03079 2.07928e-07 5.89012e-08 1.49027e-07 0.716723 0.669323 8.66536e-271 0
2.13503 2.00655e-07 5.70082e-08 1.43647e-07 0.715889 0.642917 2.03453e-257 0
2.24463 1.99924e-07 5.50736e-08 1.44851e-07 0.724528 0.658724 1.04581e-244 0
2.35984 2.01535e-07 5.94925e-08 1.42042e-07 0.704803 0.625429 1.42008e-232 0
2.48097 1.80704e-07 5.31112e-08 1.27593e-07 0.706087 0.585503 4.03975e-221 0
2.60832 1.86936e-07 5.80713e-08 1.28865e-07 0.689352 0.562227 3.81487e-210 0
2.74221 1.8394e-07 5.70097e-08 1.2693e-07 0.690063 0.509813 9.34476e-200 0
2.88297 1.71181e-07 5.33881e-08 1.17793e-07 0.688119 0.449809 6.70227e-190 0
3.03095 1.76903e-07 5.4236e-08 1.22667e-07 0.693413 0.444851 1.69561e-180 0
3.18653 1.86897e-07 5.53344e-08 1.31562e-07 0.703931 0.401351 1.47984e-171 0
3.35009 1.93876e-07 5.29259e-08 1.4095e-07 0.727012 0.438699 4.38208e-163 0
3.52205 1.96673e-07 5.20193e-08 1.44654e-07 0.735504 0.466068 5.07104e-155 0
3.70284 2.16812e-07 5.46072e-08 1.62205e-07 0.748136 0.473023 2.49881e-147 0
3.89291 2.2444e-07 5.42836e-08 1.70156e-07 0.758137 0.426949 4.86239e-140 0
4.09273 2.19683e-07 4.88337e-08 1.7085e-07 0.777709 0.429926 3.72631e-133 0
4.30281 2.31112e-07 4.83822e-08 1.8273e-07 0.790655 0.442175 1.42542e-126 0
4.52368 2.47085e-07 4.96865e-08 1.97398e-07 0.798909 0.456456 2.66261e-120 0
4.75588 2.68757e-07 5.2628e-08 2.16129e-07 0.80418 0.46067 2.50701e-114 0
5 2.66306e-07 5.33107e-08 2.12996e-07 0.799814 0.439778 1.14255e-108 0
5.25665 2.39143e-07 4.90405e-08 1.90102e-07 0.794932 0.407687 2.47425e-103 0
5.52648 2.2879e-07 4.63864e-08 1.82404e-07 0.797254 0.377418 2.97491e-98 0
5.81015 2.28178e-07 4.50592e-08 1.83119e-07 0.802527 0.346538 2.04453e-93 0
6.10839 2.3307e-07 4.45906e-08 1.88479e-07 0.808681 0.317113 8.19687e-89 0
6.42193 2.40828e-07 4.49882e-08 1.9584e-07 0.813194 0.293773 1.97187e-84 0
6.75157 2.4414e-07 4.58254e-08 1.98315e-07 0.812299 0.278071 2.89186e-80 0
7.09813 2.33475e-07 4.60425e-08 1.87432e-07 0.802794 0.263969 2.58966e-76 0
7.46248 2.13622e-07 4.52679e-08 1.68354e-07 0.788093 0.240643 1.43774e-72 0
7.84553 1.97272e-07 4.44508e-08 1.52821e-07 0.774672 0.204788 5.16571e-69 0
8.24824 1.86281e-07 4.40058e-08 1.42276e-07 0.763767 0.163636 1.23821e-65 0
8.67162 1.77958e-07 4.38403e-08 1.34117e-07 0.753648 0.124212 2.01698e-62 0
9.11674 1.70065e-07 4.36985e-08 1.26366e-07 0.743048 0.089411 2.26256e-59 0
9.5847 1.61324e-07 4.33665e-08 1.17957e-07 0.731183 0.0593682 1.77151e-56 0
10.0767 1.51297e-07 4.26904e-08 1.08606e-07 0.717836 0.0335601 9.81267e-54 0
10.5939 1.39863e-07 4.157e-08 9.82927e-08 0.70278 0.0110579 3.89899e-51 0
11.1377 1.27273e-07 4.00564e-08 8.72165e-08 0.685272 -0.00888294 1.12922e-48 0
11.7094 1.15168e-07 3.81771e-08 7.6991e-08 0.66851 -0.0238769 2.41844e-46 0
12.3105 1.01759e-07 3.60519e-08 6.57069e-08 0.645712 -0.0403883 3.89214e-44 0
12.9424 8.93389e-08 3.3767e-08 5.55719e-08 0.622035 -0.0541922 4.77528e-42 0
13.6067 7.79622e-08 3.15421e-08 4.64201e-08 0.595418 -0.0664723 4.54969e-40 0
14.3051 6.78501e-08 2.94771e-08 3.8373e-08 0.565556 -0.077403 3.41796e-38 0
15.0394 5.90781e-08 2.76119e-08 3.14662e-08 0.532621 -0.0870803 2.05239e-36 0
15.8114 5.16438e-08 2.59868e-08 2.56571e-08 0.496808 -0.0955568 9.98291e-35 0
16.623 4.53969e-08 2.45658e-08 2.08311e-08 0.458866 -0.103044 3.97405e-33 0
17.4762 4.02262e-08 2.33719e-08 1.68543e-08 0.418989 -0.109687 1.31027e-31 0
18.3733 3.6042e-08 2.24399e-08 1.36021e-08 0.377397 -0.115513 3.6223e-30 0
19.3164 3.27228e-08 2.17462e-08 1.09766e-08 0.335442 -0.120557 8.47371e-29 0
20.3079 3.01031e-08 2.12489e-08 8.85424e-09 0.29413 -0.125332 1.69024e-27 0
21.3503 2.82899e-08 2.11437e-08 7.14621e-09 0.252606 -0.129825 2.92713e-26 0
22.4463 2.72275e-08 2.14439e-08 5.7836e-09 0.212418 -0.13376 4.43959e-25 0
23.5984 2.6855e-08 2.21496e-08 4.70542e-09 0.175216 -0.137145 5.93616e-24 0
24.8097 2.70492e-08 2.31928e-08 3.85643e-09 0.142571 -0.140264 7.01461e-23 0
26.0832 2.7924e-08 2.47258e-08 3.19818e-09 0.114532 -0.143755 7.40637e-22 0
27.4221 2.92139e-08 2.65268e-08 2.68711e-09 0.0919803 -0.147008 6.95071e-21 0
28.8297 3.06655e-08 2.83692e-08 2.29634e-09 0.0748834 -0.150004 5.77796e-20 0
30.3095 3.19207e-08 2.99305e-08 1.99017e-09 0.0623474 -0.152756 4.23494e-19 0
31.8653 3.21681e-08 3.04362e-08 1.7319e-09 0.053839 -0.155325 2.68857e-18 0
33.5009 3.1504e-08 2.99939e-08 1.51009e-09 0.0479333 -0.15766 1.49421e-17 0
35.2206 2.93906e-08 2.81004e-08 1.29025e-09 0.0439001 -0.159682 7.16738e-17 0
37.0284 2.66358e-08 2.5546e-08 1.08977e-09 0.0409136 -0.16153 3.04298e-16 0
38.9291 2.35674e-08 2.26635e-08 9.03934e-10 0.0383552 -0.163163 1.15518e-15 0
40.9273 2.06126e-08 1.98704e-08 7.42191e-10 0.0360067 -0.164651 3.98783e-15 0
43.0282 1.80269e-08 1.74228e-08 6.04163e-10 0.0335145 -0.166231 1.27202e-14 0
45.2368 1.58145e-08 1.53244e-08 4.90124e-10 0.030992 -0.167777 3.77495e-14 0
47.5588 1.4129e-08 1.37322e-08 3.96853e-10 0.0280878 -0.169142 1.06251e-13 0
50 1.27099e-08 1.23885e-08 3.21483e-10 0.0252938 -0.170523 2.8125e-13 0
52.5665 1.16401e-08 1.13798e-08 2.60313e-10 0.0223635 -0.170712 7.10504e-13 0
55.2648 1.07924e-08 1.05815e-08 2.10878e-10 0.0195396 -0.170276 1.70833e-12 0
58.1015 1.01315e-08 9.96037e-09 1.71133e-10 0.0168912 -0.169255 3.92146e-12 0
61.0839 9.61627e-09 9.47729e-09 1.38986e-10 0.0144532 -0.167599 8.60578e-12 0
64.2193 9.23038e-09 9.1174e-09 1.12985e-10 0.0122405 -0.16527 1.81087e-11 0
67.5157 8.96122e-09 8.86925e-09 9.19655e-11 0.0102626 -0.161893 3.6636e-11 0
70.9813 8.80407e-09 8.72909e-09 7.49861e-11 0.0085172 -0.157274 7.14766e-11 0
74.6248 8.76418e-09 8.70297e-09 6.12098e-11 0.00698409 -0.150571 1.34964e-10 0
78.4553 8.84097e-09 8.79095e-09 5.00178e-11 0.0056575 -0.140413 2.47227e-10 0
82.4824 9.02203e-09 8.98111e-09 4.0919e-11 0.00453545 -0.123594 4.39509e-10 0
86.7162 9.11466e-09 9.08128e-09 3.33865e-11 0.00366294 -0.0960445 7.43553e-10 0
91.1674 8.8384e-09 8.81133e-09 2.70764e-11 0.00306349 -0.0587904 1.16282e-09 0
95.847 8.06458e-09 8.04276e-09 2.1819e-11 0.00270554 -0.0173676 1.65103e-09 0
100.767 6.83004e-09 6.81253e-09 1.75103e-11 0.00256372 0.0213999 2.10311e-09 0
105.939 5.23682e-09 5.22283e-09 1.39884e-11 0.00267117 0.0455269 2.34802e-09 0
111.377 3.8286e-09 3.81738e-09 1.12178e-11 0.00292999 0.0513811 2.424e-09 0
117.094 2.82191e-09 2.81286e-09 9.0524e-12 0.0032079 0.0427403 2.4505e-09 0
123.105 2.17215e-09 2.1648e-09 7.34669e-12 0.00338222 0.0291317 2.51684e-09 0
129.424 1.77805e-09 1.77207e-09 5.98655e-12 0.00336691 0.0150793 2.67808e-09 0
136.067 1.49328e-09 1.48839e-09 4.88997e-12 0.00327466 0.00391311 2.85171e-09 0
143.051 1.30845e-09 1.30444e-09 4.0046e-12 0.00306058 -0.00571659 3.09405e-09 0
150.394 1.13297e-09 1.12969e-09 3.27967e-12 0.00289474 -0.0134775 3.24304e-09 0
158.114 1.0185e-09 1.01582e-09 2.68313e-12 0.00263439 -0.0191077 3.45429e-09 0
166.23 9.12818e-10 9.10624e-10 2.19391e-12 0.00240345 -0.0242335 3.59381e-09 0
174.763 8.16087e-10 8.14292e-10 1.79478e-12 0.00219925 -0.0288968 3.6579e-09 0
183.733 7.51029e-10 7.49561e-10 1.46763e-12 0.00195416 -0.0319001 3.76251e-09 0
193.164 6.92741e-10 6.91541e-10 1.19988e-12 0.00173208 -0.0346601 3.81147e-09 0
203.079 6.42212e-10 6.41231e-10 9.8119e-13 0.00152783 -0.0368927 3.81648e-09 0
213.503 6.02273e-10 6.01471e-10 8.02653e-13 0.00133271 -0.038154 3.80519e-09 0
224.463 5.65009e-10 5.64353e-10 6.56478e-13 0.00116189 -0.0393598 3.73866e-09 0
235.984 5.30219e-10 5.29682e-10 5.36823e-13 0.00101246 -0.0405117 3.62253e-09 0
248.097 4.97778e-10 4.97339e-10 4.39223e-13 0.000882366 -0.0416098 3.46444e-09 0
260.832 4.70701e-10 4.70341e-10 3.59366e-13 0.00076347 -0.0418604 3.29489e-09 0
274.221 4.45682e-10 4.45388e-10 2.93959e-13 0.000659571 -0.0419572 3.10008e-09 0
288.297 4.22016e-10 4.21775e-10 2.40428e-13 0.000569714 -0.0420496 2.88382e-09 0
303.095 3.99892e-10 3.99695e-10 1.96777e-13 0.000492075 -0.0420056 2.65574e-09 0
318.653 3.79709e-10 3.79548e-10 1.61006e-13 0.000424026 -0.0414623 2.4259e-09 0
335.009 3.6049e-10 3.60359e-10 1.31707e-13 0.000365357 -0.040942 2.19443e-09 0
352.206 3.42221e-10 3.42113e-10 1.07763e-13 0.000314893 -0.0404439 1.96699e-09 0
370.284 3.24823e-10 3.24735e-10 8.81954e-14 0.000271518 -0.0395244 1.74785e-09 0
389.291 3.08235e-10 3.08163e-10 7.2163e-14 0.000234117 -0.0385876 1.54031e-09 0
409.273 2.92432e-10 2.92373e-10 5.90312e-14 0.000201863 -0.0376898 1.34691e-09 0
430.282 2.76896e-10 2.76848e-10 4.83126e-14 0.000174479 -0.0364636 1.16715e-09 0
452.368 2.62002e-10 2.61962e-10 3.95385e-14 0.000150909 -0.0352036 1.00395e-09 0
475.588 2.4785e-10 2.47818e-10 3.23502e-14 0.000130523 -0.0340011 8.57955e-10 0
500 2.34401e-10 2.34375e-10 2.64655e-14 0.000112907 -0.0328477 7.28694e-10 0
525.665 2.20193e-10 2.20171e-10 2.16633e-14 9.83834e-05 -0.0312201 6.11357e-10 0
552.648 2.06777e-10 2.0676e-10 1.77279e-14 8.57341e-05 -0.0296715 5.10091e-10 0
581.015 1.94137e-10 1.94123e-10 1.45039e-14 7.47095e-05 -0.0282032 4.2344e-10 0
610.838 1.82251e-10 1.82239e-10 1.18688e-14 6.51235e-05 -0.0268129 3.49871e-10 0
642.193 1.71084e-10 1.71074e-10 9.71509e-15 5.67855e-05 -0.0254971 2.87835e-10 0
675.157 1.60589e-10 1.60581e-10 7.95018e-15 4.95065e-05 -0.0242508 2.35831e-10 0
709.813 1.50247e-10 1.5024e-10 6.50417e-15 4.329e-05 -0.0229562 1.9187e-10 0
746.247 1.39395e-10 1.3939e-10 5.32386e-15 3.81926e-05 -0.021449 1.54253e-10 0
784.553 1.29325e-10 1.29321e-10 4.35743e-15 3.36936e-05 -0.020038 1.23598e-10 0
824.824 1.19984e-10 1.1998e-10 3.56556e-15 2.9717e-05 -0.0187169 9.87299e-11 0
867.162 1.11326e-10 1.11323e-10 2.91731e-15 2.6205e-05 -0.017481 7.86422e-11 0
911.674 1.03321e-10 1.03318e-10 2.3883e-15 2.31154e-05 -0.0163267 6.24873e-11 0
958.471 9.59057e-11 9.59037e-11 1.95471e-15 2.03816e-05 -0.0152467 4.95312e-11 0
1007.67 8.89105e-11 8.89089e-11 1.59941e-15 1.7989e-05 -0.0142139 3.91178e-11 0
1059.39 8.18036e-11 8.18023e-11 1.30901e-15 1.60018e-05 -0.0131356 3.05914e-11 0
1113.77 7.5292e-11 7.5291e-11 1.07158e-15 1.42322e-05 -0.0121372 2.38814e-11 0
1170.94 6.93191e-11 6.93182e-11 8.76957e-16 1.2651e-05 -0.0112115 1.86115e-11 0
1231.05 6.36285e-11 6.36278e-11 7.17529e-16 1.12768e-05 -0.0103283 1.4434e-11 0
1294.24 5.82549e-11 5.82543e-11 5.8741e-16 1.00835e-05 -0.00948968 1.11457e-11 0
1360.67 5.33601e-11 5.33596e-11 4.80825e-16 9.01095e-06 -0.00871702 8.59638e-12 0
1430.51 4.88995e-11 4.88991e-11 3.93482e-16 8.04676e-06 -0.00800509 6.62291e-12 0
1503.94 4.48149e-11 4.48145e-11 3.21981e-16 7.1847e-06 -0.00734711 5.09539e-12 0
1581.14 4.08141e-11 4.08138e-11 2.6362e-16 6.45903e-06 -0.00671437 3.89026e-12 0
1662.3 3.71885e-11 3.71883e-11 2.15776e-16 5.80224e-06 -0.00613486 2.96774e-12 0
1747.63 3.3905e-11 3.39049e-11 1.76568e-16 5.20771e-06 -0.00560418 2.26255e-12 0
1837.33 3.09355e-11 3.09354e-11 1.44522e-16 4.67171e-06 -0.0051187 1.72429e-12 0
1931.64 2.82483e-11 2.82482e-11 1.18318e-16 4.1885e-06 -0.00467424 1.31369e-12 0
2030.79 2.56218e-11 2.56217e-11 9.68374e-17 3.7795e-06 -0.00425101 9.93146e-13 0
2135.03 2.28609e-11 2.28608e-11 7.9235e-17 3.46597e-06 -0.00383522 7.37869e-13 0
2244.63 2.04169e-11 2.04169e-11 6.48714e-17 3.17734e-06 -0.00346406 5.48234e-13 0
2359.84 1.8247e-11 1.8247e-11 5.31043e-17 2.9103e-06 -0.00313153 4.07272e-13 0
2480.97 1.63189e-11 1.63189e-11 4.34599e-17 2.66315e-06 -0.00283318 3.02515e-13 0
2608.32 1.46062e-11 1.46061e-11 3.55652e-17 2.43494e-06 -0.00256539 2.24711e-13 0
2742.21 1.30865e-11 1.30865e-11 2.91197e-17 2.22517e-06 -0.00232517 1.66967e-13 0
2882.96 1.17338e-11 1.17338e-11 2.3836e-17 2.03139e-06 -0.0021089 1.2407e-13 0
3030.95 1.0529e-11 1.0529e-11 1.95057e-17 1.85256e-06 -0.00191397 9.22053e-14 0
3186.53 9.4572e-12 9.45718e-12 1.59664e-17 1.68828e-06 -0.00173839 6.855e-14 0
3350.09 8.50258e-12 8.50257e-12 1.30718e-17 1.53739e-06 -0.00157999 5.09826e-14 0
3522.05 7.65051e-12 7.6505e-12 1.06991e-17 1.39848e-06 -0.00143677 3.79273e-14 0
3702.84 6.88942e-12 6.88942e-12 8.75468e-18 1.27074e-06 -0.00130711 2.82233e-14 0
3892.91 6.21101e-12 6.21101e-12 7.168e-18 1.15408e-06 -0.00118992 2.10156e-14 0
4092.73 5.60428e-12 5.60427e-12 5.86798e-18 1.04705e-06 -0.00108365 1.5655e-14 0
4302.81 5.06104e-12 5.06104e-12 4.80245e-18 9.48905e-07 -0.000987134 1.16664e-14 0
4523.68 4.57465e-12 4.57465e-12 3.9302e-18 8.59126e-07 -0.000899468 8.69831e-15 0
4755.88 4.13954e-12 4.13954e-12 3.218e-18 7.77381e-07 -0.000819879 6.48997e-15 0
5000 3.749e-12 3.749e-12 2.63413e-18 7.02621e-07 -0.000747385 4.8446e-15 0
