# 0.00152242 3 102 : grain size, compostion index, size index
# This grain was stochastically heated: No
# Heating and cooling timescale: 1.49535e-05 1.88285e+24
# Ratio of heating to cooling to determine stochastic cutoff: 100
# Equilibrium emission is recorded even for those grains in the stochastic regime.
# Emission spectrum was computed for: 
# Type: IRSF
# Scale: 1
# Temperature: -1
# Wavelength  CExt  CAbs  CSca  Albedo G EqEmission StEmission
0.05 1.46485e-05 5.16715e-06 9.48132e-06 0.647257 0.854519 0 0
0.0525665 1.46525e-05 5.08407e-06 9.56842e-06 0.653023 0.842089 0 0
0.0552647 1.46567e-05 5.02154e-06 9.63518e-06 0.65739 0.831773 0 0
0.0581015 1.46608e-05 4.99371e-06 9.66704e-06 0.659383 0.82545 0 0
0.0610839 1.46647e-05 4.92353e-06 9.74121e-06 0.664261 0.816738 0 0
0.0642193 1.46697e-05 4.7478e-06 9.92189e-06 0.676353 0.798553 0 0
0.0675157 1.46756e-05 4.57381e-06 1.01018e-05 0.688339 0.778688 0 0
0.0709813 1.4682e-05 4.55823e-06 1.01238e-05 0.689536 0.771625 0 0
0.0746248 1.46883e-05 4.62982e-06 1.00585e-05 0.684795 0.772998 0 0
0.0784553 1.46944e-05 4.72878e-06 9.96558e-06 0.678191 0.777905 0 0
0.0824824 1.47005e-05 4.84166e-06 9.8588e-06 0.670646 0.783783 0 0
0.0867162 1.47067e-05 4.8699e-06 9.8368e-06 0.668865 0.782687 0 0
0.0911674 1.47137e-05 4.85031e-06 9.86336e-06 0.670354 0.777581 0 0
0.095847 1.47207e-05 4.87444e-06 9.84628e-06 0.668872 0.775848 0 0
0.100767 1.47262e-05 5.04884e-06 9.67735e-06 0.657152 0.787252 0 0
0.105939 1.47303e-05 5.22328e-06 9.50707e-06 0.645407 0.801829 0 0
0.111377 1.47319e-05 5.5386e-06 9.19328e-06 0.62404 0.829676 0 0
0.117094 1.47326e-05 5.86156e-06 8.87107e-06 0.602138 0.861858 0 0
0.123105 1.47358e-05 6.07065e-06 8.66518e-06 0.588035 0.884387 0 0
0.129424 1.474e-05 6.24868e-06 8.49132e-06 0.576073 0.90426 0 0
0.136067 1.47443e-05 6.39151e-06 8.35281e-06 0.56651 0.920377 0 0
0.143051 1.47478e-05 6.50261e-06 8.24521e-06 0.55908 0.932949 0 0
0.150394 1.47494e-05 6.56525e-06 8.18412e-06 0.554879 0.941054 0 0
0.158114 1.47508e-05 6.54182e-06 8.20897e-06 0.55651 0.941941 0 0
0.16623 1.47556e-05 6.38548e-06 8.37009e-06 0.56725 0.931228 0 0
0.174762 1.47657e-05 6.08003e-06 8.68562e-06 0.588231 0.904947 0 0
0.183733 1.47782e-05 5.69686e-06 9.08132e-06 0.614509 0.869456 0 0
0.193164 1.4792e-05 5.29983e-06 9.49213e-06 0.641709 0.83293 0 0
0.203079 1.48067e-05 4.95586e-06 9.85086e-06 0.665297 0.802752 0 0
0.213503 1.48227e-05 4.66151e-06 1.01612e-05 0.685515 0.778213 0 0
0.224463 1.48411e-05 4.46816e-06 1.0373e-05 0.698934 0.761267 0 0
0.235984 1.48616e-05 4.36264e-06 1.04989e-05 0.706448 0.749877 0 0
0.248097 1.48833e-05 4.39239e-06 1.04909e-05 0.704879 0.746187 0 0
0.260832 1.49015e-05 4.50763e-06 1.03938e-05 0.697505 0.748303 0 0
0.274221 1.49145e-05 4.64344e-06 1.0271e-05 0.688662 0.752432 0 0
0.288297 1.49204e-05 4.81642e-06 1.01039e-05 0.677191 0.761766 0 0
0.303095 1.49269e-05 4.93537e-06 9.99156e-06 0.669365 0.768895 0 0
0.318653 1.49341e-05 5.03265e-06 9.90149e-06 0.66301 0.775171 0 0
0.335009 1.49425e-05 5.11034e-06 9.83212e-06 0.657999 0.780571 0 0
0.352205 1.49524e-05 5.16497e-06 9.78745e-06 0.654573 0.784387 0 0
0.370284 1.49636e-05 5.20172e-06 9.76192e-06 0.652376 0.786745 0 0
0.389291 1.49757e-05 5.22293e-06 9.7528e-06 0.651241 0.787652 0 0
0.409273 1.49884e-05 5.23963e-06 9.74874e-06 0.65042 0.788195 0 0
0.430281 1.50012e-05 5.25432e-06 9.74693e-06 0.649741 0.788577 0 0
0.452368 1.50149e-05 5.26933e-06 9.74557e-06 0.64906 0.789145 0 0
0.475588 1.50291e-05 5.28328e-06 9.7458e-06 0.648463 0.789657 0 0
0.5 1.50441e-05 5.2941e-06 9.75003e-06 0.648095 0.789908 0 0
0.525665 1.50601e-05 5.30294e-06 9.75712e-06 0.647881 0.789999 0 0
0.552647 1.50765e-05 5.31076e-06 9.76575e-06 0.647746 0.789969 0 0
0.581015 1.50943e-05 5.31012e-06 9.78413e-06 0.648202 0.789147 0 0
0.610839 1.51126e-05 5.3093e-06 9.80334e-06 0.648685 0.788284 0 0
0.642193 1.51316e-05 5.30824e-06 9.82331e-06 0.649194 0.78738 0 0
0.675157 1.51513e-05 5.30405e-06 9.84724e-06 0.649927 0.78616 0 0
0.709813 1.51719e-05 5.29696e-06 9.87491e-06 0.650869 0.784645 0 0
0.746248 1.51931e-05 5.28857e-06 9.90448e-06 0.651909 0.782975 0 0
0.784553 1.52148e-05 5.27983e-06 9.935e-06 0.652981 0.781264 0 0
0.824824 1.52372e-05 5.27085e-06 9.96635e-06 0.65408 0.7795 0 0
0.867162 1.526e-05 5.26158e-06 9.99845e-06 0.655205 0.777691 0 0
0.911674 1.52834e-05 5.25238e-06 1.0031e-05 0.656335 0.775871 0 0
0.95847 1.53072e-05 5.24409e-06 1.00631e-05 0.657409 0.774099 0 0
1.00767 1.53314e-05 5.23578e-06 1.00956e-05 0.658493 0.772314 0 0
1.05939 1.53559e-05 5.22904e-06 1.01269e-05 0.659478 0.770634 0 0
1.11377 1.5381e-05 5.22187e-06 1.01591e-05 0.660498 0.768912 0 0
1.17094 1.54067e-05 5.21615e-06 1.01906e-05 0.661436 0.767291 0 0
1.23105 1.54329e-05 5.21061e-06 1.02223e-05 0.662371 0.765671 0 0
1.29424 1.54599e-05 5.20352e-06 1.02563e-05 0.663417 0.763921 0 0
1.36067 1.54872e-05 5.19711e-06 1.02901e-05 0.664425 0.762212 0 0
1.43051 1.55152e-05 5.19176e-06 1.03234e-05 0.665376 0.760576 0 0
1.50394 1.55428e-05 5.18712e-06 1.03557e-05 0.66627 0.758965 0 0
1.58114 1.55724e-05 5.18181e-06 1.03906e-05 0.667244 0.757312 0 0
1.6623 1.56042e-05 5.17483e-06 1.04294e-05 0.66837 0.75556 0 0
1.74762 1.56363e-05 5.167e-06 1.04693e-05 0.669551 0.753749 0 0
1.83733 1.56672e-05 5.15904e-06 1.05082e-05 0.670711 0.751921 0 0
1.93164 1.57009e-05 5.15e-06 1.05509e-05 0.671992 0.750065 0 0
2.03079 1.5738e-05 5.13963e-06 1.05984e-05 0.673426 0.748186 0 0
2.13503 1.57702e-05 5.12613e-06 1.06441e-05 0.674948 0.746052 0 0
2.24463 1.57925e-05 5.11091e-06 1.06815e-05 0.67637 0.743724 0 0
2.35984 1.58051e-05 5.09436e-06 1.07108e-05 0.677677 0.741101 0 0
2.48097 1.58462e-05 5.07461e-06 1.07716e-05 0.679758 0.738804 0 0
2.60832 1.59258e-05 5.05127e-06 1.08745e-05 0.682824 0.736879 0 0
2.74221 1.59231e-05 5.02621e-06 1.08969e-05 0.684345 0.733637 0 0
2.88297 1.59316e-05 4.99755e-06 1.09341e-05 0.686312 0.730465 0 0
3.03095 1.60573e-05 4.96735e-06 1.10899e-05 0.690648 0.728864 0 0
3.18653 1.59901e-05 4.93709e-06 1.1053e-05 0.691241 0.724215 0 0
3.35009 1.6113e-05 4.9032e-06 1.12098e-05 0.695698 0.72253 2.63594e-299 0
3.52205 1.6088e-05 4.86533e-06 1.12227e-05 0.69758 0.718278 1.71933e-284 0
3.70284 1.61693e-05 4.83238e-06 1.13369e-05 0.701139 0.715762 2.09612e-270 0
3.89291 1.6147e-05 4.79906e-06 1.1348e-05 0.70279 0.711812 5.17899e-257 0
4.09273 1.63002e-05 4.75998e-06 1.15402e-05 0.70798 0.709984 2.80015e-244 0
4.30281 1.61644e-05 4.72074e-06 1.14436e-05 0.707954 0.70357 3.57198e-232 0
4.52368 1.64494e-05 4.68618e-06 1.17632e-05 0.715114 0.704873 1.15485e-220 0
4.75588 1.62247e-05 4.65139e-06 1.15733e-05 0.713315 0.697037 1.01084e-209 0
5 1.64157e-05 4.60734e-06 1.18083e-05 0.719333 0.695202 2.54828e-199 0
5.25665 1.65358e-05 4.58111e-06 1.19547e-05 0.722958 0.694089 1.97765e-189 0
5.52648 1.62711e-05 4.52126e-06 1.17499e-05 0.72213 0.684828 4.948e-180 0
5.81015 1.65968e-05 4.49787e-06 1.2099e-05 0.728993 0.685889 4.2836e-171 0
6.10839 1.67377e-05 4.43813e-06 1.22996e-05 0.734843 0.683381 1.32977e-162 0
6.42193 1.63414e-05 4.41594e-06 1.19255e-05 0.72977 0.671069 1.58222e-154 0
6.75157 1.65947e-05 4.35863e-06 1.2236e-05 0.737348 0.672655 7.43812e-147 0
7.09813 1.7008e-05 4.33988e-06 1.26681e-05 0.744833 0.676764 1.47024e-139 0
7.46248 1.66986e-05 4.36015e-06 1.23384e-05 0.73889 0.666816 1.27501e-132 0
7.84553 1.64473e-05 4.33972e-06 1.21076e-05 0.736144 0.6563 4.96238e-126 0
8.24824 1.68413e-05 4.30955e-06 1.25318e-05 0.744109 0.66085 9.07066e-120 0
8.67162 1.72637e-05 4.29004e-06 1.29736e-05 0.751499 0.66691 8.11942e-114 0
9.11674 1.70208e-05 4.29669e-06 1.27241e-05 0.747562 0.66239 3.69826e-108 0
9.5847 1.66131e-05 4.34058e-06 1.22725e-05 0.738725 0.651274 8.88651e-103 0
10.0767 1.67948e-05 4.41897e-06 1.23759e-05 0.736885 0.651409 1.16133e-97 0
10.5939 1.73699e-05 4.49583e-06 1.28741e-05 0.741171 0.661614 8.438e-93 0
11.1377 1.75422e-05 4.52709e-06 1.30151e-05 0.741932 0.661647 3.47328e-88 0
11.7094 1.75462e-05 4.57131e-06 1.29749e-05 0.73947 0.656622 8.43252e-84 0
12.3105 1.70447e-05 4.60291e-06 1.24418e-05 0.72995 0.644224 1.2325e-79 0
12.9424 1.69265e-05 4.59878e-06 1.23277e-05 0.728309 0.638598 1.10582e-75 0
13.6067 1.73183e-05 4.70241e-06 1.26159e-05 0.728471 0.6488 6.43229e-72 0
14.3051 1.7774e-05 4.76267e-06 1.30114e-05 0.732043 0.657349 2.40005e-68 0
15.0394 1.78819e-05 4.82531e-06 1.30566e-05 0.730156 0.658585 5.9268e-65 0
15.8114 1.77331e-05 4.94829e-06 1.27848e-05 0.720958 0.654191 9.99954e-62 0
16.623 1.7462e-05 4.99821e-06 1.24638e-05 0.713766 0.645179 1.14356e-58 0
17.4762 1.74403e-05 5.05455e-06 1.23857e-05 0.71018 0.637004 9.17507e-56 0
18.3733 1.76015e-05 5.05066e-06 1.25509e-05 0.713055 0.632489 5.18697e-53 0
19.3164 1.78765e-05 5.02e-06 1.28565e-05 0.719184 0.632498 2.11436e-50 0
20.3079 1.79785e-05 4.9639e-06 1.30146e-05 0.723898 0.63119 6.31468e-48 0
21.3503 1.78503e-05 4.86779e-06 1.29825e-05 0.727299 0.625891 1.39798e-45 0
22.4463 1.76458e-05 4.7812e-06 1.28646e-05 0.729045 0.618837 2.35043e-43 0
23.5984 1.74793e-05 4.7064e-06 1.27729e-05 0.730745 0.610928 3.04341e-41 0
24.8097 1.73912e-05 4.63067e-06 1.27606e-05 0.733735 0.600451 3.06645e-39 0
26.0832 1.74097e-05 4.56694e-06 1.28428e-05 0.737679 0.585542 2.44037e-37 0
27.4221 1.75294e-05 4.50916e-06 1.30202e-05 0.742766 0.567647 1.55017e-35 0
28.8297 1.77945e-05 4.48161e-06 1.33129e-05 0.748146 0.549996 7.98999e-34 0
30.3095 1.81198e-05 4.46649e-06 1.36533e-05 0.753502 0.534603 3.3643e-32 0
31.8653 1.84223e-05 4.46085e-06 1.39614e-05 0.757855 0.52091 1.16809e-30 0
33.5009 1.86634e-05 4.43569e-06 1.42277e-05 0.762333 0.505562 3.35416e-29 0
35.2206 1.88366e-05 4.40965e-06 1.44269e-05 0.7659 0.487696 8.0721e-28 0
37.0284 1.90137e-05 4.36256e-06 1.46512e-05 0.770557 0.466436 1.63453e-26 0
38.9291 1.918e-05 4.29318e-06 1.48868e-05 0.776164 0.44399 2.80669e-25 0
40.9273 1.93253e-05 4.17894e-06 1.51464e-05 0.783758 0.42216 4.09541e-24 0
43.0282 1.94416e-05 4.05402e-06 1.53876e-05 0.791477 0.403293 5.15501e-23 0
45.2368 1.954e-05 3.94826e-06 1.55918e-05 0.79794 0.387839 5.67804e-22 0
47.5588 1.9589e-05 3.90912e-06 1.56799e-05 0.800443 0.374656 5.57944e-21 0
50 1.95413e-05 3.88096e-06 1.56604e-05 0.801397 0.359 4.85499e-20 0
52.5665 1.93813e-05 3.85923e-06 1.55221e-05 0.800879 0.33724 3.75977e-19 0
55.2648 1.91315e-05 3.8022e-06 1.53293e-05 0.80126 0.306097 2.57792e-18 0
58.1015 1.88709e-05 3.70685e-06 1.51641e-05 0.803568 0.26502 1.57172e-17 0
61.0839 1.86961e-05 3.59603e-06 1.51e-05 0.807658 0.216713 8.61285e-17 0
64.2193 1.86733e-05 3.50101e-06 1.51723e-05 0.812512 0.165475 4.29987e-16 0
67.5157 1.88167e-05 3.44678e-06 1.53699e-05 0.816823 0.115651 1.97989e-15 0
70.9813 1.9086e-05 3.44205e-06 1.56439e-05 0.819655 0.0701309 8.47216e-15 0
74.6248 1.94078e-05 3.48484e-06 1.5923e-05 0.820442 0.0299928 3.38177e-14 0
78.4553 1.9696e-05 3.56565e-06 1.61303e-05 0.818966 -0.00481512 1.26036e-13 0
82.4824 1.98594e-05 3.67358e-06 1.61858e-05 0.81502 -0.0347731 4.38652e-13 0
86.7162 1.98174e-05 3.7911e-06 1.60263e-05 0.808699 -0.0607016 1.42349e-12 0
91.1674 1.95036e-05 3.89587e-06 1.56078e-05 0.800249 -0.0834228 4.29688e-12 0
95.847 1.88795e-05 3.97211e-06 1.49074e-05 0.789607 -0.103534 1.20606e-11 0
100.767 1.79464e-05 4.01432e-06 1.39321e-05 0.776316 -0.121345 3.15488e-11 0
105.939 1.67703e-05 4.02822e-06 1.27421e-05 0.7598 -0.136871 7.72737e-11 0
111.377 1.54177e-05 4.00761e-06 1.14101e-05 0.740064 -0.150469 1.77472e-10 0
117.094 1.39741e-05 3.94592e-06 1.00282e-05 0.717627 -0.162059 3.82532e-10 0
123.105 1.25133e-05 3.83785e-06 8.67543e-06 0.693298 -0.171597 7.74393e-10 0
129.424 1.10521e-05 3.64201e-06 7.41011e-06 0.67047 -0.179553 1.45786e-09 0
136.067 9.62372e-06 3.36975e-06 6.25396e-06 0.649849 -0.186495 2.55653e-09 0
143.051 8.19938e-06 2.97828e-06 5.2211e-06 0.636768 -0.194487 4.10039e-09 0
150.394 6.89904e-06 2.58404e-06 4.315e-06 0.625449 -0.202546 6.19475e-09 0
158.114 5.77877e-06 2.24671e-06 3.53205e-06 0.611212 -0.211694 9.01715e-09 0
166.23 4.83871e-06 1.96206e-06 2.87665e-06 0.594507 -0.220211 1.26999e-08 0
174.763 4.06341e-06 1.72593e-06 2.33748e-06 0.575251 -0.227999 1.73874e-08 0
183.733 3.4527e-06 1.55724e-06 1.89546e-06 0.548979 -0.234922 2.3605e-08 0
193.164 2.95015e-06 1.41462e-06 1.53553e-06 0.520492 -0.241104 3.12431e-08 0
203.079 2.54074e-06 1.29681e-06 1.24393e-06 0.489594 -0.246468 4.04736e-08 0
213.503 2.2122e-06 1.20402e-06 1.00817e-06 0.455735 -0.250902 5.15789e-08 0
224.463 1.9379e-06 1.12079e-06 8.17114e-07 0.42165 -0.254792 6.41034e-08 0
235.984 1.70805e-06 1.04568e-06 6.6237e-07 0.387794 -0.25818 7.77761e-08 0
248.097 1.51517e-06 9.77673e-07 5.37494e-07 0.354742 -0.261104 9.22274e-08 0
260.832 1.35756e-06 9.2121e-07 4.36354e-07 0.321424 -0.263235 1.07622e-07 0
274.221 1.22389e-06 8.6956e-07 3.54326e-07 0.289509 -0.264934 1.22996e-07 0
288.297 1.10899e-06 8.21167e-07 2.87822e-07 0.259535 -0.266306 1.37633e-07 0
303.095 1.01046e-06 7.76382e-07 2.34076e-07 0.231654 -0.267304 1.51071e-07 0
318.653 9.26612e-07 7.36225e-07 1.90387e-07 0.205466 -0.267763 1.63112e-07 0
335.009 8.5277e-07 6.97889e-07 1.54881e-07 0.181621 -0.268001 1.72825e-07 0
352.206 7.87383e-07 6.61304e-07 1.26078e-07 0.160123 -0.268047 1.79866e-07 0
370.284 7.30343e-07 6.27651e-07 1.02692e-07 0.140608 -0.267647 1.84397e-07 0
389.291 6.79103e-07 5.95451e-07 8.3652e-08 0.12318 -0.267082 1.85996e-07 0
409.273 6.32656e-07 5.64506e-07 6.81491e-08 0.107719 -0.266411 1.84686e-07 0
430.282 5.91091e-07 5.35531e-07 5.556e-08 0.0939958 -0.265395 1.80917e-07 0
452.368 5.53129e-07 5.07822e-07 4.5307e-08 0.0819104 -0.264262 1.74777e-07 0
475.588 5.18144e-07 4.81196e-07 3.69473e-08 0.071307 -0.263099 1.66582e-07 0
500 4.85811e-07 4.55677e-07 3.01342e-08 0.0620285 -0.261915 1.56767e-07 0
525.665 4.5637e-07 4.31777e-07 2.45924e-08 0.053887 -0.260268 1.45945e-07 0
552.648 4.28974e-07 4.08905e-07 2.0069e-08 0.0467836 -0.258649 1.34337e-07 0
581.015 4.03448e-07 3.87071e-07 1.6377e-08 0.0405926 -0.257073 1.22344e-07 0
610.838 3.79663e-07 3.66294e-07 1.33699e-08 0.0352152 -0.255549 1.10323e-07 0
642.193 3.57485e-07 3.46565e-07 1.09201e-08 0.030547 -0.254087 9.85671e-08 0
675.157 3.36764e-07 3.27845e-07 8.91834e-09 0.0264825 -0.252686 8.73006e-08 0
709.813 3.17395e-07 3.10113e-07 7.28224e-09 0.0229438 -0.251202 7.66969e-08 0
746.247 2.99342e-07 2.93393e-07 5.94884e-09 0.019873 -0.24941 6.68855e-08 0
784.553 2.82506e-07 2.77646e-07 4.85993e-09 0.0172029 -0.247711 5.79304e-08 0
824.824 2.66797e-07 2.62827e-07 3.96988e-09 0.0148798 -0.246102 4.98559e-08 0
867.162 2.52141e-07 2.48898e-07 3.24292e-09 0.0128615 -0.244582 4.26553e-08 0
911.674 2.38484e-07 2.35833e-07 2.65096e-09 0.0111159 -0.24315 3.62993e-08 0
958.471 2.25724e-07 2.23557e-07 2.16671e-09 0.00959894 -0.241799 3.07341e-08 0
1007.67 2.13782e-07 2.12011e-07 1.77056e-09 0.00828209 -0.240472 2.58984e-08 0
1059.39 2.02587e-07 2.0114e-07 1.44701e-09 0.00714268 -0.238926 2.1726e-08 0
1113.77 1.9216e-07 1.90977e-07 1.18297e-09 0.00615615 -0.237462 1.81571e-08 0
1170.94 1.82426e-07 1.81459e-07 9.66901e-10 0.00530024 -0.236074 1.51204e-08 0
1231.05 1.73352e-07 1.72562e-07 7.90116e-10 0.00455787 -0.234649 1.25518e-08 0
1294.24 1.64805e-07 1.64159e-07 6.45998e-10 0.00391976 -0.233159 1.03841e-08 0
1360.67 1.56809e-07 1.56281e-07 5.28133e-10 0.00336799 -0.23173 8.5667e-09 0
1430.51 1.49333e-07 1.48901e-07 4.31693e-10 0.00289081 -0.230362 7.04969e-09 0
1503.94 1.42331e-07 1.41978e-07 3.52853e-10 0.00247911 -0.229033 5.78774e-09 0
1581.14 1.35758e-07 1.35469e-07 2.88529e-10 0.00212532 -0.227501 4.74111e-09 0
1662.3 1.29604e-07 1.29368e-07 2.35876e-10 0.00181998 -0.226014 3.8764e-09 0
1747.63 1.2383e-07 1.23638e-07 1.92788e-10 0.00155687 -0.22457 3.16373e-09 0
1837.33 1.18409e-07 1.18251e-07 1.57621e-10 0.00133116 -0.223169 2.57784e-09 0
1931.64 1.13307e-07 1.13178e-07 1.28903e-10 0.00113765 -0.221806 2.09716e-09 0
2030.79 1.08497e-07 1.08391e-07 1.05366e-10 0.000971146 -0.220179 1.70359e-09 0
2135.03 1.04009e-07 1.03923e-07 8.60572e-11 0.0008274 -0.217881 1.38265e-09 0
2244.63 9.98286e-08 9.97583e-08 7.03311e-11 0.000704519 -0.21558 1.12142e-09 0
2359.84 9.59125e-08 9.5855e-08 5.74717e-11 0.00059921 -0.21327 9.08837e-10 0
2480.97 9.223e-08 9.21831e-08 4.69516e-11 0.000509071 -0.210944 7.35961e-10 0
2608.32 8.87571e-08 8.87188e-08 3.83561e-11 0.000432147 -0.208601 5.95492e-10 0
2742.21 8.54748e-08 8.54434e-08 3.13513e-11 0.00036679 -0.206239 4.8146e-10 0
2882.96 8.23563e-08 8.23307e-08 2.56193e-11 0.000311079 -0.203855 3.88924e-10 0
3030.95 7.93853e-08 7.93644e-08 2.09301e-11 0.000263652 -0.201446 3.13896e-10 0
3186.53 7.65497e-08 7.65326e-08 1.71044e-11 0.000223441 -0.199015 2.53124e-10 0
3350.09 7.38354e-08 7.38214e-08 1.39809e-11 0.000189352 -0.196559 2.03936e-10 0
3522.05 7.12293e-08 7.12179e-08 1.14251e-11 0.000160398 -0.19408 1.64156e-10 0
3702.84 6.87219e-08 6.87126e-08 9.33411e-12 0.000135824 -0.191575 1.32012e-10 0
3892.91 6.63085e-08 6.63008e-08 7.63069e-12 0.000115079 -0.189048 1.06068e-10 0
4092.73 6.39786e-08 6.39723e-08 6.23742e-12 9.74923e-05 -0.186499 8.51441e-11 0
4302.81 6.17254e-08 6.17203e-08 5.09727e-12 8.25799e-05 -0.183927 6.8283e-11 0
4523.68 5.95443e-08 5.95401e-08 4.16545e-12 6.99555e-05 -0.181333 5.47095e-11 0
4755.88 5.74321e-08 5.74287e-08 3.40581e-12 5.93015e-05 -0.17872 4.37945e-11 0
5000 5.53819e-08 5.53791e-08 2.78401e-12 5.02693e-05 -0.176087 3.50235e-11 0
