# 1.69707e-05 2 59 : grain size, compostion index, size index
# This grain was stochastically heated: No
# Heating and cooling timescale: 0.112132 537876
# Ratio of heating to cooling to determine stochastic cutoff: 100
# Equilibrium emission is recorded even for those grains in the stochastic regime.
# Emission spectrum was computed for: 
# Type: IRSF
# Scale: 1
# Temperature: -1
# Wavelength  CExt  CAbs  CSca  Albedo G EqEmission StEmission
0.05 1.93179e-09 6.89949e-10 1.24184e-09 0.642844 0.854625 0 0
0.0525665 1.94862e-09 6.90963e-10 1.25766e-09 0.64541 0.842627 0 0
0.0552647 1.9664e-09 6.95549e-10 1.27085e-09 0.646284 0.832616 0 0
0.0581015 1.98245e-09 7.0397e-10 1.27848e-09 0.644898 0.826301 0 0
0.0610839 1.99856e-09 7.04536e-10 1.29402e-09 0.647478 0.817863 0 0
0.0642193 2.02352e-09 6.93654e-10 1.32986e-09 0.657204 0.800996 0 0
0.0675157 2.06017e-09 6.9141e-10 1.36876e-09 0.664392 0.78298 0 0
0.0709813 2.09965e-09 7.16525e-10 1.38313e-09 0.658741 0.776684 0 0
0.0746248 2.13337e-09 7.52154e-10 1.38122e-09 0.647434 0.777887 0 0
0.0784553 2.15864e-09 7.8688e-10 1.37176e-09 0.635475 0.781971 0 0
0.0824824 2.17478e-09 8.18111e-10 1.35667e-09 0.623819 0.786217 0 0
0.0867162 2.19016e-09 8.34632e-10 1.35553e-09 0.618918 0.78396 0 0
0.0911674 2.2103e-09 8.46256e-10 1.36404e-09 0.61713 0.778328 0 0
0.095847 2.2251e-09 8.61479e-10 1.36362e-09 0.612836 0.775302 0 0
0.100767 2.21992e-09 8.88787e-10 1.33113e-09 0.599631 0.782756 0 0
0.105939 2.2122e-09 9.13586e-10 1.29861e-09 0.587023 0.793386 0 0
0.111377 2.19023e-09 9.54726e-10 1.23551e-09 0.564098 0.815019 0 0
0.117094 2.19182e-09 1.0111e-09 1.18073e-09 0.538696 0.842586 0 0
0.123105 2.20057e-09 1.05454e-09 1.14603e-09 0.520787 0.861778 0 0
0.129424 2.2198e-09 1.09715e-09 1.12265e-09 0.505744 0.880032 0 0
0.136067 2.21377e-09 1.13007e-09 1.0837e-09 0.489527 0.888846 0 0
0.143051 2.22513e-09 1.1363e-09 1.08882e-09 0.489331 0.897191 0 0
0.150394 2.14704e-09 1.11924e-09 1.0278e-09 0.478704 0.903571 0 0
0.158114 2.06846e-09 1.0998e-09 9.68663e-10 0.4683 0.90476 0 0
0.16623 2.04665e-09 1.07679e-09 9.69855e-10 0.473874 0.890689 0 0
0.174762 2.0995e-09 1.05471e-09 1.04479e-09 0.497639 0.862282 0 0
0.183733 2.17403e-09 1.03337e-09 1.14066e-09 0.524677 0.82601 0 0
0.193164 2.27587e-09 1.02244e-09 1.25342e-09 0.550745 0.791709 0 0
0.203079 2.39777e-09 1.0229e-09 1.37488e-09 0.573398 0.767506 0 0
0.213503 2.51612e-09 1.03205e-09 1.48407e-09 0.589826 0.750618 0 0
0.224463 2.60409e-09 1.04049e-09 1.5636e-09 0.60044 0.736734 0 0
0.235984 2.62748e-09 1.02588e-09 1.6016e-09 0.609556 0.722279 0 0
0.248097 2.6047e-09 1.02016e-09 1.58454e-09 0.608338 0.70995 0 0
0.260832 2.56306e-09 1.0241e-09 1.53896e-09 0.600438 0.699618 0 0
0.274221 2.53627e-09 1.04026e-09 1.49601e-09 0.589846 0.693224 0 0
0.288297 2.52922e-09 1.07854e-09 1.45068e-09 0.573569 0.693269 0 0
0.303095 2.53055e-09 1.11059e-09 1.41996e-09 0.561127 0.690717 0 0
0.318653 2.53292e-09 1.13741e-09 1.39552e-09 0.550951 0.686013 0 0
0.335009 2.54211e-09 1.1631e-09 1.379e-09 0.542464 0.680731 0 0
0.352205 2.55977e-09 1.18968e-09 1.37009e-09 0.535238 0.67525 0 0
0.370284 2.58281e-09 1.21778e-09 1.36503e-09 0.528505 0.669253 0 0
0.389291 2.60384e-09 1.24398e-09 1.35985e-09 0.52225 0.660902 0 0
0.409273 2.61806e-09 1.26595e-09 1.35212e-09 0.516458 0.648814 0 0
0.430281 2.6256e-09 1.28182e-09 1.34378e-09 0.5118 0.631871 0 0
0.452368 2.64068e-09 1.2933e-09 1.34738e-09 0.51024 0.610209 0 0
0.475588 2.68232e-09 1.30501e-09 1.37731e-09 0.513476 0.586176 0 0
0.5 2.76067e-09 1.3166e-09 1.44407e-09 0.523086 0.567176 0 0
0.525665 2.86362e-09 1.33291e-09 1.53071e-09 0.534537 0.557978 0 0
0.552647 2.96899e-09 1.35599e-09 1.613e-09 0.543283 0.552976 0 0
0.581015 3.04808e-09 1.3798e-09 1.66829e-09 0.547324 0.542328 0 0
0.610839 3.06383e-09 1.35135e-09 1.71248e-09 0.558933 0.512356 0 0
0.642193 3.0117e-09 1.2554e-09 1.7563e-09 0.583158 0.46781 0 0
0.675157 2.98795e-09 1.1721e-09 1.81584e-09 0.607722 0.42465 0 0
0.709813 3.02555e-09 1.13503e-09 1.89053e-09 0.624853 0.387727 0 0
0.746248 3.1078e-09 1.13568e-09 1.97212e-09 0.634571 0.358648 0 0
0.784553 3.20232e-09 1.15692e-09 2.04539e-09 0.638723 0.339497 0 0
0.824824 3.215e-09 1.17421e-09 2.04079e-09 0.634772 0.328359 0 0
0.867162 3.06829e-09 1.15239e-09 1.91591e-09 0.62442 0.314881 0 0
0.911674 2.85097e-09 1.10613e-09 1.74484e-09 0.612016 0.289478 0 0
0.95847 2.67223e-09 1.07265e-09 1.59958e-09 0.598594 0.254394 0 0
1.00767 2.53785e-09 1.05359e-09 1.48426e-09 0.584848 0.217516 2.19579e-297 0
1.05939 2.42393e-09 1.04389e-09 1.38004e-09 0.56934 0.18428 1.02303e-282 0
1.11377 2.30576e-09 1.03204e-09 1.27372e-09 0.552407 0.155544 9.02739e-269 0
1.17094 2.17439e-09 1.01471e-09 1.15968e-09 0.533335 0.131614 1.63082e-255 0
1.23105 2.02531e-09 9.87455e-10 1.03786e-09 0.512444 0.111704 6.48471e-243 0
1.29424 1.86196e-09 9.49738e-10 9.12221e-10 0.489925 0.0950337 6.09851e-231 0
1.36067 1.69095e-09 9.03576e-10 7.87371e-10 0.465639 0.0813575 1.4558e-219 0
1.43051 1.51955e-09 8.5117e-10 6.68384e-10 0.439855 0.0703581 9.43633e-209 0
1.50394 1.35445e-09 7.94884e-10 5.59568e-10 0.413132 0.0617572 1.77136e-198 0
1.58114 1.1999e-09 7.36656e-10 4.63247e-10 0.38607 0.0549872 1.02356e-188 0
1.6623 1.05845e-09 6.78176e-10 3.80274e-10 0.359274 0.0495635 1.92982e-179 0
1.74762 9.31492e-10 6.21185e-10 3.10307e-10 0.333129 0.0453577 1.25547e-170 0
1.83733 8.18705e-10 5.66611e-10 2.52094e-10 0.307918 0.0422079 2.97022e-162 0
1.93164 7.19053e-10 5.14911e-10 2.04142e-10 0.283904 0.03977 2.68574e-154 0
2.03079 6.31424e-10 4.66445e-10 1.64979e-10 0.261281 0.0378004 9.73121e-147 0
2.13503 5.54902e-10 4.21556e-10 1.33346e-10 0.240306 0.0360829 1.4785e-139 0
2.24463 4.88001e-10 3.80286e-10 1.07715e-10 0.220727 0.0345645 9.82985e-133 0
2.35984 4.29503e-10 3.4251e-10 8.69927e-11 0.202543 0.0332243 2.97836e-126 0
2.48097 3.78423e-10 3.08138e-10 7.02848e-11 0.185731 0.0318948 4.27514e-120 0
2.60832 3.34046e-10 2.77158e-10 5.68877e-11 0.170299 0.0303825 3.01763e-114 0
2.74221 2.95295e-10 2.49224e-10 4.60704e-11 0.156015 0.0288519 1.08432e-108 0
2.88297 2.6137e-10 2.24056e-10 3.73143e-11 0.142764 0.0274668 2.04998e-103 0
3.03095 2.31743e-10 2.01484e-10 3.02593e-11 0.130573 0.0260778 2.10506e-98 0
3.18653 2.05824e-10 1.81258e-10 2.45662e-11 0.119355 0.0246349 1.20978e-93 0
3.35009 1.83077e-10 1.63122e-10 1.99554e-11 0.109 0.0231965 4.00311e-89 0
3.52205 1.63075e-10 1.46859e-10 1.62163e-11 0.0994405 0.0218145 7.83506e-85 0
3.70284 1.45513e-10 1.32318e-10 1.31954e-11 0.090682 0.020468 9.30985e-81 0
3.89291 1.30022e-10 1.19281e-10 1.07415e-11 0.0826125 0.0191556 6.88038e-77 0
4.09273 1.16378e-10 1.07629e-10 8.74899e-12 0.0751773 0.0177728 3.23815e-73 0
4.30281 1.04307e-10 9.71777e-11 7.12959e-12 0.0683518 0.0164698 9.91871e-70 0
4.52368 9.3627e-11 8.78115e-11 5.81554e-12 0.0621139 0.0152361 2.01969e-66 0
4.75588 8.41391e-11 7.93946e-11 4.74446e-12 0.0563883 0.0140616 2.78844e-63 0
5 7.57277e-11 7.18562e-11 3.87149e-12 0.0511239 0.012862 2.66146e-60 0
5.25665 6.82328e-11 6.50713e-11 3.16153e-12 0.0463344 0.0117359 1.78746e-57 0
5.52648 6.15337e-11 5.89509e-11 2.58274e-12 0.0419729 0.0107127 8.59127e-55 0
5.81015 5.55428e-11 5.34334e-11 2.10937e-12 0.0379774 0.0097672 3.00461e-52 0
6.10839 5.0191e-11 4.84681e-11 1.72291e-12 0.034327 0.00885381 7.76656e-50 0
6.42193 4.53666e-11 4.39588e-11 1.40775e-12 0.0310305 0.00813645 1.50482e-47 0
6.75157 4.10909e-11 3.99402e-11 1.15073e-12 0.0280046 0.007286 2.2204e-45 0
7.09813 3.72383e-11 3.62979e-11 9.40364e-13 0.0252526 0.00654783 2.52511e-43 0
7.46248 3.37882e-11 3.30198e-11 7.68415e-13 0.0227421 0.00585698 2.24294e-41 0
7.84553 3.07113e-11 3.0083e-11 6.28288e-13 0.0204579 0.00516704 1.57608e-39 0
8.24824 2.79452e-11 2.74316e-11 5.1365e-13 0.0183806 0.00449714 8.85631e-38 0
8.67162 2.54528e-11 2.50331e-11 4.19725e-13 0.0164903 0.00391984 4.02338e-36 0
9.11674 2.32242e-11 2.28811e-11 3.43033e-13 0.0147705 0.00340535 1.49433e-34 0
9.5847 2.12392e-11 2.09589e-11 2.80283e-13 0.0131965 0.00294348 4.58554e-33 0
10.0767 1.94758e-11 1.92469e-11 2.28941e-13 0.0117552 0.00250746 1.17395e-31 0
10.5939 1.79165e-11 1.77296e-11 1.86889e-13 0.0104311 0.00207796 2.53163e-30 0
11.1377 1.65757e-11 1.64232e-11 1.52463e-13 0.00919797 0.00167426 4.64947e-29 0
11.7094 1.52747e-11 1.51492e-11 1.25547e-13 0.00821929 0.00131802 7.25976e-28 0
12.3105 1.4253e-11 1.4151e-11 1.01992e-13 0.00715582 0.000927453 9.87715e-27 0
12.9424 1.33566e-11 1.32733e-11 8.32144e-14 0.00623022 0.000531188 1.16955e-25 0
13.6067 1.26038e-11 1.25359e-11 6.7901e-14 0.00538735 0.000203335 1.21709e-24 0
14.3051 1.20035e-11 1.19482e-11 5.5365e-14 0.00461239 -7.81784e-05 1.12306e-23 0
15.0394 1.1553e-11 1.15079e-11 4.51197e-14 0.00390546 -0.000330661 9.25966e-23 0
15.8114 1.12692e-11 1.12324e-11 3.67714e-14 0.003263 -0.00056766 6.88223e-22 0
16.623 1.11528e-11 1.11228e-11 2.99638e-14 0.00268667 -0.000812709 4.64279e-21 0
17.4762 1.12198e-11 1.11954e-11 2.4405e-14 0.00217517 -0.00105242 2.86361e-20 0
18.3733 1.15066e-11 1.14867e-11 1.98674e-14 0.00172662 -0.00128121 1.62795e-19 0
19.3164 1.20244e-11 1.20082e-11 1.6195e-14 0.00134685 -0.00151896 8.56793e-19 0
20.3079 1.28162e-11 1.2803e-11 1.32103e-14 0.00103075 -0.00180105 4.19846e-18 0
21.3503 1.39535e-11 1.39427e-11 1.07875e-14 0.000773099 -0.00200671 1.92688e-17 0
22.4463 1.54997e-11 1.54908e-11 8.83764e-15 0.000570183 -0.00216813 8.30817e-17 0
23.5984 1.75132e-11 1.75059e-11 7.28364e-15 0.000415894 -0.00231486 3.36879e-16 0
24.8097 2.00156e-11 2.00095e-11 6.05481e-15 0.000302505 -0.0025241 1.28231e-15 0
26.0832 2.29976e-11 2.29925e-11 5.09849e-15 0.000221696 -0.00266693 4.57074e-15 0
27.4221 2.62189e-11 2.62145e-11 4.35262e-15 0.000166011 -0.00278077 1.51106e-14 0
28.8297 2.91877e-11 2.91839e-11 3.77858e-15 0.000129458 -0.00282499 4.57442e-14 0
30.3095 3.15525e-11 3.15491e-11 3.32086e-15 0.000105249 -0.00284416 1.26509e-13 0
31.8653 3.22156e-11 3.22127e-11 2.91744e-15 9.05599e-05 -0.00280238 3.11799e-13 0
33.5009 3.15597e-11 3.15571e-11 2.55874e-15 8.10763e-05 -0.00275661 6.97692e-13 0
35.2206 2.89947e-11 2.89925e-11 2.19118e-15 7.55716e-05 -0.00261601 1.38916e-12 0
37.0284 2.57178e-11 2.57159e-11 1.85336e-15 7.20653e-05 -0.0024759 2.54016e-12 0
38.9291 2.21255e-11 2.2124e-11 1.53956e-15 6.95828e-05 -0.00228491 4.29604e-12 0
40.9273 1.87177e-11 1.87165e-11 1.26655e-15 6.76656e-05 -0.00208021 6.82865e-12 0
43.0282 1.5742e-11 1.57409e-11 1.0332e-15 6.56335e-05 -0.001809 1.03364e-11 0
45.2368 1.32023e-11 1.32015e-11 8.40014e-16 6.36263e-05 -0.00151462 1.49767e-11 0
47.5588 1.11445e-11 1.11438e-11 6.8125e-16 6.11289e-05 -0.0010036 2.10082e-11 0
50 9.4125e-12 9.41195e-12 5.52591e-16 5.87082e-05 -0.000510486 2.84129e-11 0
52.5665 7.99829e-12 7.99785e-12 4.47962e-16 5.60072e-05 4.86775e-05 3.73252e-11 0
55.2648 6.82772e-12 6.82736e-12 3.63217e-16 5.31974e-05 0.000562994 4.76352e-11 0
58.1015 5.85648e-12 5.85619e-12 2.94912e-16 5.03565e-05 0.00101957 5.91706e-11 0
61.0839 5.04286e-12 5.04263e-12 2.39548e-16 4.75023e-05 0.00139623 7.1582e-11 0
64.2193 4.35625e-12 4.35606e-12 1.94658e-16 4.46848e-05 0.0016959 8.44081e-11 0
67.5157 3.77713e-12 3.77697e-12 1.58304e-16 4.19113e-05 0.00190291 9.72013e-11 0
70.9813 3.28551e-12 3.28539e-12 1.28867e-16 3.92227e-05 0.00203307 1.09404e-10 0
74.6248 2.86564e-12 2.86553e-12 1.04933e-16 3.66177e-05 0.0020933 1.2045e-10 0
78.4553 2.50567e-12 2.50559e-12 8.54632e-17 3.41079e-05 0.00209206 1.29845e-10 0
82.4824 2.19642e-12 2.19635e-12 6.96689e-17 3.17192e-05 0.0020279 1.37214e-10 0
86.7162 1.93175e-12 1.93169e-12 5.68161e-17 2.94118e-05 0.00188938 1.42416e-10 0
91.1674 1.70471e-12 1.70466e-12 4.63389e-17 2.71828e-05 0.00171106 1.45341e-10 0
95.847 1.50911e-12 1.50907e-12 3.77979e-17 2.50465e-05 0.00152488 1.45958e-10 0
100.767 1.34025e-12 1.34022e-12 3.08593e-17 2.3025e-05 0.0013367 1.44384e-10 0
105.939 1.19761e-12 1.19758e-12 2.51919e-17 2.10353e-05 0.00111077 1.4123e-10 0
111.377 1.07558e-12 1.07556e-12 2.05628e-17 1.91178e-05 0.00088969 1.36576e-10 0
117.094 9.76227e-13 9.7621e-13 1.67915e-17 1.72004e-05 0.000672779 1.31402e-10 0
123.105 8.9814e-13 8.98127e-13 1.3723e-17 1.52794e-05 0.000471085 1.26261e-10 0
129.424 8.35889e-13 8.35878e-13 1.12252e-17 1.34291e-05 0.000289829 1.21013e-10 0
136.067 7.77131e-13 7.77122e-13 9.18939e-18 1.18248e-05 0.000137414 1.14327e-10 0
143.051 7.05276e-13 7.05268e-13 7.53366e-18 1.06819e-05 8.75876e-06 1.04112e-10 0
150.394 6.27343e-13 6.27336e-13 6.1745e-18 9.84232e-06 -0.000105886 9.18212e-11 0
158.114 5.50447e-13 5.50442e-13 5.0531e-18 9.17999e-06 -0.000186946 7.89854e-11 0
166.23 4.82288e-13 4.82284e-13 4.13271e-18 8.56897e-06 -0.000265582 6.71269e-11 0
174.763 4.2316e-13 4.23156e-13 3.38137e-18 7.99075e-06 -0.000341733 5.6556e-11 0
183.733 3.75661e-13 3.75658e-13 2.76528e-18 7.3611e-06 -0.000389404 4.7756e-11 0
193.164 3.34151e-13 3.34149e-13 2.2609e-18 6.7661e-06 -0.000434416 4.00444e-11 0
203.079 2.98396e-13 2.98394e-13 1.84891e-18 6.19617e-06 -0.000471299 3.34265e-11 0
213.503 2.68318e-13 2.68317e-13 1.5126e-18 5.63732e-06 -0.000490785 2.7874e-11 0
224.463 2.41186e-13 2.41185e-13 1.23721e-18 5.12969e-06 -0.000509655 2.30625e-11 0
235.984 2.16698e-13 2.16697e-13 1.01175e-18 4.66892e-06 -0.000527907 1.89392e-11 0
248.097 1.9464e-13 1.94639e-13 8.27817e-19 4.25307e-06 -0.000545521 1.54462e-11 0
260.832 1.75854e-13 1.75854e-13 6.77368e-19 3.85187e-06 -0.00054746 1.25931e-11 0
274.221 1.5892e-13 1.5892e-13 5.54134e-19 3.48687e-06 -0.0005466 1.02098e-11 0
288.297 1.43484e-13 1.43484e-13 4.5326e-19 3.15896e-06 -0.000545744 8.22488e-12 0
303.095 1.29602e-13 1.29602e-13 3.70999e-19 2.8626e-06 -0.00054255 6.59473e-12 0
318.653 1.17442e-13 1.17442e-13 3.03598e-19 2.58508e-06 -0.000530623 5.27933e-12 0
335.009 1.06308e-13 1.06308e-13 2.4838e-19 2.33641e-06 -0.000519268 4.20272e-12 0
352.206 9.61416e-14 9.61414e-14 2.03247e-19 2.11404e-06 -0.000508468 3.32847e-12 0
370.284 8.71967e-14 8.71966e-14 1.66367e-19 1.90795e-06 -0.000491005 2.63318e-12 0
389.291 7.90356e-14 7.90355e-14 1.36144e-19 1.72257e-06 -0.000473584 2.07413e-12 0
409.273 7.15617e-14 7.15616e-14 1.11385e-19 1.55649e-06 -0.000457092 1.62633e-12 0
430.282 6.49486e-14 6.49485e-14 9.11766e-20 1.40383e-06 -0.000436148 1.27407e-12 0
452.368 5.89316e-14 5.89315e-14 7.4631e-20 1.2664e-06 -0.000415187 9.94795e-13 0
475.588 5.34133e-14 5.34132e-14 6.10724e-20 1.14339e-06 -0.000395494 7.73654e-13 0
500 4.83641e-14 4.8364e-14 4.99704e-20 1.03321e-06 -0.000376911 5.99459e-13 0
525.665 4.39884e-14 4.39884e-14 4.09123e-20 9.3007e-07 -0.000352985 4.65387e-13 0
552.648 3.99655e-14 3.99655e-14 3.34869e-20 8.37895e-07 -0.000330646 3.60051e-13 0
581.015 3.62702e-14 3.62702e-14 2.74021e-20 7.555e-07 -0.000309831 2.77629e-13 0
610.838 3.28845e-14 3.28845e-14 2.24275e-20 6.82009e-07 -0.000290448 2.13418e-13 0
642.193 2.9787e-14 2.9787e-14 1.83607e-20 6.16398e-07 -0.000272387 1.63582e-13 0
675.157 2.6953e-14 2.6953e-14 1.50272e-20 5.57536e-07 -0.000255528 1.2502e-13 0
709.813 2.44058e-14 2.44058e-14 1.2296e-20 5.03814e-07 -0.000238733 9.54494e-14 0
746.247 2.21816e-14 2.21816e-14 1.00665e-20 4.53823e-07 -0.000220532 7.3025e-14 0
784.553 2.01395e-14 2.01395e-14 8.24065e-21 4.09179e-07 -0.000203712 5.57256e-14 0
824.824 1.82658e-14 1.82658e-14 6.74416e-21 3.69224e-07 -0.00018815 4.24175e-14 0
867.162 1.65495e-14 1.65495e-14 5.51881e-21 3.33473e-07 -0.000173752 3.22107e-14 0
911.674 1.49823e-14 1.49823e-14 4.51867e-21 3.01601e-07 -0.000160442 2.44087e-14 0
958.471 1.35494e-14 1.35494e-14 3.69875e-21 2.72983e-07 -0.000148107 1.84549e-14 0
1007.67 1.22498e-14 1.22498e-14 3.02679e-21 2.47089e-07 -0.000136535 1.39333e-14 0
1059.39 1.11087e-14 1.11087e-14 2.47754e-21 2.23028e-07 -0.000125162 1.05403e-14 0
1113.77 1.00647e-14 1.00647e-14 2.0284e-21 2.01536e-07 -0.000114688 7.95824e-15 0
1170.94 9.1094e-15 9.1094e-15 1.66018e-21 1.82249e-07 -0.000105025 5.99675e-15 0
1231.05 8.24306e-15 8.24306e-15 1.35851e-21 1.64806e-07 -9.60625e-05 4.51373e-15 0
1294.24 7.47351e-15 7.47351e-15 1.11226e-21 1.48827e-07 -8.77652e-05 3.40113e-15 0
1360.67 6.77143e-15 6.77143e-15 9.10525e-22 1.34466e-07 -8.01275e-05 2.55907e-15 0
1430.51 6.12913e-15 6.12913e-15 7.45186e-22 1.21581e-07 -7.3096e-05 1.92209e-15 0
1503.94 5.54388e-15 5.54388e-15 6.0982e-22 1.09999e-07 -6.66243e-05 1.44163e-15 0
1581.14 5.02969e-15 5.02969e-15 4.99324e-22 9.92753e-08 -6.07216e-05 1.0838e-15 0
1662.3 4.55878e-15 4.55878e-15 4.08732e-22 8.96582e-08 -5.53022e-05 8.13488e-16 0
1747.63 4.12778e-15 4.12778e-15 3.34482e-22 8.1032e-08 -5.03236e-05 6.09605e-16 0
1837.33 3.73435e-15 3.73435e-15 2.73791e-22 7.33168e-08 -4.5754e-05 4.56173e-16 0
1931.64 3.37552e-15 3.37552e-15 2.2416e-22 6.64075e-08 -4.15558e-05 3.40882e-16 0
2030.79 3.06458e-15 3.06458e-15 1.83473e-22 5.98689e-08 -3.77689e-05 2.55718e-16 0
2135.03 2.81487e-15 2.81487e-15 1.50132e-22 5.33355e-08 -3.44769e-05 1.93983e-16 0
2244.63 2.58429e-15 2.58429e-15 1.22923e-22 4.75656e-08 -3.14829e-05 1.47016e-16 0
2359.84 2.37098e-15 2.37098e-15 1.0063e-22 4.24424e-08 -2.87516e-05 1.11297e-16 0
2480.97 2.17363e-15 2.17363e-15 8.23578e-23 3.78895e-08 -2.62612e-05 8.4157e-17 0
2608.32 1.99123e-15 1.99123e-15 6.73995e-23 3.38482e-08 -2.39907e-05 6.35637e-17 0
2742.21 1.82292e-15 1.82292e-15 5.51863e-23 3.02735e-08 -2.19214e-05 4.79602e-17 0
2882.96 1.6674e-15 1.6674e-15 4.51739e-23 2.70924e-08 -2.00338e-05 3.6143e-17 0
3030.95 1.52376e-15 1.52376e-15 3.6968e-23 2.42611e-08 -1.8307e-05 2.72037e-17 0
3186.53 1.39137e-15 1.39137e-15 3.02608e-23 2.1749e-08 -1.67311e-05 2.04526e-17 0
3350.09 1.26939e-15 1.26939e-15 2.47751e-23 1.95173e-08 -1.52927e-05 1.53591e-17 0
3522.05 1.15697e-15 1.15697e-15 2.02785e-23 1.75272e-08 -1.39784e-05 1.15196e-17 0
3702.84 1.05344e-15 1.05344e-15 1.65934e-23 1.57516e-08 -1.2773e-05 8.62875e-18 0
3892.91 9.58395e-16 9.58395e-16 1.35861e-23 1.41759e-08 -1.16749e-05 6.45654e-18 0
4092.73 8.7104e-16 8.7104e-16 1.11222e-23 1.27689e-08 -1.06666e-05 4.8251e-18 0
4302.81 7.9081e-16 7.9081e-16 9.1027e-24 1.15106e-08 -9.74721e-06 3.60126e-18 0
4523.68 7.17241e-16 7.17241e-16 7.44945e-24 1.03862e-08 -8.90783e-06 2.68452e-18 0
4755.88 6.49953e-16 6.49953e-16 6.09956e-24 9.38461e-09 -8.12964e-06 1.99901e-18 0
5000 5.8834e-16 5.8834e-16 4.99289e-24 8.48641e-09 -7.41823e-06 1.48665e-18 0
