# 0.00351441 3 110 : grain size, compostion index, size index
# This grain was stochastically heated: No
# Heating and cooling timescale: 2.9161e-06 inf
# Ratio of heating to cooling to determine stochastic cutoff: 100
# Equilibrium emission is recorded even for those grains in the stochastic regime.
# Emission spectrum was computed for: 
# Type: IRSF
# Scale: 1
# Temperature: -1
# Wavelength  CExt  CAbs  CSca  Albedo G EqEmission StEmission
0.05 7.78717e-05 2.75153e-05 5.03564e-05 0.646659 0.854032 0 0
0.0525665 7.78832e-05 2.70688e-05 5.08144e-05 0.652444 0.84155 0 0
0.0552647 7.78956e-05 2.67312e-05 5.11644e-05 0.656833 0.831188 0 0
0.0581015 7.79063e-05 2.65779e-05 5.13284e-05 0.658848 0.824832 0 0
0.0610839 7.79162e-05 2.61997e-05 5.17165e-05 0.663746 0.816074 0 0
0.0642193 7.79292e-05 2.526e-05 5.26692e-05 0.67586 0.7978 0 0
0.0675157 7.79452e-05 2.43268e-05 5.36185e-05 0.687899 0.777841 0 0
0.0709813 7.7962e-05 2.42339e-05 5.37281e-05 0.689158 0.770732 0 0
0.0746248 7.798e-05 2.46048e-05 5.33752e-05 0.684473 0.772091 0 0
0.0784553 7.7998e-05 2.51217e-05 5.28763e-05 0.677919 0.777 0 0
0.0824824 7.80162e-05 2.57115e-05 5.23047e-05 0.670434 0.782886 0 0
0.0867162 7.80346e-05 2.58512e-05 5.21833e-05 0.668721 0.781769 0 0
0.0911674 7.80544e-05 2.57343e-05 5.23201e-05 0.670303 0.776628 0 0
0.095847 7.80745e-05 2.58467e-05 5.22278e-05 0.668948 0.774884 0 0
0.100767 7.80915e-05 2.6759e-05 5.13324e-05 0.657337 0.786347 0 0
0.105939 7.81054e-05 2.7676e-05 5.04294e-05 0.645659 0.800997 0 0
0.111377 7.81135e-05 2.93458e-05 4.87677e-05 0.624318 0.828998 0 0
0.117094 7.81194e-05 3.10667e-05 4.70526e-05 0.602317 0.861318 0 0
0.123105 7.81308e-05 3.21773e-05 4.59535e-05 0.588161 0.883941 0 0
0.129424 7.81448e-05 3.31199e-05 4.50249e-05 0.576173 0.903904 0 0
0.136067 7.81594e-05 3.38733e-05 4.42861e-05 0.566613 0.920096 0 0
0.143051 7.81719e-05 3.44581e-05 4.37138e-05 0.559201 0.932731 0 0
0.150394 7.81803e-05 3.47905e-05 4.33897e-05 0.554996 0.940877 0 0
0.158114 7.81887e-05 3.46737e-05 4.3515e-05 0.556538 0.941764 0 0
0.16623 7.82047e-05 3.38542e-05 4.43505e-05 0.567108 0.930973 0 0
0.174762 7.82334e-05 3.22344e-05 4.5999e-05 0.587971 0.904493 0 0
0.183733 7.82676e-05 3.01921e-05 4.80754e-05 0.614245 0.868724 0 0
0.193164 7.83048e-05 2.80699e-05 5.02349e-05 0.64153 0.831907 0 0
0.203079 7.8344e-05 2.6226e-05 5.21179e-05 0.665245 0.801478 0 0
0.213503 7.83862e-05 2.46436e-05 5.37426e-05 0.685613 0.776715 0 0
0.224463 7.84342e-05 2.35906e-05 5.48436e-05 0.699231 0.759585 0 0
0.235984 7.84874e-05 2.29962e-05 5.54912e-05 0.707008 0.748044 0 0
0.248097 7.85437e-05 2.31061e-05 5.54376e-05 0.705818 0.744287 0 0
0.260832 7.8594e-05 2.36704e-05 5.49236e-05 0.698827 0.74643 0 0
0.274221 7.86351e-05 2.43536e-05 5.42816e-05 0.690297 0.750642 0 0
0.288297 7.86601e-05 2.52536e-05 5.34065e-05 0.678953 0.760105 0 0
0.303095 7.86855e-05 2.58711e-05 5.28144e-05 0.671208 0.767315 0 0
0.318653 7.87116e-05 2.63745e-05 5.23371e-05 0.664922 0.773655 0 0
0.335009 7.87403e-05 2.67737e-05 5.19666e-05 0.659975 0.779101 0 0
0.352205 7.87727e-05 2.70486e-05 5.17241e-05 0.656625 0.78294 0 0
0.370284 7.88083e-05 2.72269e-05 5.15814e-05 0.654517 0.785309 0 0
0.389291 7.88466e-05 2.7321e-05 5.15256e-05 0.653492 0.786214 0 0
0.409273 7.88865e-05 2.73905e-05 5.1496e-05 0.652786 0.786754 0 0
0.430281 7.89273e-05 2.74488e-05 5.14785e-05 0.652227 0.787132 0 0
0.452368 7.89702e-05 2.7508e-05 5.14622e-05 0.651666 0.787696 0 0
0.475588 7.90148e-05 2.75609e-05 5.14539e-05 0.651194 0.788204 0 0
0.5 7.90618e-05 2.75957e-05 5.14661e-05 0.650961 0.788448 0 0
0.525665 7.91115e-05 2.76188e-05 5.14927e-05 0.650888 0.788529 0 0
0.552647 7.91631e-05 2.76356e-05 5.15274e-05 0.650902 0.788489 0 0
0.581015 7.92181e-05 2.76057e-05 5.16124e-05 0.651523 0.787646 0 0
0.610839 7.92753e-05 2.75739e-05 5.17014e-05 0.652175 0.786766 0 0
0.642193 7.93346e-05 2.75402e-05 5.17944e-05 0.65286 0.785844 0 0
0.675157 7.93967e-05 2.74886e-05 5.19081e-05 0.653781 0.784603 0 0
0.709813 7.94614e-05 2.74208e-05 5.20407e-05 0.654917 0.783065 0 0
0.746248 7.95287e-05 2.73453e-05 5.21834e-05 0.656158 0.781372 0 0
0.784553 7.95982e-05 2.72675e-05 5.23307e-05 0.657436 0.779638 0 0
0.824824 7.96701e-05 2.71878e-05 5.24823e-05 0.658745 0.777856 0 0
0.867162 7.97439e-05 2.71062e-05 5.26377e-05 0.660084 0.776027 0 0
0.911674 7.982e-05 2.70247e-05 5.27952e-05 0.661429 0.774193 0 0
0.95847 7.9898e-05 2.6948e-05 5.295e-05 0.66272 0.772408 0 0
1.00767 7.9978e-05 2.6871e-05 5.31071e-05 0.664021 0.770616 0 0
1.05939 8.006e-05 2.68021e-05 5.32579e-05 0.665225 0.768933 0 0
1.11377 8.0144e-05 2.67309e-05 5.34131e-05 0.666465 0.767211 0 0
1.17094 8.02305e-05 2.66668e-05 5.35637e-05 0.667623 0.765593 0 0
1.23105 8.03194e-05 2.66033e-05 5.37161e-05 0.668781 0.763982 0 0
1.29424 8.04111e-05 2.65316e-05 5.38795e-05 0.670051 0.762242 0 0
1.36067 8.05048e-05 2.64633e-05 5.40415e-05 0.671283 0.760548 0 0
1.43051 8.06005e-05 2.64008e-05 5.41997e-05 0.672449 0.758934 0 0
1.50394 8.06985e-05 2.6342e-05 5.43565e-05 0.673575 0.757368 0 0
1.58114 8.07997e-05 2.62801e-05 5.45195e-05 0.674749 0.755757 0 0
1.6623 8.09043e-05 2.62111e-05 5.46933e-05 0.676024 0.754046 0 0
1.74762 8.10107e-05 2.61407e-05 5.487e-05 0.677318 0.752314 0 0
1.83733 8.11189e-05 2.6074e-05 5.50449e-05 0.678571 0.750632 0 0
1.93164 8.12295e-05 2.60076e-05 5.52219e-05 0.679825 0.748959 0 0
2.03079 8.13432e-05 2.59411e-05 5.54022e-05 0.681091 0.747287 0 0
2.13503 8.14599e-05 2.58693e-05 5.55906e-05 0.682429 0.745542 0 0
2.24463 8.1577e-05 2.57984e-05 5.57786e-05 0.683754 0.74382 0 0
2.35984 8.16952e-05 2.57304e-05 5.59648e-05 0.685044 0.74213 0 0
2.48097 8.18149e-05 2.56632e-05 5.61518e-05 0.686326 0.740463 0 0
2.60832 8.19465e-05 2.5584e-05 5.63625e-05 0.687797 0.738673 0 0
2.74221 8.20703e-05 2.54999e-05 5.65704e-05 0.689292 0.736814 0 0
2.88297 8.22061e-05 2.54226e-05 5.67835e-05 0.690745 0.735085 0 0
3.03095 8.23243e-05 2.53411e-05 5.69832e-05 0.69218 0.733278 0 0
3.18653 8.2474e-05 2.52546e-05 5.72193e-05 0.693787 0.731502 0 0
3.35009 8.25909e-05 2.51646e-05 5.74262e-05 0.69531 0.729612 0 0
3.52205 8.2689e-05 2.50736e-05 5.76154e-05 0.696772 0.727679 0 0
3.70284 8.28621e-05 2.49807e-05 5.78814e-05 0.698527 0.725953 0 0
3.89291 8.30219e-05 2.48869e-05 5.8135e-05 0.700237 0.724175 6.11278e-298 0
4.09273 8.31882e-05 2.47835e-05 5.84047e-05 0.702079 0.722322 3.58169e-283 0
4.30281 8.33566e-05 2.46756e-05 5.86811e-05 0.703976 0.720462 3.93927e-269 0
4.52368 8.34869e-05 2.45644e-05 5.89225e-05 0.705769 0.718511 8.82566e-256 0
4.75588 8.35859e-05 2.44512e-05 5.91347e-05 0.707472 0.716455 4.35314e-243 0
5 8.36518e-05 2.43313e-05 5.93205e-05 0.709136 0.714215 5.08875e-231 0
5.25665 8.37278e-05 2.42014e-05 5.95264e-05 0.710951 0.711898 1.5124e-219 0
5.52648 8.39775e-05 2.40647e-05 5.99128e-05 0.713438 0.710121 1.22149e-208 0
5.81015 8.4326e-05 2.39351e-05 6.03909e-05 0.71616 0.708608 2.86003e-198 0
6.10839 8.43591e-05 2.38007e-05 6.05584e-05 0.717865 0.706233 2.06042e-188 0
6.42193 8.42375e-05 2.36811e-05 6.05564e-05 0.718877 0.703429 4.8439e-179 0
6.75157 8.47928e-05 2.35489e-05 6.12439e-05 0.722277 0.702633 3.91841e-170 0
7.09813 8.48033e-05 2.34349e-05 6.13684e-05 0.723656 0.700328 1.15111e-161 0
7.46248 8.46987e-05 2.3335e-05 6.13637e-05 0.724494 0.697951 1.28954e-153 0
7.84553 8.53951e-05 2.32504e-05 6.21447e-05 0.727731 0.697559 5.77715e-146 0
8.24824 8.49433e-05 2.31692e-05 6.17742e-05 0.72724 0.69455 1.08147e-138 0
8.67162 8.57655e-05 2.31161e-05 6.26494e-05 0.730473 0.694982 8.84037e-132 0
9.11674 8.52636e-05 2.30839e-05 6.21796e-05 0.729264 0.691982 3.28399e-125 0
9.5847 8.60397e-05 2.30677e-05 6.2972e-05 0.731895 0.69265 5.76235e-119 0
10.0767 8.56043e-05 2.30743e-05 6.25301e-05 0.730455 0.690162 4.95404e-113 0
10.5939 8.64327e-05 2.30762e-05 6.33565e-05 0.733015 0.691113 2.15907e-107 0
11.1377 8.59861e-05 2.31275e-05 6.28586e-05 0.731032 0.689364 4.94133e-102 0
11.7094 8.63099e-05 2.30298e-05 6.32801e-05 0.733173 0.687006 6.07635e-97 0
12.3105 8.6644e-05 2.30828e-05 6.35612e-05 0.73359 0.687324 4.19208e-92 0
12.9424 8.66936e-05 2.30616e-05 6.36319e-05 0.733987 0.686215 1.65296e-87 0
13.6067 8.71854e-05 2.30478e-05 6.41377e-05 0.735647 0.686116 3.84202e-83 0
14.3051 8.7027e-05 2.30297e-05 6.39974e-05 0.735373 0.684234 5.39803e-79 0
15.0394 8.74102e-05 2.30063e-05 6.44039e-05 0.736801 0.683559 4.69911e-75 0
15.8114 8.76057e-05 2.29981e-05 6.46076e-05 0.737482 0.682761 2.59638e-71 0
16.623 8.76592e-05 2.2984e-05 6.46751e-05 0.737802 0.681505 9.30272e-68 0
17.4762 8.7935e-05 2.29458e-05 6.49891e-05 0.739059 0.680395 2.20553e-64 0
18.3733 8.80647e-05 2.28919e-05 6.51728e-05 0.740056 0.679036 3.53207e-61 0
19.3164 8.81507e-05 2.28104e-05 6.53403e-05 0.741234 0.677578 3.892e-58 0
20.3079 8.82159e-05 2.26355e-05 6.55803e-05 0.743408 0.675478 2.99666e-55 0
21.3503 8.81688e-05 2.2403e-05 6.57658e-05 0.745908 0.672736 1.64263e-52 0
22.4463 8.80548e-05 2.20843e-05 6.59705e-05 0.749198 0.669101 6.50845e-50 0
23.5984 8.7935e-05 2.16771e-05 6.62579e-05 0.753487 0.66409 1.89266e-47 0
24.8097 8.79462e-05 2.11566e-05 6.67896e-05 0.759437 0.656967 4.09486e-45 0
26.0832 8.81814e-05 2.06217e-05 6.75597e-05 0.766144 0.647653 6.714e-43 0
27.4221 8.8619e-05 2.00868e-05 6.85323e-05 0.773336 0.636974 8.46199e-41 0
28.8297 8.92934e-05 1.96348e-05 6.96586e-05 0.780109 0.625776 8.33776e-39 0
30.3095 9.00491e-05 1.92103e-05 7.08388e-05 0.786668 0.61408 6.48511e-37 0
31.8653 9.09307e-05 1.88929e-05 7.20379e-05 0.792228 0.603696 4.04529e-35 0
33.5009 9.17932e-05 1.85633e-05 7.32298e-05 0.79777 0.593451 2.03356e-33 0
35.2206 9.2581e-05 1.8318e-05 7.4263e-05 0.80214 0.584283 8.36954e-32 0
37.0284 9.33958e-05 1.80366e-05 7.53592e-05 0.80688 0.575958 2.8299e-30 0
38.9291 9.39643e-05 1.77338e-05 7.62305e-05 0.811271 0.568016 7.94211e-29 0
40.9273 9.44407e-05 1.73947e-05 7.7046e-05 0.815814 0.559619 1.86502e-27 0
43.0282 9.48812e-05 1.70858e-05 7.77954e-05 0.819924 0.552069 3.71027e-26 0
45.2368 9.51253e-05 1.66865e-05 7.84388e-05 0.824584 0.544751 6.25938e-25 0
47.5588 9.52648e-05 1.64243e-05 7.88405e-05 0.827593 0.537358 9.1483e-24 0
50 9.54094e-05 1.61603e-05 7.92491e-05 0.830622 0.528748 1.15734e-22 0
52.5665 9.55334e-05 1.59014e-05 7.96319e-05 0.833551 0.520529 1.27691e-21 0
55.2648 9.56675e-05 1.566e-05 8.00075e-05 0.836308 0.513559 1.23783e-20 0
58.1015 9.57786e-05 1.55486e-05 8.023e-05 0.837661 0.506626 1.06885e-19 0
61.0839 9.57532e-05 1.54709e-05 8.02823e-05 0.83843 0.497274 8.22087e-19 0
64.2193 9.56866e-05 1.53163e-05 8.03702e-05 0.839932 0.485635 5.62434e-18 0
67.5157 9.58315e-05 1.51494e-05 8.06821e-05 0.841916 0.474677 3.4556e-17 0
70.9813 9.62045e-05 1.51006e-05 8.11039e-05 0.843037 0.466484 1.93333e-16 0
74.6248 9.65014e-05 1.51847e-05 8.13167e-05 0.842648 0.459457 9.90853e-16 0
78.4553 9.64515e-05 1.52945e-05 8.1157e-05 0.841428 0.44987 4.64086e-15 0
82.4824 9.61234e-05 1.53378e-05 8.07856e-05 0.840436 0.435104 1.98327e-14 0
86.7162 9.59075e-05 1.53192e-05 8.05883e-05 0.840271 0.416091 7.76914e-14 0
91.1674 9.61495e-05 1.53241e-05 8.08254e-05 0.840622 0.396455 2.81674e-13 0
95.847 9.68911e-05 1.54588e-05 8.14322e-05 0.840451 0.379865 9.55357e-13 0
100.767 9.78487e-05 1.57858e-05 8.20629e-05 0.838671 0.367796 3.05392e-12 0
105.939 9.86307e-05 1.62952e-05 8.23356e-05 0.834786 0.358774 9.22028e-12 0
111.377 9.88766e-05 1.68694e-05 8.20073e-05 0.82939 0.349263 2.61713e-11 0
117.094 9.84989e-05 1.73647e-05 8.11342e-05 0.823707 0.335113 6.94592e-11 0
123.105 9.76908e-05 1.76652e-05 8.00256e-05 0.819173 0.312693 1.71842e-10 0
129.424 9.67666e-05 1.75451e-05 7.92215e-05 0.818687 0.279676 3.92611e-10 0
136.067 9.61218e-05 1.70448e-05 7.9077e-05 0.822675 0.236617 8.32213e-10 0
143.051 9.58783e-05 1.59285e-05 7.99498e-05 0.833868 0.184994 1.61358e-09 0
150.394 9.6393e-05 1.47379e-05 8.16551e-05 0.847106 0.131303 2.9529e-09 0
158.114 9.7516e-05 1.37714e-05 8.37446e-05 0.858778 0.0801389 5.21453e-09 0
166.23 9.90304e-05 1.30221e-05 8.60083e-05 0.868504 0.0341723 8.92367e-09 0
174.763 0.000100462 1.24599e-05 8.80026e-05 0.875975 -0.0058514 1.48291e-08 0
183.733 0.000101372 1.22335e-05 8.91388e-05 0.879321 -0.0398953 2.43151e-08 0
193.164 0.000101229 1.20609e-05 8.91676e-05 0.880854 -0.0694397 3.857e-08 0
203.079 9.96524e-05 1.19193e-05 8.77331e-05 0.880391 -0.0951323 5.91938e-08 0
213.503 9.644e-05 1.18071e-05 8.46329e-05 0.87757 -0.117541 8.80404e-08 0
224.463 9.15118e-05 1.1582e-05 7.99298e-05 0.873437 -0.137614 1.25577e-07 0
235.984 8.50573e-05 1.12304e-05 7.38269e-05 0.867967 -0.155757 1.71738e-07 0
248.097 7.74509e-05 1.07568e-05 6.66941e-05 0.861115 -0.172245 2.25375e-07 0
260.832 6.92724e-05 1.02508e-05 5.90216e-05 0.852022 -0.187097 2.8625e-07 0
274.221 6.09526e-05 9.67914e-06 5.12735e-05 0.841202 -0.200717 3.5091e-07 0
288.297 5.29017e-05 9.06497e-06 4.38367e-05 0.828645 -0.213269 4.1616e-07 0
303.095 4.54544e-05 8.45041e-06 3.7004e-05 0.814091 -0.224785 4.79733e-07 0
318.653 3.87927e-05 7.8797e-06 3.0913e-05 0.796877 -0.235258 5.4083e-07 0
335.009 3.29485e-05 7.33599e-06 2.56126e-05 0.77735 -0.244911 5.95829e-07 0
352.206 2.79263e-05 6.83031e-06 2.1096e-05 0.755416 -0.253783 6.43222e-07 0
370.284 2.36916e-05 6.38647e-06 1.73051e-05 0.730433 -0.261775 6.83944e-07 0
389.291 2.01316e-05 5.98415e-06 1.41475e-05 0.702749 -0.269074 7.15492e-07 0
409.273 1.71571e-05 5.61922e-06 1.15379e-05 0.672484 -0.275739 7.37099e-07 0
430.282 1.47035e-05 5.30234e-06 9.40115e-06 0.639382 -0.281656 7.50504e-07 0
452.368 1.26705e-05 5.01764e-06 7.65281e-06 0.603989 -0.286979 7.54355e-07 0
475.588 1.0983e-05 4.75823e-06 6.22475e-06 0.566763 -0.291782 7.48547e-07 0
500 9.58248e-06 4.5212e-06 5.06128e-06 0.528181 -0.296095 7.33787e-07 0
525.665 8.43707e-06 4.31939e-06 4.11768e-06 0.488046 -0.299684 7.1359e-07 0
552.648 7.48186e-06 4.13257e-06 3.34929e-06 0.447655 -0.302848 6.86175e-07 0
581.015 6.68259e-06 3.95854e-06 2.72405e-06 0.407634 -0.30562 6.52696e-07 0
610.838 6.01222e-06 3.79568e-06 2.21654e-06 0.368673 -0.308025 6.1445e-07 0
642.193 5.44708e-06 3.64249e-06 1.80459e-06 0.331294 -0.310093 5.72727e-07 0
675.157 4.96676e-06 3.49754e-06 1.46922e-06 0.295811 -0.311854 5.28755e-07 0
709.813 4.55937e-06 3.36317e-06 1.1962e-06 0.26236 -0.313229 4.842e-07 0
746.247 4.21807e-06 3.24345e-06 9.74616e-07 0.231057 -0.314055 4.40704e-07 0
784.553 3.92247e-06 3.12823e-06 7.94233e-07 0.202483 -0.314629 3.97747e-07 0
824.824 3.66415e-06 3.01691e-06 6.47236e-07 0.17664 -0.314973 3.56091e-07 0
867.162 3.43657e-06 2.90905e-06 5.27523e-07 0.153503 -0.315106 3.16351e-07 0
911.674 3.23469e-06 2.80438e-06 4.30315e-07 0.133031 -0.315046 2.78995e-07 0
958.471 3.05346e-06 2.70245e-06 3.51003e-07 0.114953 -0.314813 2.44324e-07 0
1007.67 2.89014e-06 2.60385e-06 2.86285e-07 0.0990558 -0.314372 2.12598e-07 0
1059.39 2.74525e-06 2.51168e-06 2.33571e-07 0.0850819 -0.313489 1.84115e-07 0
1113.77 2.61171e-06 2.42107e-06 1.90641e-07 0.072995 -0.312466 1.5846e-07 0
1170.94 2.48746e-06 2.33188e-06 1.55581e-07 0.0625462 -0.311321 1.3557e-07 0
1231.05 2.37207e-06 2.24512e-06 1.26953e-07 0.0535202 -0.309976 1.1538e-07 0
1294.24 2.26458e-06 2.16092e-06 1.03658e-07 0.0457737 -0.308341 9.77214e-08 0
1360.67 2.16239e-06 2.07776e-06 8.46364e-08 0.0391402 -0.306603 8.23286e-08 0
1430.51 2.06475e-06 1.99565e-06 6.90966e-08 0.0334649 -0.304794 6.90093e-08 0
1503.94 1.97127e-06 1.91486e-06 5.64116e-08 0.0286168 -0.302908 5.75702e-08 0
1581.14 1.88259e-06 1.83651e-06 4.60787e-08 0.0244762 -0.300646 4.7837e-08 0
1662.3 1.79681e-06 1.75917e-06 3.76316e-08 0.0209436 -0.298348 3.9569e-08 0
1747.63 1.71379e-06 1.68306e-06 3.07276e-08 0.0179296 -0.296033 3.25894e-08 0
1837.33 1.63356e-06 1.60846e-06 2.50995e-08 0.0153649 -0.293723 2.67337e-08 0
1931.64 1.5561e-06 1.53559e-06 2.05089e-08 0.0131797 -0.29143 2.18481e-08 0
2030.79 1.48111e-06 1.46436e-06 1.67506e-08 0.0113095 -0.288713 1.77895e-08 0
2135.03 1.40734e-06 1.39367e-06 1.36709e-08 0.00971401 -0.284999 1.44215e-08 0
2244.63 1.33514e-06 1.32397e-06 1.11652e-08 0.00836259 -0.281356 1.16437e-08 0
2359.84 1.26484e-06 1.25572e-06 9.11823e-09 0.00720902 -0.277806 9.36578e-09 0
2480.97 1.1968e-06 1.18935e-06 7.44516e-09 0.00622091 -0.274367 7.50824e-09 0
2608.32 1.13136e-06 1.12528e-06 6.07927e-09 0.00537342 -0.271059 6.00145e-09 0
2742.21 1.06883e-06 1.06387e-06 4.96707e-09 0.00464719 -0.267894 4.78507e-09 0
2882.96 1.0093e-06 1.00524e-06 4.05759e-09 0.00402021 -0.264874 3.8068e-09 0
3030.95 9.52853e-07 9.49539e-07 3.31402e-09 0.00347799 -0.262003 3.02285e-09 0
3186.53 8.99603e-07 8.96895e-07 2.70768e-09 0.00300987 -0.259281 2.39677e-09 0
3350.09 8.49513e-07 8.473e-07 2.21288e-09 0.00260488 -0.256705 1.89804e-09 0
3522.05 8.02469e-07 8.0066e-07 1.80815e-09 0.00225323 -0.254267 1.50155e-09 0
3702.84 7.5837e-07 7.56892e-07 1.47714e-09 0.00194779 -0.251959 1.18691e-09 0
3892.91 7.17172e-07 7.15964e-07 1.20755e-09 0.00168377 -0.249779 9.37713e-10 0
4092.73 6.78659e-07 6.77672e-07 9.87082e-10 0.00145446 -0.247713 7.40497e-10 0
4302.81 6.4266e-07 6.41854e-07 8.0669e-10 0.00125524 -0.245753 5.84551e-10 0
4523.68 6.09029e-07 6.08369e-07 6.5927e-10 0.00108249 -0.243892 4.61335e-10 0
4755.88 5.77648e-07 5.77109e-07 5.39097e-10 0.000933262 -0.242122 3.64064e-10 0
5000 5.48295e-07 5.47854e-07 4.40728e-10 0.000803817 -0.240435 2.87266e-10 0
