# 7.38128e-08 2 7 : grain size, compostion index, size index
# This grain was stochastically heated: Yes
# Heating and cooling timescale: 1.86371e+06 1.26759
# Ratio of heating to cooling to determine stochastic cutoff: 100
# Equilibrium emission is recorded even for those grains in the stochastic regime.
# Emission spectrum was computed for: 
# Type: IRSF
# Scale: 1
# Temperature: -1
# Wavelength  CExt  CAbs  CSca  Albedo G EqEmission StEmission
0.05 1.70487e-15 1.70435e-15 5.22868e-19 0.000306691 0.00119233 0 8.42498e-136
0.0525665 1.9745e-15 1.97394e-15 5.60699e-19 0.00028397 0.00106206 0 4.80295e-130
0.0552647 2.27861e-15 2.27801e-15 6.00761e-19 0.000263652 0.000945689 0 1.44207e-124
0.0581015 2.58571e-15 2.58508e-15 6.33822e-19 0.000245125 0.00084161 0 2.32091e-119
0.0610839 2.93125e-15 2.93057e-15 6.74022e-19 0.000229944 0.000741193 0 2.09488e-114
0.0642193 3.42371e-15 3.42296e-15 7.51133e-19 0.000219392 0.000641051 0 1.12469e-109
0.0675157 4.17143e-15 4.17055e-15 8.83047e-19 0.000211689 0.000540124 0 3.7343e-105
0.0709813 4.63172e-15 4.63081e-15 9.12152e-19 0.000196936 0.000452723 0 6.87065e-101
0.0746248 4.40604e-15 4.40524e-15 7.97e-19 0.000180888 0.00039041 0 6.7463e-97
0.0784553 3.75921e-15 3.75859e-15 6.18515e-19 0.000164533 0.00034896 0 3.78653e-93
0.0824824 3.02153e-15 3.02109e-15 4.35153e-19 0.000144018 0.00032615 0 1.30429e-89
0.0867162 2.63969e-15 2.63936e-15 3.35321e-19 0.00012703 0.000313127 0 3.24745e-86
0.0911674 2.32558e-15 2.3253e-15 2.81308e-19 0.000120963 0.000304015 0 5.53154e-83
0.095847 1.82514e-15 1.82492e-15 2.23241e-19 0.000122314 0.000320498 0 5.80121e-80
0.100767 1.25811e-15 1.25795e-15 1.5233e-19 0.000121079 0.000373828 0 3.76086e-77
0.105939 8.24904e-16 8.24798e-16 1.05542e-19 0.000127944 0.00040334 0 1.65997e-74
0.111377 4.99254e-16 4.99189e-16 6.45533e-20 0.0001293 0.000461634 0 4.9202e-72
0.117094 3.82385e-16 3.82344e-16 4.02442e-20 0.000105245 0.000422835 0 1.3636e-69
0.123105 2.99779e-16 2.99753e-16 2.62213e-20 8.74688e-05 0.000362777 0 2.90024e-67
0.129424 2.51665e-16 2.51648e-16 1.6867e-20 6.70214e-05 0.000305107 0 5.02215e-65
0.136067 2.38475e-16 2.38464e-16 1.09274e-20 4.58221e-05 0.000258149 0 7.56341e-63
0.143051 2.47426e-16 2.47419e-16 7.17726e-21 2.90077e-05 0.00022021 0 9.73179e-61
0.150394 2.85534e-16 2.85529e-16 4.88946e-21 1.71239e-05 0.000187982 0 1.09995e-58
0.158114 3.46609e-16 3.46606e-16 3.69762e-21 1.0668e-05 0.000160976 0 1.04474e-56
0.16623 4.34166e-16 4.34162e-16 3.41532e-21 7.86641e-06 0.000138388 0 8.26961e-55
0.174762 5.6836e-16 5.68356e-16 4.11482e-21 7.23981e-06 0.000118992 0 5.58276e-53
0.183733 7.6305e-16 7.63044e-16 5.8754e-21 7.69989e-06 0.000101346 0 3.1857e-51
0.193164 1.05921e-15 1.0592e-15 9.33259e-21 8.81089e-06 8.43356e-05 0 1.5638e-49
0.203079 1.39991e-15 1.3999e-15 1.42439e-20 1.01749e-05 6.76291e-05 0 6.13602e-48
0.213503 1.51157e-15 1.51155e-15 1.74804e-20 1.15644e-05 5.20134e-05 0 1.6659e-46
0.224463 1.16104e-15 1.16102e-15 1.4523e-20 1.25086e-05 3.851e-05 0 2.74957e-45
0.235984 7.9144e-16 7.9143e-16 9.85087e-21 1.24468e-05 2.74855e-05 0 3.4794e-44
0.248097 5.61711e-16 5.61705e-16 6.37551e-21 1.13501e-05 2.10534e-05 0 4.02991e-43
0.260832 4.43862e-16 4.43857e-16 4.37815e-21 9.86377e-06 2.19045e-05 0 4.7343e-42
0.274221 3.66216e-16 3.66213e-16 3.15771e-21 8.62252e-06 2.92873e-05 0 5.68749e-41
0.288297 3.16496e-16 3.16493e-16 2.35351e-21 7.43617e-06 3.92945e-05 0 7.75086e-40
0.303095 2.78378e-16 2.78376e-16 1.81357e-21 6.51477e-06 4.406e-05 0 1.21472e-38
0.318653 2.45763e-16 2.45762e-16 1.41214e-21 5.74594e-06 4.59733e-05 0 2.01289e-37
0.335009 2.20366e-16 2.20365e-16 1.11226e-21 5.04734e-06 4.52101e-05 0 3.23728e-36
0.352205 2.00745e-16 2.00744e-16 8.86874e-22 4.41792e-06 4.28989e-05 0 4.77373e-35
0.370284 1.84349e-16 1.84348e-16 7.13416e-22 3.86993e-06 4.01059e-05 0 6.26617e-34
0.389291 1.68922e-16 1.68922e-16 5.78299e-22 3.42346e-06 3.73918e-05 0 7.21264e-33
0.409273 1.54174e-16 1.54174e-16 4.70173e-22 3.04962e-06 3.47566e-05 0 7.28151e-32
0.430281 1.40053e-16 1.40052e-16 3.82642e-22 2.73213e-06 3.22532e-05 0 6.47121e-31
0.452368 1.27903e-16 1.27903e-16 3.11361e-22 2.43435e-06 2.96674e-05 0 5.14065e-30
0.475588 1.16903e-16 1.16903e-16 2.53527e-22 2.1687e-06 2.7191e-05 0 3.65345e-29
0.5 1.07594e-16 1.07593e-16 2.0698e-22 1.92371e-06 2.48151e-05 0 2.34964e-28
0.525665 9.95571e-17 9.95569e-17 1.69159e-22 1.69911e-06 2.25687e-05 0 1.37229e-27
0.552647 9.19739e-17 9.19738e-17 1.38301e-22 1.50369e-06 2.05223e-05 0 7.26347e-27
0.581015 8.56743e-17 8.56742e-17 1.13622e-22 1.32621e-06 1.86206e-05 0 3.53526e-26
0.610839 7.9664e-17 7.96639e-17 9.33751e-23 1.17211e-06 1.6898e-05 0 1.57343e-25
0.642193 7.39229e-17 7.39228e-17 7.6723e-23 1.03788e-06 1.53353e-05 0 6.42901e-25
0.675157 6.86071e-17 6.8607e-17 6.31128e-23 9.19917e-07 1.39238e-05 0 2.42684e-24
0.709813 6.36941e-17 6.36941e-17 5.2005e-23 8.1648e-07 1.26578e-05 0 8.49727e-24
0.746248 5.90787e-17 5.90787e-17 4.28594e-23 7.25463e-07 1.15266e-05 0 2.76642e-23
0.784553 5.46962e-17 5.46962e-17 3.53114e-23 6.45592e-07 1.04993e-05 0 8.39588e-23
0.824824 5.06008e-17 5.06007e-17 2.90862e-23 5.74817e-07 9.5774e-06 0 2.38589e-22
0.867162 4.67699e-17 4.67699e-17 2.39672e-23 5.12448e-07 8.74788e-06 0 6.36779e-22
0.911674 4.31716e-17 4.31715e-17 1.97387e-23 4.57214e-07 7.99746e-06 6.26011e-310 1.60033e-21
0.95847 3.98384e-17 3.98384e-17 1.62426e-23 4.07713e-07 7.32486e-06 4.97086e-295 3.80212e-21
1.00767 3.67232e-17 3.67232e-17 1.33668e-23 3.63987e-07 6.71419e-06 7.26637e-281 8.55646e-21
1.05939 3.38869e-17 3.38869e-17 1.09955e-23 3.24476e-07 6.16025e-06 2.12838e-267 1.83268e-20
1.11377 3.12221e-17 3.12221e-17 9.04209e-24 2.89606e-07 5.65596e-06 1.34769e-254 3.73579e-20
1.17094 2.88572e-17 2.88571e-17 7.43248e-24 2.57561e-07 5.18514e-06 1.99724e-242 7.29902e-20
1.23105 2.6677e-17 2.6677e-17 6.11223e-24 2.2912e-07 4.7542e-06 7.4162e-231 1.36606e-19
1.29424 2.46554e-17 2.46554e-17 5.0281e-24 2.03935e-07 4.35774e-06 7.37822e-220 2.45342e-19
1.36067 2.27864e-17 2.27864e-17 4.13386e-24 1.81418e-07 3.99657e-06 2.0978e-209 4.23831e-19
1.43051 2.10616e-17 2.10616e-17 3.39709e-24 1.61293e-07 3.66752e-06 1.81244e-199 7.05826e-19
1.50394 1.94955e-17 1.94955e-17 2.79263e-24 1.43244e-07 3.36342e-06 5.04995e-190 1.1369e-18
1.58114 1.8066e-17 1.8066e-17 2.29577e-24 1.27077e-07 3.07987e-06 4.79386e-181 1.77398e-18
1.6623 1.67437e-17 1.67437e-17 1.88749e-24 1.12728e-07 2.81683e-06 1.63276e-172 2.6838e-18
1.74762 1.54992e-17 1.54992e-17 1.552e-24 1.00134e-07 2.57987e-06 2.09477e-164 3.93816e-18
1.83733 1.43503e-17 1.43503e-17 1.276e-24 8.8918e-08 2.3633e-06 1.06318e-156 5.62253e-18
1.93164 1.32859e-17 1.32859e-17 1.04868e-24 7.89321e-08 2.16447e-06 2.23313e-149 7.82057e-18
2.03079 1.23104e-17 1.23104e-17 8.61662e-25 6.99949e-08 1.97988e-06 2.02828e-142 1.06229e-17
2.13503 1.14024e-17 1.14024e-17 7.08548e-25 6.21404e-08 1.81109e-06 8.29022e-136 1.40948e-17
2.24463 1.0555e-17 1.0555e-17 5.82375e-25 5.51752e-08 1.6573e-06 1.58482e-129 1.82878e-17
2.35984 9.77849e-18 9.77849e-18 4.78489e-25 4.89328e-08 1.51542e-06 1.47269e-123 2.3265e-17
2.48097 9.06212e-18 9.06212e-18 3.93066e-25 4.33747e-08 1.3845e-06 6.88788e-118 2.90389e-17
2.60832 8.39367e-18 8.39367e-18 3.23164e-25 3.8501e-08 1.26362e-06 1.67518e-112 3.55696e-17
2.74221 7.76465e-18 7.76465e-18 2.65604e-25 3.42068e-08 1.15368e-06 2.18572e-107 4.27672e-17
2.88297 7.18326e-18 7.18326e-18 2.18127e-25 3.03661e-08 1.05432e-06 1.57919e-102 5.05881e-17
3.03095 6.63909e-18 6.63909e-18 1.79167e-25 2.69867e-08 9.63775e-07 6.49642e-98 5.88581e-17
3.18653 6.138e-18 6.138e-18 1.47192e-25 2.39804e-08 8.79805e-07 1.56594e-93 6.74925e-17
3.35009 5.67432e-18 5.67432e-18 1.20883e-25 2.13035e-08 8.03054e-07 2.26953e-89 7.63015e-17
3.52205 5.24377e-18 5.24377e-18 9.92289e-26 1.89232e-08 7.32498e-07 2.02674e-85 8.50718e-17
3.70284 4.84605e-18 4.84605e-18 8.14894e-26 1.68156e-08 6.68824e-07 1.14233e-81 9.36348e-17
3.89291 4.48131e-18 4.48131e-18 6.68969e-26 1.4928e-08 6.09298e-07 4.15858e-78 1.01854e-16
4.09273 4.14479e-18 4.14479e-18 5.49099e-26 1.32479e-08 5.53132e-07 9.98488e-75 1.09504e-16
4.30281 3.83012e-18 3.83012e-18 4.50616e-26 1.17651e-08 5.02935e-07 1.61192e-71 1.16286e-16
4.52368 3.53822e-18 3.53822e-18 3.69908e-26 1.04546e-08 4.56922e-07 1.78485e-68 1.22099e-16
4.75588 3.26823e-18 3.26823e-18 3.03538e-26 9.28754e-09 4.14406e-07 1.381e-65 1.26838e-16
5 3.02303e-18 3.02303e-18 2.49005e-26 8.23694e-09 3.74494e-07 7.60967e-63 1.30606e-16
5.25665 2.78876e-18 2.78876e-18 2.04314e-26 7.32634e-09 3.38271e-07 3.02408e-60 1.32813e-16
5.52648 2.56961e-18 2.56961e-18 1.67634e-26 6.52373e-09 3.06236e-07 8.81779e-58 1.33625e-16
5.81015 2.36862e-18 2.36862e-18 1.37452e-26 5.80303e-09 2.76584e-07 1.9184e-55 1.33271e-16
6.10839 2.18541e-18 2.18541e-18 1.12674e-26 5.15572e-09 2.48287e-07 3.16041e-53 1.31872e-16
6.42193 2.01116e-18 2.01116e-18 9.23615e-27 4.59245e-09 2.26459e-07 3.98292e-51 1.29045e-16
6.75157 1.85761e-18 1.85761e-18 7.57217e-27 4.07629e-09 2.01278e-07 3.91385e-49 1.25702e-16
7.09813 1.71399e-18 1.71399e-18 6.20449e-27 3.61991e-09 1.8001e-07 3.0221e-47 1.21344e-16
7.46248 1.58309e-18 1.58309e-18 5.08231e-27 3.21038e-09 1.62317e-07 1.85891e-45 1.16356e-16
7.84553 1.46503e-18 1.46503e-18 4.16462e-27 2.84268e-09 1.42021e-07 9.2201e-44 1.10956e-16
8.24824 1.35407e-18 1.35407e-18 3.41149e-27 2.51944e-09 1.24548e-07 3.71462e-42 1.04911e-16
8.67162 1.25127e-18 1.25127e-18 2.79271e-27 2.2319e-09 1.11415e-07 1.22937e-40 9.8481e-17
9.11674 1.15854e-18 1.15854e-18 2.28613e-27 1.97328e-09 9.41984e-08 3.38142e-39 9.19966e-17
9.5847 1.07615e-18 1.07615e-18 1.87069e-27 1.73832e-09 8.43213e-08 7.81122e-38 8.56479e-17
10.0767 1.00353e-18 1.00353e-18 1.53008e-27 1.5247e-09 7.14902e-08 1.52955e-36 7.95357e-17
10.5939 9.39488e-19 9.39488e-19 1.25055e-27 1.33109e-09 5.99127e-08 2.56019e-35 7.36886e-17
11.1377 8.86045e-19 8.86045e-19 1.0213e-27 1.15265e-09 5.1432e-08 3.70447e-34 6.83606e-17
11.7094 8.29588e-19 8.29588e-19 8.41861e-28 1.01479e-09 4.4305e-08 4.60052e-33 6.25884e-17
12.3105 7.91162e-19 7.91162e-19 6.84519e-28 8.65208e-10 3.43096e-08 5.06728e-32 5.80352e-17
12.9424 7.56328e-19 7.56328e-19 5.58945e-28 7.39024e-10 2.53501e-08 4.90444e-31 5.36436e-17
13.6067 7.2849e-19 7.2849e-19 4.56418e-28 6.26527e-10 1.42787e-08 4.21975e-30 4.96901e-17
14.3051 7.09631e-19 7.09631e-19 3.72401e-28 5.24781e-10 7.99984e-09 3.25937e-29 4.63071e-17
15.0394 7.00026e-19 7.00026e-19 3.03671e-28 4.338e-10 7.01284e-09 2.2764e-28 4.34808e-17
15.8114 7.01682e-19 7.01682e-19 2.4762e-28 3.52895e-10 -4.71126e-09 1.45042e-27 4.12821e-17
16.623 7.14368e-19 7.14368e-19 2.01876e-28 2.82594e-10 -5.72376e-09 8.47181e-27 3.96208e-17
17.4762 7.39567e-19 7.39567e-19 1.64497e-28 2.22424e-10 -1.57551e-08 4.56433e-26 3.8492e-17
18.3733 7.80836e-19 7.80836e-19 1.33968e-28 1.7157e-10 -2.1035e-08 2.28576e-25 3.79688e-17
19.3164 8.39283e-19 8.39283e-19 1.09244e-28 1.30163e-10 -1.91271e-08 1.06691e-24 3.79669e-17
20.3079 9.17626e-19 9.17626e-19 8.914e-29 9.7142e-11 -2.67503e-08 4.65794e-24 3.84607e-17
21.3503 1.02228e-18 1.02228e-18 7.28135e-29 7.12264e-11 -4.63199e-08 1.9131e-23 3.95435e-17
22.4463 1.15959e-18 1.15959e-18 5.96696e-29 5.14577e-11 -3.44991e-08 7.41553e-23 4.12411e-17
23.5984 1.33457e-18 1.33457e-18 4.91907e-29 3.68589e-11 -3.15911e-08 2.7132e-22 4.34847e-17
24.8097 1.54877e-18 1.54877e-18 4.09024e-29 2.64095e-11 -4.12978e-08 9.34561e-22 4.60755e-17
26.0832 1.8001e-18 1.8001e-18 3.44509e-29 1.91383e-11 -4.50417e-08 3.02005e-21 4.87371e-17
27.4221 2.0704e-18 2.0704e-18 2.94179e-29 1.42088e-11 -5.04249e-08 9.07577e-21 5.08586e-17
28.8297 2.3191e-18 2.3191e-18 2.55437e-29 1.10145e-11 -4.89429e-08 2.50371e-20 5.15375e-17
30.3095 2.51759e-18 2.51759e-18 2.24532e-29 8.91853e-12 -4.95979e-08 6.32808e-20 5.04784e-17
31.8653 2.57549e-18 2.57549e-18 1.97278e-29 7.65981e-12 -4.65106e-08 1.4287e-19 4.64727e-17
33.5009 2.52476e-18 2.52476e-18 1.73035e-29 6.85351e-12 -3.58503e-08 2.93766e-19 4.09031e-17
35.2206 2.31699e-18 2.31699e-18 1.48186e-29 6.39559e-12 -6.02884e-08 5.38758e-19 3.36296e-17
37.0284 2.05069e-18 2.05069e-18 1.25345e-29 6.11234e-12 -5.16301e-08 9.10052e-19 2.66136e-17
38.9291 1.75842e-18 1.75842e-18 1.04128e-29 5.92169e-12 -5.50782e-08 1.42554e-18 2.03687e-17
40.9273 1.48124e-18 1.48124e-18 8.56682e-30 5.78356e-12 -4.48691e-08 2.10418e-18 1.52903e-17
43.0282 1.2392e-18 1.2392e-18 6.98895e-30 5.63987e-12 -4.82346e-08 2.96487e-18 1.13839e-17
45.2368 1.0329e-18 1.0329e-18 5.68254e-30 5.50156e-12 -2.02871e-08 4.00831e-18 8.43439e-18
47.5588 8.66377e-19 8.66377e-19 4.60884e-30 5.31967e-12 -3.12293e-08 5.26129e-18 6.28253e-18
50 7.2668e-19 7.2668e-19 3.73865e-30 5.14485e-12 -9.79432e-09 6.6743e-18 4.67601e-18
52.5665 6.14213e-19 6.14213e-19 3.03096e-30 4.93469e-12 2.35139e-08 8.26005e-18 3.50528e-18
55.2648 5.22122e-19 5.22122e-19 2.45769e-30 4.70711e-12 9.80488e-09 9.9688e-18 2.64183e-18
58.1015 4.46566e-19 4.46566e-19 1.99562e-30 4.46882e-12 5.20114e-08 1.17551e-17 2.00306e-18
61.0839 3.83947e-19 3.83947e-19 1.62105e-30 4.22208e-12 2.81197e-08 1.35509e-17 1.52685e-18
64.2193 3.31628e-19 3.31628e-19 1.31734e-30 3.97234e-12 -1.9124e-08 1.52821e-17 1.16954e-18
67.5157 2.87922e-19 2.87922e-19 1.07136e-30 3.72102e-12 3.20222e-08 1.68921e-17 9.00926e-19
70.9813 2.51065e-19 2.51065e-19 8.72168e-31 3.47388e-12 4.50022e-08 1.83084e-17 6.97489e-19
74.6248 2.19765e-19 2.19765e-19 7.10207e-31 3.23167e-12 -1.65979e-08 1.94701e-17 5.4251e-19
78.4553 1.93031e-19 1.93031e-19 5.78448e-31 2.99666e-12 1.00813e-07 2.03313e-17 4.2384e-19
82.4824 1.70148e-19 1.70148e-19 4.71559e-31 2.77146e-12 1.50455e-08 2.08706e-17 3.32668e-19
86.7162 1.50542e-19 1.50542e-19 3.84572e-31 2.55459e-12 3.37458e-08 2.10874e-17 2.6241e-19
91.1674 1.33598e-19 1.33598e-19 3.13662e-31 2.34781e-12 3.90097e-08 2.09767e-17 2.07892e-19
95.847 1.18893e-19 1.18893e-19 2.55854e-31 2.15196e-12 -5.96043e-08 2.05581e-17 1.65391e-19
100.767 1.06151e-19 1.06151e-19 2.08889e-31 1.96784e-12 -2.6099e-08 1.98766e-17 1.32194e-19
105.939 9.53477e-20 9.53477e-20 1.7053e-31 1.78851e-12 8.59308e-08 1.90281e-17 1.06454e-19
111.377 8.6037e-20 8.6037e-20 1.39196e-31 1.61786e-12 2.15807e-07 1.80248e-17 8.62431e-20
117.094 7.83653e-20 7.83653e-20 1.13668e-31 1.45049e-12 -7.5254e-08 1.69895e-17 7.06262e-20
123.105 7.22827e-20 7.22827e-20 9.28974e-32 1.2852e-12 2.04085e-08 1.59978e-17 5.86508e-20
129.424 6.73667e-20 6.73667e-20 7.5989e-32 1.12799e-12 -1.26044e-07 1.50263e-17 4.92776e-20
136.067 6.27076e-20 6.27076e-20 6.2208e-32 9.92032e-13 5.25067e-08 1.39256e-17 4.14019e-20
143.051 5.68808e-20 5.68808e-20 5.09998e-32 8.96608e-13 9.68145e-08 1.24321e-17 3.39356e-20
150.394 5.05701e-20 5.05701e-20 4.17992e-32 8.2656e-13 2.1952e-07 1.07605e-17 2.72912e-20
158.114 4.42849e-20 4.42849e-20 3.42079e-32 7.72451e-13 -2.1634e-07 9.08001e-18 2.16384e-20
166.23 3.87243e-20 3.87243e-20 2.79773e-32 7.22473e-13 -2.2536e-07 7.57695e-18 1.71453e-20
174.763 3.3912e-20 3.3912e-20 2.2891e-32 6.75011e-13 3.82322e-07 6.2744e-18 1.36149e-20
183.733 3.00335e-20 3.00335e-20 1.87204e-32 6.23316e-13 -1.41522e-08 5.20942e-18 1.09401e-20
193.164 2.66473e-20 2.66473e-20 1.53059e-32 5.74387e-13 2.2435e-07 4.2981e-18 8.81103e-21
203.079 2.37337e-20 2.37337e-20 1.25168e-32 5.27385e-13 6.94325e-07 3.53274e-18 7.12617e-21
213.503 2.12837e-20 2.12837e-20 1.02401e-32 4.81123e-13 -3.21871e-07 2.90265e-18 5.8045e-21
224.463 1.9076e-20 1.9076e-20 8.37571e-33 4.39071e-13 1.4841e-07 2.3676e-18 4.72612e-21
235.984 1.7086e-20 1.7086e-20 6.84939e-33 4.00877e-13 -1.0102e-06 1.9177e-18 3.84577e-21
248.097 1.52957e-20 1.52957e-20 5.60424e-33 3.66392e-13 -2.4345e-07 1.54326e-18 3.12771e-21
260.832 1.37752e-20 1.37752e-20 4.58573e-33 3.32898e-13 -5.23157e-07 1.24243e-18 2.5587e-21
274.221 1.24068e-20 1.24068e-20 3.75145e-33 3.02371e-13 -4.02419e-07 9.95079e-19 2.09298e-21
288.297 1.11612e-20 1.11612e-20 3.06855e-33 2.7493e-13 -1.36886e-07 7.92132e-19 1.70958e-21
303.095 1.00436e-20 1.00436e-20 2.51164e-33 2.50074e-13 2.89874e-07 6.27854e-19 1.39636e-21
318.653 9.06917e-21 9.06917e-21 2.05535e-33 2.2663e-13 5.134e-08 4.97212e-19 1.14403e-21
335.009 8.17843e-21 8.17843e-21 1.68153e-33 2.05605e-13 5.70132e-07 3.91638e-19 9.35632e-22
352.206 7.3664e-21 7.3664e-21 1.37598e-33 1.86791e-13 6.55637e-07 3.06943e-19 7.63901e-22
370.284 6.65682e-21 6.65682e-21 1.1263e-33 1.69195e-13 7.52368e-07 2.40495e-19 6.25395e-22
389.291 6.01092e-21 6.01092e-21 9.21699e-34 1.53337e-13 3.3057e-07 1.87657e-19 5.11296e-22
409.273 5.42041e-21 5.42041e-21 7.54077e-34 1.39118e-13 -2.47593e-06 1.45773e-19 4.17179e-22
430.282 4.90235e-21 4.90235e-21 6.17266e-34 1.25912e-13 5.07586e-07 1.13238e-19 3.41153e-22
452.368 4.4325e-21 4.4325e-21 5.05252e-34 1.13988e-13 4.43549e-07 8.76958e-20 2.78692e-22
475.588 4.0022e-21 4.0022e-21 4.13461e-34 1.03308e-13 6.08228e-07 6.76467e-20 2.27175e-22
500 3.60916e-21 3.60916e-21 3.38302e-34 9.37343e-14 1.4459e-06 5.19894e-20 1.84795e-22
525.665 3.27476e-21 3.27476e-21 2.76977e-34 8.45793e-14 -1.39325e-06 4.01105e-20 1.51113e-22
552.648 2.96749e-21 2.96749e-21 2.26706e-34 7.63967e-14 -1.31484e-06 3.08393e-20 1.23294e-22
581.015 2.68539e-21 2.68539e-21 1.85513e-34 6.90825e-14 -1.97398e-06 2.36312e-20 1.00361e-22
610.838 2.42707e-21 2.42707e-21 1.51835e-34 6.25589e-14 -3.38561e-07 1.80511e-20 8.15078e-23
642.193 2.19097e-21 2.19097e-21 1.24303e-34 5.67344e-14 4.55602e-06 1.37475e-20 6.60457e-23
675.157 1.97512e-21 1.97512e-21 1.01735e-34 5.15082e-14 -1.35887e-06 1.04382e-20 5.33834e-23
709.813 1.7827e-21 1.7827e-21 8.32448e-35 4.6696e-14 3.69691e-06 7.92261e-21 4.31507e-23
746.247 1.61804e-21 1.61804e-21 6.81513e-35 4.21196e-14 2.81803e-06 6.03807e-21 3.50326e-23
784.553 1.4667e-21 1.4667e-21 5.57897e-35 3.80376e-14 7.17497e-07 4.58945e-21 2.83694e-23
824.824 1.32772e-21 1.32772e-21 4.56584e-35 3.43886e-14 4.74175e-06 3.47912e-21 2.2913e-23
867.162 1.20033e-21 1.20033e-21 3.73629e-35 3.11271e-14 7.44839e-06 2.63071e-21 1.84573e-23
911.674 1.08396e-21 1.08396e-21 3.05915e-35 2.8222e-14 -3.78374e-06 1.98466e-21 1.48314e-23
958.471 9.77546e-22 9.77546e-22 2.50404e-35 2.56156e-14 -1.19108e-05 1.4936e-21 1.18853e-23
1007.67 8.8134e-22 8.8134e-22 2.04914e-35 2.32503e-14 -5.43149e-06 1.12259e-21 9.50846e-24
1059.39 7.98374e-22 7.98374e-22 1.67728e-35 2.10087e-14 -1.81511e-05 8.4691e-22 7.63234e-24
1113.77 7.22344e-22 7.22344e-22 1.37325e-35 1.90111e-14 1.19854e-05 6.37573e-22 6.11035e-24
1170.94 6.52666e-22 6.52666e-22 1.12396e-35 1.7221e-14 6.99981e-06 4.78911e-22 4.87834e-24
1231.05 5.89814e-22 5.89814e-22 9.19712e-36 1.55933e-14 -2.14758e-06 3.59503e-22 3.89e-24
1294.24 5.34404e-22 5.34404e-22 7.53023e-36 1.40909e-14 2.09931e-05 2.70362e-22 3.10571e-24
1360.67 4.83761e-22 4.83761e-22 6.16445e-36 1.27428e-14 2.44245e-05 2.02991e-22 2.47396e-24
1430.51 4.37333e-22 4.37333e-22 5.04486e-36 1.15355e-14 -1.93162e-05 1.521e-22 1.96548e-24
1503.94 3.95003e-22 3.95003e-22 4.12868e-36 1.04523e-14 4.1064e-05 1.13791e-22 1.55809e-24
1581.14 3.58398e-22 3.58398e-22 3.38041e-36 9.432e-15 -1.18592e-05 8.54658e-23 1.23921e-24
1662.3 3.2477e-22 3.2477e-22 2.76728e-36 8.52072e-15 5.08565e-05 6.40726e-23 9.83138e-25
1747.63 2.93905e-22 2.93905e-22 2.26454e-36 7.70501e-15 3.32537e-05 4.79436e-23 7.78e-25
1837.33 2.65657e-22 2.65657e-22 1.85365e-36 6.9776e-15 3.93944e-05 3.58136e-23 6.14213e-25
1931.64 2.39837e-22 2.39837e-22 1.51762e-36 6.32772e-15 2.93006e-05 2.67074e-23 4.83761e-25
2030.79 2.17888e-22 2.17888e-22 1.24213e-36 5.70079e-15 3.67817e-06 2.00325e-23 3.82968e-25
2135.03 2.01209e-22 2.01209e-22 1.01632e-36 5.05106e-15 -8.70794e-05 1.52666e-23 3.07811e-25
2244.63 1.85632e-22 1.85632e-22 8.32223e-37 4.48318e-15 3.48782e-05 1.16189e-23 2.46881e-25
2359.84 1.71073e-22 1.71073e-22 6.81284e-37 3.98241e-15 1.82876e-05 8.82947e-24 1.97557e-25
2480.97 1.57475e-22 1.57475e-22 5.57569e-37 3.54068e-15 2.22285e-06 6.69948e-24 1.57711e-25
2608.32 1.44795e-22 1.44795e-22 4.56296e-37 3.15133e-15 -3.83161e-06 5.07583e-24 1.25602e-25
2742.21 1.32999e-22 1.32999e-22 3.7359e-37 2.80897e-15 -6.62469e-05 3.84044e-24 9.97971e-26
