# 0.00111247 4 99 : grain size, compostion index, size index
# This grain was stochastically heated: No
# Heating and cooling timescale: 1.97491e-05 inf
# Ratio of heating to cooling to determine stochastic cutoff: 100
# Equilibrium emission is recorded even for those grains in the stochastic regime.
# Emission spectrum was computed for: 
# Type: IRSF
# Scale: 1
# Temperature: -1
# Wavelength  CExt  CAbs  CSca  Albedo G EqEmission StEmission
0.05 7.83076e-06 3.30777e-06 4.52299e-06 0.577592 0.931963 0 0
0.0525665 7.83308e-06 3.27936e-06 4.55372e-06 0.581345 0.926181 0 0
0.0552647 7.83555e-06 3.23185e-06 4.60369e-06 0.58754 0.917335 0 0
0.0581015 7.83844e-06 3.15972e-06 4.67872e-06 0.596894 0.90358 0 0
0.0610839 7.84176e-06 3.08723e-06 4.75454e-06 0.60631 0.888155 0 0
0.0642193 7.84531e-06 3.03694e-06 4.80837e-06 0.612898 0.875614 0 0
0.0675157 7.84898e-06 3.00902e-06 4.83996e-06 0.616636 0.866767 0 0
0.0709813 7.8527e-06 2.99933e-06 4.85336e-06 0.618051 0.861191 0 0
0.0746248 7.85645e-06 3.00484e-06 4.85161e-06 0.617533 0.858477 0 0
0.0784553 7.8601e-06 3.02748e-06 4.83262e-06 0.61483 0.85912 0 0
0.0824824 7.86348e-06 3.07434e-06 4.78915e-06 0.609036 0.864652 0 0
0.0867162 7.86644e-06 3.09419e-06 4.77225e-06 0.60666 0.867628 0 0
0.0911674 7.87032e-06 3.06759e-06 4.80273e-06 0.610233 0.861137 0 0
0.095847 7.87449e-06 3.06522e-06 4.80927e-06 0.61074 0.857854 0 0
0.100767 7.87833e-06 3.07583e-06 4.8025e-06 0.609583 0.857388 0 0
0.105939 7.88177e-06 3.1082e-06 4.77356e-06 0.605646 0.861296 0 0
0.111377 7.88501e-06 3.14133e-06 4.74368e-06 0.601608 0.866354 0 0
0.117094 7.88841e-06 3.16336e-06 4.72505e-06 0.598986 0.869526 0 0
0.123105 7.89198e-06 3.17878e-06 4.7132e-06 0.597213 0.871524 0 0
0.129424 7.89567e-06 3.18878e-06 4.70689e-06 0.596135 0.872498 0 0
0.136067 7.89955e-06 3.19276e-06 4.70678e-06 0.595829 0.872257 0 0
0.143051 7.90354e-06 3.18726e-06 4.71628e-06 0.59673 0.869933 0 0
0.150394 7.90694e-06 3.19953e-06 4.70741e-06 0.595352 0.871157 0 0
0.158114 7.91017e-06 3.23443e-06 4.67573e-06 0.591104 0.877589 0 0
0.16623 7.9138e-06 3.27404e-06 4.63975e-06 0.586286 0.885407 0 0
0.174762 7.91795e-06 3.30953e-06 4.60842e-06 0.582022 0.892504 0 0
0.183733 7.92245e-06 3.34135e-06 4.5811e-06 0.578243 0.898849 0 0
0.193164 7.92722e-06 3.36876e-06 4.55845e-06 0.575038 0.904235 0 0
0.203079 7.93226e-06 3.39258e-06 4.53968e-06 0.572306 0.908812 0 0
0.213503 7.93748e-06 3.41402e-06 4.52346e-06 0.569886 0.912835 0 0
0.224463 7.94293e-06 3.43246e-06 4.51047e-06 0.56786 0.916167 0 0
0.235984 7.94856e-06 3.44766e-06 4.5009e-06 0.566253 0.918756 0 0
0.248097 7.95438e-06 3.46007e-06 4.49431e-06 0.56501 0.920703 0 0
0.260832 7.96041e-06 3.47084e-06 4.48957e-06 0.563987 0.92226 0 0
0.274221 7.96662e-06 3.4806e-06 4.48601e-06 0.563102 0.92356 0 0
0.288297 7.97302e-06 3.4895e-06 4.48352e-06 0.562336 0.924637 0 0
0.303095 7.97963e-06 3.49774e-06 4.48189e-06 0.561666 0.925531 0 0
0.318653 7.98649e-06 3.50559e-06 4.4809e-06 0.56106 0.9263 0 0
0.335009 7.99356e-06 3.51306e-06 4.4805e-06 0.560514 0.926948 0 0
0.352205 8.00086e-06 3.52035e-06 4.4805e-06 0.560003 0.927513 0 0
0.370284 8.00842e-06 3.52751e-06 4.48091e-06 0.559524 0.928004 0 0
0.389291 8.01625e-06 3.53446e-06 4.48179e-06 0.559088 0.928402 0 0
0.409273 8.02429e-06 3.54131e-06 4.48298e-06 0.558676 0.928736 0 0
0.430281 8.03263e-06 3.5483e-06 4.48432e-06 0.558264 0.929044 0 0
0.452368 8.04124e-06 3.55514e-06 4.4861e-06 0.557886 0.929269 0 0
0.475588 8.05015e-06 3.5621e-06 4.48805e-06 0.557511 0.929466 0 0
0.5 8.05934e-06 3.56918e-06 4.49016e-06 0.557137 0.929633 0 0
0.525665 8.06883e-06 3.57643e-06 4.4924e-06 0.556759 0.929774 0 0
0.552647 8.07872e-06 3.58395e-06 4.49477e-06 0.556372 0.929912 0 0
0.581015 8.08874e-06 3.59133e-06 4.49741e-06 0.556009 0.929958 0 0
0.610839 8.09926e-06 3.59903e-06 4.50023e-06 0.555635 0.930006 0 0
0.642193 8.11021e-06 3.60705e-06 4.50316e-06 0.555246 0.930055 0 0
0.675157 8.12159e-06 3.61527e-06 4.50632e-06 0.554857 0.930076 0 0
0.709813 8.1329e-06 3.62371e-06 4.50919e-06 0.554439 0.930064 0 0
0.746248 8.14473e-06 3.63246e-06 4.51226e-06 0.55401 0.930046 0 0
0.784553 8.15705e-06 3.64157e-06 4.51548e-06 0.553568 0.930023 0 0
0.824824 8.16997e-06 3.65089e-06 4.51907e-06 0.553133 0.929971 0 0
0.867162 8.18382e-06 3.66047e-06 4.52335e-06 0.552719 0.929901 0 0
0.911674 8.19839e-06 3.67037e-06 4.52802e-06 0.552306 0.929821 0 0
0.95847 8.21191e-06 3.68054e-06 4.53137e-06 0.551805 0.929693 0 0
1.00767 8.22283e-06 3.69103e-06 4.53181e-06 0.551125 0.929503 0 0
1.05939 8.23829e-06 3.70181e-06 4.53649e-06 0.550658 0.929356 0 0
1.11377 8.26084e-06 3.71286e-06 4.54798e-06 0.550547 0.929293 0 0
1.17094 8.2704e-06 3.72413e-06 4.54628e-06 0.549704 0.92899 0 0
1.23105 8.28354e-06 3.73562e-06 4.54792e-06 0.549031 0.928707 0 0
1.29424 8.31543e-06 3.7474e-06 4.56803e-06 0.549344 0.928688 0 0
1.36067 8.3114e-06 3.7591e-06 4.5523e-06 0.547718 0.928007 0 0
1.43051 8.3556e-06 3.77105e-06 4.58455e-06 0.54868 0.928081 0 0
1.50394 8.34711e-06 3.78281e-06 4.56429e-06 0.546812 0.927259 0 0
1.58114 8.39739e-06 3.79495e-06 4.60244e-06 0.548079 0.92726 0 0
1.6623 8.37755e-06 3.80626e-06 4.57128e-06 0.545659 0.926063 0 0
1.74762 8.45207e-06 3.81781e-06 4.63426e-06 0.548298 0.926407 0 0
1.83733 8.40807e-06 3.82969e-06 4.57838e-06 0.544522 0.924696 0 0
1.93164 8.49654e-06 3.84116e-06 4.65538e-06 0.547915 0.924992 0 0
2.03079 8.48203e-06 3.85329e-06 4.62875e-06 0.545712 0.923605 0 0
2.13503 8.47997e-06 3.86455e-06 4.61543e-06 0.544274 0.92242 0 0
2.24463 8.60154e-06 3.87616e-06 4.72538e-06 0.549364 0.92311 0 0
2.35984 8.52297e-06 3.88846e-06 4.63451e-06 0.543767 0.92031 1.85175e-288 0
2.48097 8.55191e-06 3.89984e-06 4.65207e-06 0.54398 0.918968 3.88438e-274 0
2.60832 8.7118e-06 3.90876e-06 4.80305e-06 0.551326 0.920139 1.60793e-260 0
2.74221 8.62699e-06 3.91971e-06 4.70727e-06 0.545645 0.917157 1.4235e-247 0
2.88297 8.56417e-06 3.93102e-06 4.63315e-06 0.540992 0.914577 2.9047e-235 0
3.03095 8.77424e-06 3.94298e-06 4.83126e-06 0.550618 0.916083 1.46774e-223 0
3.18653 8.86192e-06 3.95973e-06 4.90219e-06 0.553175 0.915093 1.9681e-212 0
3.35009 8.67448e-06 3.96534e-06 4.70914e-06 0.542873 0.908988 7.44303e-202 0
3.52205 8.65151e-06 3.98368e-06 4.66783e-06 0.53954 0.906576 8.49382e-192 0
3.70284 8.91948e-06 3.98339e-06 4.93609e-06 0.553406 0.909822 3.07725e-182 0
3.89291 9.10462e-06 4.00081e-06 5.10382e-06 0.560574 0.911658 3.77694e-173 0
4.09273 8.92339e-06 4.02448e-06 4.8989e-06 0.548996 0.906455 1.65123e-164 0
4.30281 8.67004e-06 4.02923e-06 4.64081e-06 0.535269 0.897455 2.6876e-156 0
4.52368 8.81578e-06 4.0266e-06 4.78918e-06 0.543251 0.894956 1.7137e-148 0
4.75588 9.25081e-06 4.02432e-06 5.22649e-06 0.564977 0.89807 4.48918e-141 0
5 9.45845e-06 4.02056e-06 5.43789e-06 0.574924 0.897871 5.04358e-134 0
5.25665 9.16625e-06 4.03955e-06 5.1267e-06 0.559302 0.891175 2.54815e-127 0
5.52648 8.76661e-06 4.07185e-06 4.69476e-06 0.535527 0.884115 6.00564e-121 0
5.81015 8.86095e-06 4.1253e-06 4.73566e-06 0.534441 0.889797 6.86906e-115 0
6.10839 9.48848e-06 4.19774e-06 5.29074e-06 0.557596 0.904833 3.94689e-109 0
6.42193 9.96732e-06 4.27298e-06 5.69434e-06 0.571301 0.911767 1.17408e-103 0
6.75157 9.61224e-06 4.32213e-06 5.29012e-06 0.550352 0.895974 1.85419e-98 0
7.09813 8.69469e-06 4.32737e-06 4.36732e-06 0.502298 0.853001 1.59721e-93 0
7.46248 9.61279e-06 4.40062e-06 5.21217e-06 0.542212 0.891309 7.9258e-89 0
7.84553 9.50186e-06 4.56862e-06 4.93324e-06 0.519187 0.947221 2.34175e-84 0
8.24824 8.30488e-06 4.50938e-06 3.7955e-06 0.45702 0.939363 3.93792e-80 0
8.67162 8.54988e-06 4.45725e-06 4.09263e-06 0.478677 0.913319 4.07153e-76 0
9.11674 9.00319e-06 4.39195e-06 4.61124e-06 0.512178 0.873222 2.6381e-72 0
9.5847 9.4622e-06 4.45043e-06 5.01177e-06 0.529662 0.841736 1.1306e-68 0
10.0767 9.68702e-06 4.52316e-06 5.16385e-06 0.533069 0.827553 3.19314e-65 0
10.5939 9.85206e-06 4.56143e-06 5.29063e-06 0.537008 0.81356 6.00261e-62 0
11.1377 9.9155e-06 4.62909e-06 5.28641e-06 0.533146 0.809764 7.76611e-59 0
11.7094 9.96042e-06 4.69466e-06 5.26576e-06 0.528669 0.807308 6.99565e-56 0
12.3105 9.99883e-06 4.77988e-06 5.21894e-06 0.521956 0.807863 4.48666e-53 0
12.9424 1.00452e-05 4.89795e-06 5.14725e-06 0.512409 0.812207 2.0883e-50 0
13.6067 1.01118e-05 5.05693e-06 5.05492e-06 0.499901 0.821448 7.17658e-48 0
14.3051 1.01459e-05 5.24429e-06 4.90165e-06 0.483114 0.832103 1.84285e-45 0
15.0394 1.01774e-05 5.34592e-06 4.83146e-06 0.474725 0.833237 3.51108e-43 0
15.8114 1.02071e-05 5.36784e-06 4.83923e-06 0.474106 0.828183 5.04193e-41 0
16.623 1.0228e-05 5.35495e-06 4.87305e-06 0.476442 0.816178 5.57711e-39 0
17.4762 1.03151e-05 5.34355e-06 4.97155e-06 0.481968 0.798381 4.84371e-37 0
18.3733 1.04705e-05 5.34001e-06 5.13052e-06 0.489996 0.777695 3.34651e-35 0
19.3164 1.06386e-05 5.34254e-06 5.29608e-06 0.497817 0.7573 1.85931e-33 0
20.3079 1.07601e-05 5.35519e-06 5.40492e-06 0.502311 0.739999 8.40363e-32 0
21.3503 1.0844e-05 5.37579e-06 5.46818e-06 0.50426 0.725204 3.11992e-30 0
22.4463 1.09288e-05 5.40037e-06 5.52846e-06 0.50586 0.711121 9.60028e-29 0
23.5984 1.10235e-05 5.45171e-06 5.57175e-06 0.505445 0.699381 2.48123e-27 0
24.8097 1.11216e-05 5.51267e-06 5.60896e-06 0.504329 0.687438 5.41655e-26 0
26.0832 1.11983e-05 5.57682e-06 5.6215e-06 0.501995 0.674593 1.0058e-24 0
27.4221 1.12466e-05 5.62092e-06 5.62566e-06 0.500211 0.658564 1.59478e-23 0
28.8297 1.12835e-05 5.64973e-06 5.63373e-06 0.499291 0.639897 2.17739e-22 0
30.3095 1.13367e-05 5.68101e-06 5.6557e-06 0.498884 0.620399 2.58664e-21 0
31.8653 1.1429e-05 5.74233e-06 5.68664e-06 0.497564 0.602739 2.70481e-20 0
33.5009 1.15591e-05 5.83393e-06 5.72516e-06 0.495295 0.587115 2.50545e-19 0
35.2206 1.17124e-05 5.95565e-06 5.75675e-06 0.491509 0.573619 2.06808e-18 0
37.0284 1.18498e-05 6.07949e-06 5.77031e-06 0.486954 0.55971 1.5226e-17 0
38.9291 1.19361e-05 6.17837e-06 5.75776e-06 0.482381 0.542576 1.0011e-16 0
40.9273 1.19549e-05 6.23287e-06 5.72202e-06 0.478634 0.519351 5.89212e-16 0
43.0282 1.19324e-05 6.25061e-06 5.68176e-06 0.476164 0.488934 3.12456e-15 0
45.2368 1.1917e-05 6.24648e-06 5.6705e-06 0.475834 0.450964 1.50368e-14 0
47.5588 1.19874e-05 6.2554e-06 5.73201e-06 0.478169 0.408091 6.6344e-14 0
50 1.21944e-05 6.29829e-06 5.8961e-06 0.483509 0.363648 2.70419e-13 0
52.5665 1.25715e-05 6.38292e-06 6.18862e-06 0.492272 0.321326 1.02365e-12 0
55.2648 1.31042e-05 6.49831e-06 6.60587e-06 0.504104 0.28314 3.60574e-12 0
58.1015 1.37426e-05 6.63145e-06 7.11118e-06 0.517454 0.250245 1.18371e-11 0
61.0839 1.43962e-05 6.77561e-06 7.62063e-06 0.529349 0.223292 3.63026e-11 0
64.2193 1.49399e-05 6.93044e-06 8.00943e-06 0.536111 0.203208 1.04351e-10 0
67.5157 1.52431e-05 7.09835e-06 8.14471e-06 0.534323 0.192078 2.82109e-10 0
70.9813 1.5216e-05 7.27186e-06 7.94412e-06 0.522091 0.192744 7.18697e-10 0
74.6248 1.48071e-05 7.39901e-06 7.40812e-06 0.500308 0.207767 1.71826e-09 0
78.4553 1.39474e-05 7.34345e-06 6.60393e-06 0.473489 0.235991 3.79673e-09 0
82.4824 1.25482e-05 6.91871e-06 5.62947e-06 0.448629 0.270195 7.5657e-09 0
86.7162 1.06859e-05 6.07365e-06 4.61221e-06 0.431618 0.297407 1.33783e-08 0
91.1674 8.66894e-06 4.99325e-06 3.67569e-06 0.424007 0.307892 2.11498e-08 0
95.847 6.82051e-06 3.93136e-06 2.88915e-06 0.423597 0.301025 3.06382e-08 0
100.767 5.30756e-06 3.04259e-06 2.26497e-06 0.426744 0.28225 4.18339e-08 0
105.939 4.13156e-06 2.35428e-06 1.77728e-06 0.430171 0.257924 5.48731e-08 0
111.377 3.23455e-06 1.83524e-06 1.39932e-06 0.432615 0.232665 6.98097e-08 0
117.094 2.55516e-06 1.44888e-06 1.10628e-06 0.432958 0.208542 8.67529e-08 0
123.105 2.03772e-06 1.15989e-06 8.7783e-07 0.430789 0.186349 1.05625e-07 0
129.424 1.64014e-06 9.41547e-07 6.98591e-07 0.425934 0.166401 1.2621e-07 0
136.067 1.3285e-06 7.71103e-07 5.57396e-07 0.419568 0.148717 1.47491e-07 0
143.051 1.08633e-06 6.40333e-07 4.45999e-07 0.410555 0.13296 1.69674e-07 0
150.394 8.92274e-07 5.34575e-07 3.57699e-07 0.400885 0.119069 1.9079e-07 0
158.114 7.40046e-07 4.52703e-07 2.87343e-07 0.388278 0.106675 2.11875e-07 0
166.23 6.15705e-07 3.84498e-07 2.31207e-07 0.375516 0.0957085 2.30054e-07 0
174.763 5.13662e-07 3.27164e-07 1.86499e-07 0.363076 0.0860063 2.44266e-07 0
183.733 4.32786e-07 2.82178e-07 1.50608e-07 0.347996 0.0773146 2.56915e-07 0
193.164 3.65362e-07 2.43609e-07 1.21752e-07 0.333238 0.0695663 2.64622e-07 0
203.079 3.09484e-07 2.10919e-07 9.85645e-08 0.318481 0.0626494 2.67722e-07 0
213.503 2.64028e-07 1.84116e-07 7.99115e-08 0.302663 0.0564583 2.67739e-07 0
224.463 2.25325e-07 1.6049e-07 6.48342e-08 0.287737 0.0509108 2.62398e-07 0
235.984 1.93443e-07 1.4081e-07 5.26332e-08 0.272086 0.0459213 2.54267e-07 0
248.097 1.66218e-07 1.23417e-07 4.2801e-08 0.257499 0.0414734 2.42001e-07 0
260.832 1.42038e-07 1.07225e-07 3.48126e-08 0.245094 0.0374471 2.24667e-07 0
274.221 1.21517e-07 9.32009e-08 2.83156e-08 0.233018 0.0337991 2.05512e-07 0
288.297 1.04608e-07 8.15747e-08 2.30336e-08 0.220189 0.0304938 1.86578e-07 0
303.095 9.01665e-08 7.14078e-08 1.87586e-08 0.208044 0.0275223 1.67103e-07 0
318.653 7.85276e-08 6.32476e-08 1.52799e-08 0.19458 0.0248398 1.49477e-07 0
335.009 6.81925e-08 5.57446e-08 1.24479e-08 0.182541 0.0224217 1.31427e-07 0
352.206 5.92112e-08 4.90645e-08 1.01467e-08 0.171365 0.0202438 1.14065e-07 0
370.284 5.20909e-08 4.38142e-08 8.27663e-09 0.158888 0.0182813 9.93414e-08 0
389.291 4.57023e-08 3.8951e-08 6.75135e-09 0.147724 0.01651 8.52422e-08 0
409.273 4.02985e-08 3.47912e-08 5.50729e-09 0.136662 0.0149107 7.27735e-08 0
430.282 3.57362e-08 3.12403e-08 4.49597e-09 0.12581 0.0134694 6.18833e-08 0
452.368 3.16692e-08 2.79982e-08 3.67101e-09 0.115917 0.0121688 5.20671e-08 0
475.588 2.83087e-08 2.53111e-08 2.99761e-09 0.10589 0.0109956 4.38286e-08 0
500 2.5246e-08 2.27982e-08 2.44781e-09 0.0969585 0.00993571 3.64762e-08 0
525.665 2.27076e-08 2.07069e-08 2.00069e-09 0.0881065 0.00898197 3.03905e-08 0
552.648 2.04112e-08 1.87762e-08 1.63501e-09 0.0801033 0.00811958 2.51061e-08 0
581.015 1.8451e-08 1.7115e-08 1.33601e-09 0.0724084 0.00733978 2.07164e-08 0
610.838 1.66858e-08 1.55937e-08 1.09211e-09 0.0654515 0.00663632 1.6984e-08 0
642.193 1.51489e-08 1.42557e-08 8.93163e-10 0.0589589 0.00600194 1.38924e-08 0
675.157 1.37906e-08 1.30602e-08 7.30331e-10 0.0529587 0.00542798 1.13275e-08 0
709.813 1.25883e-08 1.19912e-08 5.97087e-10 0.0474319 0.00490872 9.2105e-09 0
746.247 1.15112e-08 1.10227e-08 4.88453e-10 0.0424328 0.00444 7.46311e-09 0
784.553 1.05468e-08 1.01472e-08 3.99581e-10 0.0378865 0.00401604 6.02955e-09 0
824.824 9.67753e-09 9.35069e-09 3.26838e-10 0.0337729 0.00363282 4.85635e-09 0
867.162 8.87733e-09 8.60999e-09 2.67335e-10 0.0301143 0.00328636 3.89337e-09 0
911.674 8.13966e-09 7.92085e-09 2.1881e-10 0.026882 0.0029737 3.10732e-09 0
958.471 7.47652e-09 7.29744e-09 1.79072e-10 0.0239512 0.00269107 2.47516e-09 0
1007.67 6.86096e-09 6.71445e-09 1.46515e-10 0.0213549 0.00243512 1.96285e-09 0
1059.39 6.32221e-09 6.20231e-09 1.199e-10 0.0189649 0.00220333 1.55805e-09 0
1113.77 5.81539e-09 5.71725e-09 9.81454e-11 0.0168768 0.00199378 1.2307e-09 0
1170.94 5.33746e-09 5.25715e-09 8.03164e-11 0.0150477 0.00180404 9.67195e-10 0
1231.05 4.899e-09 4.83328e-09 6.57229e-11 0.0134156 0.00163265 7.58121e-10 0
1294.24 4.51996e-09 4.46616e-09 5.38091e-11 0.0119048 0.00147764 5.95884e-10 0
1360.67 4.16571e-09 4.12166e-09 4.40488e-11 0.0105741 0.00133725 4.66756e-10 0
1430.51 3.83067e-09 3.79462e-09 3.60506e-11 0.00941104 0.00121014 3.63991e-10 0
1503.94 3.51628e-09 3.48678e-09 2.95031e-11 0.00839041 0.00109511 2.82763e-10 0
1581.14 3.25522e-09 3.23107e-09 2.41573e-11 0.00742109 0.000991098 2.21126e-10 0
1662.3 3.00829e-09 2.98852e-09 1.97749e-11 0.00657348 0.000896901 1.7231e-10 0
1747.63 2.77426e-09 2.75808e-09 1.61834e-11 0.00583341 0.000811602 1.33761e-10 0
1837.33 2.55264e-09 2.53939e-09 1.32479e-11 0.00518987 0.000734489 1.03437e-10 0
1931.64 2.34266e-09 2.33181e-09 1.08474e-11 0.00463038 0.000664762 7.96619e-11 0
2030.79 2.15192e-09 2.14304e-09 8.87925e-12 0.00412619 0.000601581 6.13232e-11 0
2135.03 1.98993e-09 1.98266e-09 7.26584e-12 0.0036513 0.000544305 4.74609e-11 0
2244.63 1.83643e-09 1.83048e-09 5.94922e-12 0.00323957 0.000492578 3.6613e-11 0
2359.84 1.69069e-09 1.68582e-09 4.87056e-12 0.00288081 0.000445753 2.81441e-11 0
2480.97 1.553e-09 1.54901e-09 3.98644e-12 0.00256693 0.000403352 2.15616e-11 0
2608.32 1.43586e-09 1.4326e-09 3.26284e-12 0.00227239 0.000365015 1.66102e-11 0
2742.21 1.32532e-09 1.32265e-09 2.67201e-12 0.00201612 0.000330379 1.27619e-11 0
2882.96 1.22029e-09 1.2181e-09 2.1876e-12 0.00179269 0.000299012 9.77224e-12 0
3030.95 1.12316e-09 1.12137e-09 1.79052e-12 0.00159418 0.000270595 7.47377e-12 0
3186.53 1.04102e-09 1.03956e-09 1.46579e-12 0.00140803 0.000244867 5.75149e-12 0
3350.09 9.63012e-10 9.61812e-10 1.20018e-12 0.00124628 0.000221599 4.41414e-12 0
3522.05 8.8885e-10 8.87868e-10 9.82456e-13 0.00110531 0.00020053 3.37773e-12 0
3702.84 8.18343e-10 8.17539e-10 8.04016e-13 0.000982493 0.000181451 2.57643e-12 0
3892.91 7.51424e-10 7.50766e-10 6.58384e-13 0.000876182 0.000164218 1.95875e-12 0
4092.73 6.91989e-10 6.9145e-10 5.39045e-13 0.00077898 0.000148612 1.49261e-12 0
4302.81 6.40256e-10 6.39814e-10 4.41208e-13 0.000689112 0.000134473 1.14211e-12 0
4523.68 5.9108e-10 5.90719e-10 3.61112e-13 0.000610936 0.000121678 8.7151e-13 0
4755.88 5.44383e-10 5.44088e-10 2.95708e-13 0.000543199 0.000110119 6.63109e-13 0
5000 5.00319e-10 5.00077e-10 2.42085e-13 0.000483861 9.96497e-05 5.03237e-13 0
