# 2.58886e-07 4 19 : grain size, compostion index, size index
# This grain was stochastically heated: Yes
# Heating and cooling timescale: 223928 69.7408
# Ratio of heating to cooling to determine stochastic cutoff: 100
# Equilibrium emission is recorded even for those grains in the stochastic regime.
# Emission spectrum was computed for: 
# Type: IRSF
# Scale: 1
# Temperature: -1
# Wavelength  CExt  CAbs  CSca  Albedo G EqEmission StEmission
0.05 7.17466e-14 7.12793e-14 4.6733e-16 0.00651361 0.0158875 0 0
0.0525665 7.42999e-14 7.38521e-14 4.47743e-16 0.00602616 0.0142652 0 0
0.0552647 7.79731e-14 7.75277e-14 4.45453e-16 0.00571291 0.0127583 0 0
0.0581015 8.5466e-14 8.49852e-14 4.80753e-16 0.00562508 0.0113372 0 0
0.0610839 9.6995e-14 9.64524e-14 5.42591e-16 0.00559401 0.0100369 0 0
0.0642193 1.08449e-13 1.07858e-13 5.91883e-16 0.00545769 0.00889797 0 0
0.0675157 1.1598e-13 1.15374e-13 6.06105e-16 0.00522593 0.00793142 0 0
0.0709813 1.17343e-13 1.16764e-13 5.79655e-16 0.00493982 0.00714256 0 0
0.0746248 1.12045e-13 1.11527e-13 5.18375e-16 0.00462648 0.00653655 0 0
0.0784553 1.00942e-13 1.00509e-13 4.3229e-16 0.00428258 0.00612295 0 0
0.0824824 8.59029e-14 8.55703e-14 3.32657e-16 0.00387248 0.00589576 0 0
0.0867162 7.8615e-14 7.83526e-14 2.62413e-16 0.00333795 0.0054365 0 0
0.0911674 7.42672e-14 7.40349e-14 2.32274e-16 0.00312754 0.00496859 0 0
0.095847 6.43547e-14 6.41595e-14 1.95184e-16 0.00303293 0.00477143 0 0
0.100767 5.44466e-14 5.42888e-14 1.5788e-16 0.00289972 0.00463881 0 0
0.105939 4.41762e-14 4.40547e-14 1.21548e-16 0.00275144 0.00457858 0 0
0.111377 3.70783e-14 3.69852e-14 9.31598e-17 0.00251251 0.00437847 0 0
0.117094 3.164e-14 3.15669e-14 7.30482e-17 0.00230873 0.00413409 0 0
0.123105 2.71604e-14 2.71024e-14 5.80579e-17 0.00213759 0.00387963 0 0
0.129424 2.33119e-14 2.32653e-14 4.66742e-17 0.00200216 0.00363186 0 0
0.136067 1.98771e-14 1.98391e-14 3.80392e-17 0.00191371 0.00340453 0 0
0.143051 1.63623e-14 1.63306e-14 3.1621e-17 0.00193256 0.00322946 0 0
0.150394 1.16398e-14 1.16146e-14 2.52958e-17 0.00217321 0.00307567 0 0
0.158114 7.66568e-15 7.64642e-15 1.92578e-17 0.00251221 0.00281354 0 0
0.16623 5.00799e-15 4.99353e-15 1.44581e-17 0.00288701 0.00250321 0 0
0.174762 3.39928e-15 3.38838e-15 1.08935e-17 0.00320465 0.00220958 0 0
0.183733 2.27224e-15 2.264e-15 8.23737e-18 0.00362521 0.0019496 0 9.23995e-309
0.193164 1.54791e-15 1.54163e-15 6.27944e-18 0.00405672 0.00172462 0 1.4372e-294
0.203079 1.07645e-15 1.07163e-15 4.8232e-18 0.00448065 0.00153021 0 4.50101e-281
0.213503 7.95341e-16 7.91621e-16 3.72075e-18 0.00467818 0.00136052 0 3.1988e-268
0.224463 6.69286e-16 6.66394e-16 2.89192e-18 0.0043209 0.00121311 0 5.96551e-256
0.235984 6.34354e-16 6.32082e-16 2.27163e-18 0.00358101 0.00108535 0 3.10175e-244
0.248097 6.29176e-16 6.27375e-16 1.80082e-18 0.00286218 0.000973741 0 4.4715e-233
0.260832 6.12424e-16 6.10989e-16 1.43543e-18 0.00234385 0.00087505 0 1.78842e-222
0.274221 5.91751e-16 5.90603e-16 1.1485e-18 0.00194085 0.00078722 0 2.13573e-212
0.288297 5.69774e-16 5.68851e-16 9.22758e-19 0.00161952 0.000709018 0 8.11011e-203
0.303095 5.47855e-16 5.47112e-16 7.43347e-19 0.00135683 0.000639033 0 1.03802e-193
0.318653 5.25847e-16 5.25248e-16 5.99863e-19 0.00114075 0.000576214 0 4.72239e-185
0.335009 5.04068e-16 5.03583e-16 4.85187e-19 0.000962542 0.000519877 0 8.03958e-177
0.352205 4.82853e-16 4.8246e-16 3.93064e-19 0.000814046 0.000469241 0 5.38024e-169
0.370284 4.62093e-16 4.61774e-16 3.18746e-19 0.000689787 0.000423635 0 1.48201e-161
0.389291 4.41969e-16 4.4171e-16 2.58829e-19 0.000585627 0.000382578 0 1.7569e-154
0.409273 4.22281e-16 4.2207e-16 2.10538e-19 0.000498574 0.000345652 0 9.34462e-148
0.430281 4.0316e-16 4.02989e-16 1.71303e-19 0.000424902 0.000312308 0 2.32201e-141
0.452368 3.84734e-16 3.84595e-16 1.39551e-19 0.000362721 0.000282255 0 2.80174e-135
0.475588 3.66994e-16 3.6688e-16 1.13727e-19 0.000309888 0.000255114 0 1.70252e-129
0.5 3.50069e-16 3.49977e-16 9.27829e-20 0.000265041 0.000230649 0 5.3964e-124
0.525665 3.33908e-16 3.33833e-16 7.57046e-20 0.000226723 0.000208531 0 9.2208e-119
0.552647 3.18512e-16 3.1845e-16 6.17537e-20 0.000193882 0.00018852 0 8.76371e-114
0.581015 3.03642e-16 3.03592e-16 5.04696e-20 0.000166214 0.000170503 0 4.76927e-109
0.610839 2.89511e-16 2.8947e-16 4.12527e-20 0.000142491 0.000154216 0 1.52939e-104
0.642193 2.76066e-16 2.76032e-16 3.37072e-20 0.000122098 0.00013947 0 2.96682e-100
0.675157 2.6329e-16 2.63262e-16 2.7547e-20 0.000104626 0.000126137 0 3.56946e-96
0.709813 2.51173e-16 2.5115e-16 2.25348e-20 8.97185e-05 0.000114109 0 2.72674e-92
0.746248 2.39662e-16 2.39643e-16 1.8433e-20 7.69126e-05 0.000103223 0 1.35203e-88
0.784553 2.28711e-16 2.28696e-16 1.50731e-20 6.59044e-05 9.33685e-05 0 4.44221e-85
0.824824 2.18185e-16 2.18173e-16 1.23304e-20 5.65132e-05 8.4461e-05 0 9.85867e-82
0.867162 2.08116e-16 2.08106e-16 1.00952e-20 4.85075e-05 7.64206e-05 0 1.50605e-78
0.911674 1.98507e-16 1.98498e-16 8.26328e-21 4.16272e-05 6.91406e-05 0 1.61207e-75
0.95847 1.89288e-16 1.89281e-16 6.76304e-21 3.57289e-05 6.25512e-05 0 1.2293e-72
1.00767 1.80535e-16 1.80529e-16 5.53657e-21 3.06676e-05 5.6594e-05 0 6.7892e-70
1.05939 1.72263e-16 1.72259e-16 4.53292e-21 2.63139e-05 5.12059e-05 0 2.75811e-67
1.11377 1.64392e-16 1.64388e-16 3.71019e-21 2.25692e-05 4.63268e-05 0 8.36035e-65
1.17094 1.56868e-16 1.56865e-16 3.03554e-21 1.93509e-05 4.19084e-05 1.74596e-307 1.91697e-62
1.23105 1.49709e-16 1.49707e-16 2.48482e-21 1.65976e-05 3.7917e-05 1.09127e-292 3.37012e-60
1.29424 1.43252e-16 1.4325e-16 2.03325e-21 1.41935e-05 3.43025e-05 1.27718e-278 4.61206e-58
1.36067 1.3719e-16 1.37188e-16 1.66438e-21 1.21319e-05 3.10344e-05 3.0326e-265 4.96425e-56
1.43051 1.31419e-16 1.31417e-16 1.36142e-21 1.03594e-05 2.80729e-05 1.57845e-252 4.24895e-54
1.50394 1.25925e-16 1.25924e-16 1.11439e-21 8.84961e-06 2.5399e-05 1.93953e-240 2.92397e-52
1.58114 1.20664e-16 1.20663e-16 9.1192e-22 7.5575e-06 2.29778e-05 6.03503e-229 1.63447e-50
1.6623 1.15621e-16 1.1562e-16 7.45611e-22 6.44875e-06 2.07833e-05 5.08534e-218 7.49621e-49
1.74762 1.10871e-16 1.1087e-16 6.09779e-22 5.49992e-06 1.87995e-05 1.2378e-207 2.85024e-47
1.83733 1.06532e-16 1.06532e-16 4.98581e-22 4.68009e-06 1.70046e-05 9.25838e-198 9.08011e-46
1.93164 1.02477e-16 1.02477e-16 4.07484e-22 3.97633e-06 1.53791e-05 2.25262e-188 2.4436e-44
2.03079 9.8648e-17 9.86477e-17 3.32984e-22 3.37547e-06 1.39084e-05 1.88258e-179 5.6041e-43
2.13503 9.50191e-17 9.50188e-17 2.72112e-22 2.86376e-06 1.25789e-05 5.69373e-171 1.10572e-41
2.24463 9.16384e-17 9.16382e-17 2.22227e-22 2.42504e-06 1.13748e-05 6.55206e-163 1.89817e-40
2.35984 8.84084e-17 8.84082e-17 1.81396e-22 2.0518e-06 1.02846e-05 3.00513e-155 2.86788e-39
2.48097 8.53547e-17 8.53546e-17 1.47925e-22 1.73306e-06 9.29695e-06 5.74839e-148 3.87171e-38
2.60832 8.25301e-17 8.253e-17 1.20667e-22 1.46209e-06 8.40501e-06 4.78954e-141 4.75438e-37
2.74221 7.98483e-17 7.98482e-17 9.83819e-23 1.23211e-06 7.59764e-06 1.80884e-134 5.40055e-36
2.88297 7.7359e-17 7.7359e-17 8.00756e-23 1.03512e-06 6.86519e-06 3.2208e-128 5.76289e-35
3.03095 7.50064e-17 7.50063e-17 6.51658e-23 8.68803e-07 6.20333e-06 2.80356e-122 5.81773e-34
3.18653 7.29525e-17 7.29524e-17 5.30058e-23 7.2658e-07 5.60475e-06 1.23834e-116 5.56301e-33
3.35009 7.10103e-17 7.10102e-17 4.3058e-23 6.06362e-07 5.06246e-06 2.86295e-111 4.98945e-32
3.52205 6.89021e-17 6.89021e-17 3.49151e-23 5.06734e-07 4.57095e-06 3.56154e-106 4.14137e-31
3.70284 6.68257e-17 6.68257e-17 2.82955e-23 4.23422e-07 4.1269e-06 2.46356e-101 3.16412e-30
3.89291 6.48185e-17 6.48185e-17 2.28849e-23 3.53061e-07 3.72442e-06 9.75611e-97 2.21506e-29
4.09273 6.2917e-17 6.2917e-17 1.84588e-23 2.93383e-07 3.35943e-06 2.27442e-92 1.41843e-28
4.30281 6.09261e-17 6.09261e-17 1.48467e-23 2.43683e-07 3.02864e-06 3.19335e-88 8.28203e-28
4.52368 5.90932e-17 5.90932e-17 1.19095e-23 2.01538e-07 2.72924e-06 2.77873e-84 4.43324e-27
4.75588 5.7503e-17 5.7503e-17 9.51388e-24 1.6545e-07 2.45752e-06 1.5366e-80 2.18429e-26
5 5.63093e-17 5.63093e-17 7.55299e-24 1.34134e-07 2.21049e-06 5.53854e-77 9.96519e-26
5.25665 5.56605e-17 5.56605e-17 5.95784e-24 1.07039e-07 1.98634e-06 1.33325e-73 4.23625e-25
5.52648 5.54808e-17 5.54808e-17 4.66829e-24 8.41425e-08 1.78309e-06 2.18458e-70 1.68182e-24
5.81015 5.60466e-17 5.60466e-17 3.61417e-24 6.44851e-08 1.59793e-06 2.49661e-67 6.28809e-24
6.10839 5.71193e-17 5.71193e-17 2.76235e-24 4.83611e-08 1.42921e-06 2.01714e-64 2.21121e-23
6.42193 5.79673e-17 5.79673e-17 2.07302e-24 3.57619e-08 1.27633e-06 1.15735e-61 7.24186e-23
6.75157 5.81182e-17 5.81182e-17 1.49812e-24 2.57771e-08 1.13456e-06 4.75554e-59 2.19822e-22
7.09813 5.90502e-17 5.90502e-17 1.00329e-24 1.69904e-08 1.00152e-06 1.45842e-56 6.36276e-22
7.46248 7.2761e-17 7.2761e-17 5.6533e-25 7.76968e-09 8.71448e-07 4.05442e-54 2.10759e-21
7.84553 1.41415e-16 1.41415e-16 2.82549e-25 1.99802e-09 7.48157e-07 1.34806e-51 1.04193e-20
8.24824 2.9418e-16 2.9418e-16 3.45275e-25 1.17369e-09 6.43028e-07 3.68678e-49 5.23026e-20
8.67162 4.49007e-16 4.49007e-16 6.21059e-25 1.38318e-09 5.59619e-07 5.75933e-47 1.83201e-19
9.11674 6.61963e-16 6.61963e-16 1.21107e-24 1.82951e-09 4.77054e-07 6.84812e-45 5.90872e-19
9.5847 7.44757e-16 7.44757e-16 1.7226e-24 2.31297e-09 4.27249e-07 4.95447e-43 1.38953e-18
10.0767 6.67272e-16 6.67272e-16 1.65638e-24 2.48232e-09 4.05634e-07 2.30098e-41 2.49163e-18
10.5939 5.59746e-16 5.59746e-16 1.5018e-24 2.683e-09 3.98563e-07 8.15136e-40 4.01362e-18
11.1377 4.40038e-16 4.40038e-16 1.18862e-24 2.70117e-09 4.08374e-07 2.22677e-38 5.8248e-18
11.7094 3.51362e-16 3.51362e-16 9.34065e-25 2.65841e-09 4.11151e-07 5.13255e-37 8.26959e-18
12.3105 2.74368e-16 2.74368e-16 7.16043e-25 2.60979e-09 4.09151e-07 9.69863e-36 1.10783e-17
12.9424 2.14137e-16 2.14137e-16 5.33587e-25 2.4918e-09 3.9169e-07 1.54875e-34 1.43367e-17
13.6067 1.71129e-16 1.71129e-16 3.8211e-25 2.23287e-09 3.5596e-07 2.15889e-33 1.83914e-17
14.3051 1.57177e-16 1.57177e-16 2.62173e-25 1.66801e-09 3.04884e-07 2.97147e-32 2.62907e-17
15.0394 1.74924e-16 1.74924e-16 1.95059e-25 1.11511e-09 2.57635e-07 4.28952e-31 4.42199e-17
15.8114 2.01912e-16 2.01912e-16 1.61656e-25 8.00626e-10 2.21693e-07 5.59814e-30 7.5013e-17
16.623 2.32048e-16 2.32048e-16 1.47808e-25 6.36973e-10 1.91493e-07 6.38343e-29 1.23367e-16
17.4762 2.55888e-16 2.55888e-16 1.44422e-25 5.64394e-10 1.671e-07 6.16809e-28 1.89812e-16
18.3733 2.64135e-16 2.64135e-16 1.42493e-25 5.3947e-10 1.49189e-07 4.95712e-27 2.66868e-16
19.3164 2.51855e-16 2.51855e-16 1.34717e-25 5.349e-10 1.3674e-07 3.2887e-26 3.38752e-16
20.3079 2.25058e-16 2.25058e-16 1.18721e-25 5.27514e-10 1.3e-07 1.8374e-25 3.94319e-16
21.3503 2.01024e-16 2.01024e-16 1.00716e-25 5.01013e-10 1.23435e-07 9.26864e-25 4.49426e-16
22.4463 1.7979e-16 1.7979e-16 8.4829e-26 4.71823e-10 1.16154e-07 4.24994e-24 5.02956e-16
23.5984 1.6118e-16 1.6118e-16 7.05678e-26 4.3782e-10 1.09862e-07 1.78158e-23 5.53813e-16
24.8097 1.45057e-16 1.45057e-16 5.87661e-26 4.05125e-10 1.03638e-07 6.86917e-23 6.01503e-16
26.0832 1.30292e-16 1.30292e-16 4.85448e-26 3.72584e-10 9.77918e-08 2.43216e-22 6.41249e-16
27.4221 1.16853e-16 1.16853e-16 4.00986e-26 3.43153e-10 9.29305e-08 7.94395e-22 6.71916e-16
28.8297 1.05211e-16 1.05211e-16 3.31152e-26 3.14749e-10 8.68305e-08 2.4158e-21 6.96358e-16
30.3095 9.46874e-17 9.46874e-17 2.73334e-26 2.88669e-10 8.1791e-08 6.8357e-21 7.11297e-16
31.8653 8.54106e-17 8.54106e-17 2.24705e-26 2.63088e-10 7.629e-08 1.81092e-20 7.18621e-16
33.5009 7.6907e-17 7.6907e-17 1.85029e-26 2.40588e-10 7.45774e-08 4.48841e-20 7.15744e-16
35.2206 6.98627e-17 6.98627e-17 1.52022e-26 2.17601e-10 6.85332e-08 1.05521e-19 7.10782e-16
37.0284 6.3353e-17 6.3353e-17 1.24942e-26 1.97216e-10 6.43099e-08 2.33537e-19 6.96881e-16
38.9291 5.7321e-17 5.7321e-17 1.02796e-26 1.79334e-10 6.0241e-08 4.87723e-19 6.74687e-16
40.9273 5.17383e-17 5.17383e-17 8.468e-27 1.6367e-10 5.55169e-08 9.63599e-19 6.45315e-16
43.0282 4.6671e-17 4.6671e-17 6.95853e-27 1.49097e-10 5.11221e-08 1.80901e-18 6.1125e-16
45.2368 4.20013e-17 4.20013e-17 5.71612e-27 1.36094e-10 4.81672e-08 3.22935e-18 5.72715e-16
47.5588 3.78637e-17 3.78637e-17 4.69009e-27 1.23868e-10 4.58312e-08 5.51705e-18 5.33255e-16
50 3.40199e-17 3.40199e-17 3.85078e-27 1.13192e-10 4.27356e-08 8.99465e-18 4.91174e-16
52.5665 3.06016e-17 3.06016e-17 3.15747e-27 1.0318e-10 3.96968e-08 1.40872e-17 4.4978e-16
55.2648 2.75074e-17 2.75074e-17 2.5873e-27 9.40586e-11 3.36231e-08 2.11977e-17 4.08902e-16
58.1015 2.47141e-17 2.47141e-17 2.12098e-27 8.58204e-11 3.37728e-08 3.07126e-17 3.69293e-16
61.0839 2.22061e-17 2.22061e-17 1.73736e-27 7.8238e-11 3.37651e-08 4.29471e-17 3.31637e-16
64.2193 1.99391e-17 1.99391e-17 1.42249e-27 7.13418e-11 2.7182e-08 5.80196e-17 2.96024e-16
67.5157 1.79125e-17 1.79125e-17 1.16448e-27 6.50096e-11 2.66999e-08 7.59383e-17 2.63036e-16
70.9813 1.60928e-17 1.60928e-17 9.53432e-28 5.92459e-11 2.44982e-08 9.64025e-17 2.32631e-16
74.6248 1.44677e-17 1.44677e-17 7.80187e-28 5.39259e-11 2.77639e-08 1.18952e-16 2.04963e-16
78.4553 1.30029e-17 1.30029e-17 6.38294e-28 4.90888e-11 2.80875e-08 1.42727e-16 1.79771e-16
82.4824 1.16906e-17 1.16906e-17 5.22408e-28 4.46863e-11 2.33417e-08 1.66866e-16 1.57107e-16
86.7162 1.05186e-17 1.05186e-17 4.27492e-28 4.06416e-11 1.93063e-08 1.90408e-16 1.36886e-16
91.1674 9.46563e-18 9.46563e-18 3.49733e-28 3.69476e-11 1.00008e-08 2.12194e-16 1.18861e-16
95.847 8.51863e-18 8.51863e-18 2.86066e-28 3.35812e-11 1.76581e-08 2.31195e-16 1.02867e-16
100.767 7.67221e-18 7.67221e-18 2.34133e-28 3.0517e-11 5.8224e-09 2.46723e-16 8.88064e-17
105.939 6.92311e-18 6.92311e-18 1.91555e-28 2.76689e-11 1.50511e-08 2.58455e-16 7.65782e-17
111.377 6.23557e-18 6.23557e-18 1.56691e-28 2.51285e-11 -6.73299e-09 2.65041e-16 6.57183e-17
117.094 5.61557e-18 5.61557e-18 1.28208e-28 2.28309e-11 1.69026e-08 2.66784e-16 5.62335e-17
123.105 5.06356e-18 5.06356e-18 1.04926e-28 2.07217e-11 -1.45603e-08 2.64199e-16 4.80491e-17
129.424 4.57362e-18 4.57362e-18 8.58602e-29 1.87729e-11 -1.09529e-08 2.57756e-16 4.10206e-17
136.067 4.11997e-18 4.11997e-18 7.02446e-29 1.70498e-11 9.70873e-09 2.4686e-16 3.48402e-17
143.051 3.72623e-18 3.72623e-18 5.74872e-29 1.54277e-11 -2.01859e-08 2.3384e-16 2.96399e-17
150.394 3.35649e-18 3.35649e-18 4.70487e-29 1.40172e-11 4.9695e-08 2.17496e-16 2.50567e-17
158.114 3.04422e-18 3.04422e-18 3.84955e-29 1.26454e-11 -3.41516e-08 2.00958e-16 2.12812e-17
166.23 2.7491e-18 2.7491e-18 3.1492e-29 1.14554e-11 -4.48522e-09 1.82534e-16 1.79586e-17
174.763 2.47042e-18 2.47042e-18 2.57808e-29 1.04358e-11 1.45056e-08 1.63006e-16 1.50497e-17
183.733 2.23864e-18 2.23864e-18 2.11009e-29 9.42575e-12 2.73912e-08 1.45123e-16 1.26927e-17
193.164 2.02054e-18 2.02054e-18 1.72664e-29 8.54544e-12 -2.03242e-08 1.27308e-16 1.06416e-17
203.079 1.82073e-18 1.82073e-18 1.41316e-29 7.76146e-12 -3.00679e-08 1.10368e-16 8.89082e-18
213.503 1.64756e-18 1.64756e-18 1.15704e-29 7.02276e-12 -4.68453e-09 9.51646e-17 7.4454e-18
224.463 1.48357e-18 1.48357e-18 9.47125e-30 6.38412e-12 -6.94975e-08 8.09175e-17 6.19324e-18
235.984 1.34053e-18 1.34053e-18 7.75113e-30 5.78215e-12 2.58973e-08 6.84548e-17 5.16027e-18
248.097 1.2062e-18 1.2062e-18 6.34881e-30 5.26347e-12 2.44318e-08 5.72072e-17 4.27396e-18
260.832 1.07341e-18 1.07341e-18 5.19777e-30 4.84228e-12 7.28975e-08 4.6926e-17 3.49481e-18
274.221 9.53725e-19 9.53725e-19 4.25293e-30 4.45929e-12 2.12455e-08 3.81591e-17 2.84812e-18
288.297 8.51647e-19 8.51647e-19 3.4783e-30 4.0842e-12 7.40284e-08 3.09784e-17 2.32863e-18
303.095 7.5907e-19 7.5907e-19 2.84649e-30 3.74997e-12 3.69898e-09 2.49447e-17 1.89694e-18
318.653 6.8341e-19 6.8341e-19 2.32881e-30 3.40763e-12 -3.67803e-08 2.01705e-17 1.5581e-18
335.009 6.11321e-19 6.11321e-19 1.90474e-30 3.11578e-12 -1.16733e-07 1.61153e-17 1.26919e-18
352.206 5.45305e-19 5.45305e-19 1.55819e-30 2.85746e-12 1.84493e-09 1.27728e-17 1.02903e-18
370.284 4.92857e-19 4.92857e-19 1.27512e-30 2.5872e-12 2.78174e-08 1.02078e-17 8.43745e-19
389.291 4.42959e-19 4.42959e-19 1.04318e-30 2.35502e-12 2.7484e-07 8.07516e-18 6.86606e-19
409.273 3.99587e-19 3.99587e-19 8.53211e-31 2.13524e-12 -1.30355e-07 6.38434e-18 5.5968e-19
430.282 3.62014e-19 3.62014e-19 6.98193e-31 1.92864e-12 -2.402e-07 5.04895e-18 4.57246e-19
452.368 3.27069e-19 3.27069e-19 5.71311e-31 1.74676e-12 -1.04804e-07 3.96691e-18 3.71751e-19
475.588 2.97837e-19 2.97837e-19 4.67423e-31 1.56939e-12 -1.16768e-07 3.13035e-18 3.03983e-19
500 2.7004e-19 2.7004e-19 3.82364e-31 1.41595e-12 -3.36007e-09 2.45136e-18 2.46948e-19
525.665 2.46725e-19 2.46725e-19 3.13016e-31 1.26869e-12 6.37984e-08 1.92843e-18 2.01709e-19
552.648 2.24923e-19 2.24923e-19 2.56172e-31 1.13893e-12 1.10649e-07 1.50929e-18 1.64018e-19
581.015 2.06021e-19 2.06021e-19 2.09599e-31 1.01737e-12 -1.48196e-07 1.18361e-18 1.33694e-19
610.838 1.88532e-19 1.88532e-19 1.71537e-31 9.09852e-13 1.55062e-07 9.24975e-19 1.0862e-19
642.193 1.73037e-19 1.73037e-19 1.40436e-31 8.11594e-13 -1.38085e-07 7.23243e-19 8.82997e-20
675.157 1.59094e-19 1.59094e-19 1.14944e-31 7.22487e-13 6.46848e-08 5.65218e-19 7.17343e-20
709.813 1.46546e-19 1.46546e-19 9.40549e-32 6.41812e-13 -1.46974e-07 4.41603e-19 5.82445e-20
746.247 1.35105e-19 1.35105e-19 7.70028e-32 5.69949e-13 -2.74715e-08 3.44635e-19 4.72184e-20
784.553 1.24703e-19 1.24703e-19 6.30369e-32 5.05498e-13 -4.64661e-07 2.68769e-19 3.82319e-20
824.824 1.1519e-19 1.1519e-19 5.15945e-32 4.4791e-13 8.59257e-07 2.09395e-19 3.09049e-20
867.162 1.06295e-19 1.06295e-19 4.22257e-32 3.97249e-13 -8.75684e-07 1.62705e-19 2.48973e-20
911.674 9.79781e-20 9.79781e-20 3.45794e-32 3.5293e-13 -1.28982e-07 1.26087e-19 1.99875e-20
958.471 9.04263e-20 9.04263e-20 2.83128e-32 3.13104e-13 -4.93851e-08 9.76911e-20 1.60286e-20
1007.67 8.33354e-20 8.33354e-20 2.31754e-32 2.78097e-13 9.74267e-07 7.54763e-20 1.28055e-20
1059.39 7.7091e-20 7.7091e-20 1.89729e-32 2.4611e-13 1.27882e-06 5.84576e-20 1.02458e-20
1113.77 7.11551e-20 7.11551e-20 1.55358e-32 2.18337e-13 -2.78563e-06 4.512e-20 8.1612e-21
1170.94 6.55067e-20 6.55067e-20 1.27177e-32 1.94143e-13 1.32798e-06 3.46954e-20 6.46975e-21
1231.05 6.02899e-20 6.02899e-20 1.04099e-32 1.72664e-13 1.40267e-07 2.66431e-20 5.1165e-21
1294.24 5.57646e-20 5.57646e-20 8.52503e-33 1.52876e-13 1.54112e-07 2.05404e-20 4.05798e-21
1360.67 5.15082e-20 5.15082e-20 6.98034e-33 1.35519e-13 2.52624e-06 1.57985e-20 3.20754e-21
1430.51 4.74592e-20 4.74592e-20 5.71409e-33 1.204e-13 -1.77182e-06 1.21103e-20 2.52409e-21
1503.94 4.36405e-20 4.36405e-20 4.67723e-33 1.07176e-13 3.45334e-06 9.25644e-21 1.97851e-21
1581.14 4.04665e-20 4.04665e-20 3.83039e-33 9.4656e-14 -3.74186e-07 7.12884e-21 1.56102e-21
1662.3 3.74509e-20 3.74509e-20 3.13602e-33 8.37368e-14 1.79926e-06 5.47549e-21 1.22707e-21
1747.63 3.45817e-20 3.45817e-20 2.56683e-33 7.42251e-14 1.70918e-06 4.19303e-21 9.60735e-22
1837.33 3.18551e-20 3.18551e-20 2.1015e-33 6.59704e-14 -1.22348e-06 3.20101e-21 7.49155e-22
1931.64 2.92639e-20 2.92639e-20 1.72091e-33 5.88065e-14 -1.72136e-06 2.43548e-21 5.81664e-22
2030.79 2.69056e-20 2.69056e-20 1.40882e-33 5.23618e-14 5.82901e-06 1.85343e-21 4.51304e-22
2135.03 2.4901e-20 2.4901e-20 1.15294e-33 4.63009e-14 -1.95927e-06 1.41899e-21 3.51963e-22
2244.63 2.29972e-20 2.29972e-20 9.44108e-34 4.10532e-14 6.34299e-06 1.0835e-21 2.73529e-22
2359.84 2.1186e-20 2.1186e-20 7.72982e-34 3.64855e-14 -4.90739e-06 8.24845e-22 2.11761e-22
2480.97 1.9472e-20 1.9472e-20 6.3271e-34 3.24934e-14 -5.57189e-06 6.26164e-22 1.63349e-22
2608.32 1.8013e-20 1.8013e-20 5.17904e-34 2.87518e-14 8.02089e-06 4.7821e-22 1.26671e-22
2742.21 1.6634e-20 1.6634e-20 4.24144e-34 2.54986e-14 8.37163e-07 3.64416e-22 9.79412e-23
2882.96 1.53223e-20 1.53223e-20 3.4727e-34 2.26644e-14 -4.42687e-07 2.76891e-22 7.54545e-23
3030.95 1.41081e-20 1.41081e-20 2.84244e-34 2.01477e-14 -1.36134e-05 2.10217e-22 5.80445e-23
3186.53 1.30808e-20 1.30808e-20 2.32704e-34 1.77897e-14 -9.52453e-06 1.60653e-22 4.49184e-23
3350.09 1.21043e-20 1.21043e-20 1.90548e-34 1.57421e-14 5.7422e-06 1.22489e-22 3.46583e-23
