# 4.84839e-07 1 25 : grain size, compostion index, size index
# This grain was stochastically heated: Yes
# Heating and cooling timescale: 6725 3111.38
# Ratio of heating to cooling to determine stochastic cutoff: 100
# Equilibrium emission is recorded even for those grains in the stochastic regime.
# Emission spectrum was computed for: 
# Type: IRSF
# Scale: 1
# Temperature: -1
# Wavelength  CExt  CAbs  CSca  Albedo G EqEmission StEmission
0.05 4.25784e-13 3.961e-13 2.96842e-14 0.0697165 0.0566068 0 0
0.0525665 4.89895e-13 4.57771e-13 3.21233e-14 0.0655718 0.0504731 0 0
0.0552647 5.62778e-13 5.28075e-13 3.47026e-14 0.0616631 0.0449455 0 0
0.0581015 7.20927e-13 6.84076e-13 3.68506e-14 0.0511156 0.0399467 0 0
0.0610839 1.09478e-12 1.05518e-12 3.95993e-14 0.0361709 0.0351777 0 0
0.0642193 1.37849e-12 1.33355e-12 4.49439e-14 0.0326037 0.0305089 0 0
0.0675157 1.64972e-12 1.59513e-12 5.45871e-14 0.0330888 0.0257674 0 0
0.0709813 1.89301e-12 1.83272e-12 6.02811e-14 0.0318441 0.0213963 0 0
0.0746248 1.76947e-12 1.71225e-12 5.72198e-14 0.0323372 0.0181047 0 0
0.0784553 1.39328e-12 1.34552e-12 4.77541e-14 0.0342747 0.0158689 0 0
0.0824824 1.10316e-12 1.06803e-12 3.51353e-14 0.0318496 0.0145185 0 0
0.0867162 9.21994e-13 8.9469e-13 2.73036e-14 0.0296137 0.0136651 0 0
0.0911674 8.03822e-13 7.80676e-13 2.31455e-14 0.0287944 0.0130159 0 0
0.095847 7.17414e-13 6.98661e-13 1.87532e-14 0.02614 0.0134759 0 0
0.100767 6.26237e-13 6.13325e-13 1.29117e-14 0.0206179 0.0156628 0 0
0.105939 5.43702e-13 5.34738e-13 8.96383e-15 0.0164867 0.0170028 0 0
0.111377 4.6435e-13 4.58916e-13 5.43441e-15 0.0117033 0.0194198 0 0
0.117094 3.92327e-13 3.88981e-13 3.34524e-15 0.00852667 0.0181106 0 0
0.123105 3.29153e-13 3.26991e-13 2.16169e-15 0.00656743 0.0155857 0 0
0.129424 2.7646e-13 2.75078e-13 1.38109e-15 0.00499561 0.0131133 0 0
0.136067 2.50388e-13 2.49498e-13 8.90349e-16 0.00355588 0.0111008 0 0
0.143051 2.27071e-13 2.26488e-13 5.8269e-16 0.00256611 0.00947686 0 0
0.150394 2.14395e-13 2.13999e-13 3.95554e-16 0.00184498 0.00809733 0 0
0.158114 2.11883e-13 2.11585e-13 2.97875e-16 0.00140585 0.00694075 0 0
0.16623 2.20343e-13 2.20069e-13 2.7367e-16 0.00124202 0.00597305 0 0
0.174762 2.41511e-13 2.41183e-13 3.27502e-16 0.00135606 0.00514141 0 3.72283e-319
0.183733 2.79197e-13 2.78732e-13 4.64851e-16 0.00166496 0.0043837 0 6.13771e-304
0.193164 3.45782e-13 3.45045e-13 7.36875e-16 0.00213104 0.00365114 0 1.23805e-289
0.203079 4.53038e-13 4.51906e-13 1.13258e-15 0.00249996 0.00292828 0 5.30035e-276
0.213503 5.5811e-13 5.56697e-13 1.41294e-15 0.00253166 0.00225163 0 4.63173e-263
0.224463 5.36036e-13 5.34846e-13 1.19047e-15 0.00222088 0.00166887 0 7.38082e-251
0.235984 4.14579e-13 4.1377e-13 8.08879e-16 0.00195109 0.0011938 0 2.37767e-239
0.248097 3.1358e-13 3.13058e-13 5.21743e-16 0.00166383 0.000911509 0 2.01215e-228
0.260832 2.51424e-13 2.51067e-13 3.57023e-16 0.00142 0.000936388 0 5.17017e-218
0.274221 2.14272e-13 2.14015e-13 2.56792e-16 0.00119844 0.00124093 0 4.29951e-208
0.288297 1.91132e-13 1.90941e-13 1.91003e-16 0.000999325 0.00166921 0 1.20793e-198
0.303095 1.73518e-13 1.73371e-13 1.46972e-16 0.000847013 0.00187832 0 1.17817e-189
0.318653 1.521e-13 1.51986e-13 1.1431e-16 0.000751544 0.00196554 0 3.98971e-181
0.335009 1.34041e-13 1.33951e-13 8.99516e-17 0.000671074 0.00193691 0 5.13533e-173
0.352205 1.17406e-13 1.17334e-13 7.16692e-17 0.000610439 0.00184038 0 2.60526e-165
0.370284 1.02161e-13 1.02103e-13 5.76148e-17 0.000563963 0.00172217 0 5.44858e-158
0.389291 8.8283e-14 8.82363e-14 4.66773e-17 0.000528724 0.00160674 0 4.90366e-151
0.409273 7.5772e-14 7.57341e-14 3.79317e-17 0.000500604 0.00149436 0 1.97905e-144
0.430281 6.45548e-14 6.45239e-14 3.08569e-17 0.000477995 0.00138739 0 3.72275e-138
0.452368 5.45714e-14 5.45463e-14 2.5099e-17 0.000459929 0.00127663 7.75931e-297 3.38677e-132
0.475588 4.57646e-14 4.57441e-14 2.04299e-17 0.000446414 0.0011704 2.16072e-282 1.54372e-126
0.5 3.80804e-14 3.80638e-14 1.66738e-17 0.000437857 0.00106838 1.1526e-268 3.64757e-121
0.525665 3.14155e-14 3.14019e-14 1.36233e-17 0.000433648 0.00097184 1.27534e-255 4.61098e-116
0.552647 2.56887e-14 2.56776e-14 1.11353e-17 0.000433471 0.000883863 3.15825e-243 3.21505e-111
0.581015 2.08262e-14 2.0817e-14 9.14631e-18 0.000439175 0.000802048 1.8831e-231 1.27382e-106
0.610839 1.6738e-14 1.67305e-14 7.51497e-18 0.000448977 0.000727926 2.89639e-220 2.94926e-102
0.642193 1.3329e-14 1.33228e-14 6.17363e-18 0.000463173 0.000660671 1.22654e-209 4.09675e-98
0.675157 1.05168e-14 1.05117e-14 5.07762e-18 0.000482812 0.000599907 1.52237e-199 3.50321e-94
0.709813 8.23113e-15 8.22695e-15 4.18334e-18 0.000508234 0.000545396 5.88421e-190 1.89238e-90
0.746248 6.38659e-15 6.38314e-15 3.4472e-18 0.000539756 0.000496688 7.49124e-181 6.60858e-87
0.784553 4.91265e-15 4.90981e-15 2.83975e-18 0.000578049 0.000452448 3.3143e-172 1.52622e-83
0.824824 3.74776e-15 3.74542e-15 2.33885e-18 0.000624065 0.000412742 5.36563e-164 2.3835e-80
0.867162 2.83702e-15 2.8351e-15 1.92703e-18 0.000679242 0.000377014 3.33914e-156 2.57209e-77
0.911674 2.12205e-15 2.12046e-15 1.58689e-18 0.00074781 0.00034469 8.33085e-149 1.94887e-74
0.95847 1.54823e-15 1.54693e-15 1.30571e-18 0.000843353 0.000315719 8.59636e-142 1.04364e-71
1.00767 1.05691e-15 1.05583e-15 1.07444e-18 0.00101659 0.000289411 3.66936e-135 3.86003e-69
1.05939 7.28146e-16 7.27262e-16 8.83769e-19 0.00121372 0.000265547 7.27311e-129 1.08273e-66
1.11377 5.61413e-16 5.60687e-16 7.26713e-19 0.00129443 0.000243821 7.71104e-123 2.5979e-64
1.17094 4.29634e-16 4.29037e-16 5.97312e-19 0.00139028 0.000223537 4.02018e-117 4.80376e-62
1.23105 3.14432e-16 3.13941e-16 4.91182e-19 0.00156212 0.000204965 1.02767e-111 6.69303e-60
1.29424 2.41873e-16 2.41469e-16 4.0404e-19 0.00167046 0.00018788 1.46272e-106 7.82849e-58
1.36067 1.91893e-16 1.9156e-16 3.32167e-19 0.001731 0.000172316 1.17333e-101 7.63543e-56
1.43051 1.52208e-16 1.51935e-16 2.72953e-19 0.00179329 0.000158136 5.29574e-97 6.08621e-54
1.50394 1.19773e-16 1.19549e-16 2.24377e-19 0.00187335 0.000145027 1.37247e-92 3.97301e-52
1.58114 9.32045e-17 9.30201e-17 1.84449e-19 0.00197897 0.000132806 2.0909e-88 2.13594e-50
1.6623 7.16696e-17 7.15179e-17 1.51642e-19 0.00211585 0.000121469 1.91923e-84 9.52566e-49
1.74762 5.45013e-17 5.43766e-17 1.24685e-19 0.00228774 0.000111253 1.08823e-80 3.55285e-47
1.83733 4.10129e-17 4.09104e-17 1.02509e-19 0.00249943 0.000101915 3.90256e-77 1.11651e-45
1.93164 3.05672e-17 3.0483e-17 8.42451e-20 0.00275606 9.33413e-05 9.05511e-74 2.9781e-44
2.03079 2.26312e-17 2.2562e-17 6.92194e-20 0.00305858 8.53847e-05 1.3921e-70 6.80389e-43
2.13503 1.67654e-17 1.67085e-17 5.69182e-20 0.00339497 7.81064e-05 1.45688e-67 1.34896e-41
2.24463 1.25158e-17 1.2469e-17 4.67818e-20 0.00373782 7.14735e-05 1.06507e-64 2.35047e-40
2.35984 9.53706e-18 9.49862e-18 3.84361e-20 0.00403018 6.53592e-05 5.60957e-62 3.66541e-39
2.48097 7.55364e-18 7.52207e-18 3.15737e-20 0.00417993 5.97115e-05 2.20484e-59 5.23586e-38
2.60832 6.34934e-18 6.32338e-18 2.59584e-20 0.00408836 5.45004e-05 6.71169e-57 7.02906e-37
2.74221 5.75454e-18 5.73321e-18 2.13345e-20 0.00370742 4.97577e-05 1.63262e-54 9.05155e-36
2.88297 5.70726e-18 5.68974e-18 1.75207e-20 0.0030699 4.54661e-05 3.26815e-52 1.13962e-34
3.03095 6.44863e-18 6.43424e-18 1.43912e-20 0.00223167 4.15686e-05 5.68322e-50 1.46657e-33
3.18653 1.23811e-17 1.23692e-17 1.18228e-20 0.000954907 3.79524e-05 1.29791e-47 2.88973e-32
3.35009 4.3439e-17 4.34293e-17 9.70949e-21 0.00022352 3.46273e-05 4.23536e-45 9.40408e-31
3.52205 9.13239e-18 9.12442e-18 7.97015e-21 0.000872734 3.16017e-05 6.54804e-44 1.66251e-30
3.70284 9.1472e-18 9.14066e-18 6.54525e-21 0.000715546 2.88354e-05 3.86571e-42 1.27709e-29
3.89291 1.04352e-17 1.04299e-17 5.37314e-21 0.000514904 2.62819e-05 2.10444e-40 1.02209e-28
4.09273 1.24117e-17 1.24073e-17 4.41031e-21 0.000355335 2.38717e-05 9.76959e-39 7.82863e-28
4.30281 1.52098e-17 1.52062e-17 3.61929e-21 0.000237958 2.16924e-05 3.85974e-37 5.69058e-27
4.52368 1.93306e-17 1.93276e-17 2.97104e-21 0.000153696 1.97093e-05 1.31858e-35 3.9646e-26
4.75588 2.61113e-17 2.61088e-17 2.43796e-21 9.33682e-05 1.78912e-05 4.02725e-34 2.72144e-25
5 4.18449e-17 4.1843e-17 1.99995e-21 4.77942e-05 1.61519e-05 1.23797e-32 2.06068e-24
5.25665 1.46952e-16 1.46951e-16 1.641e-21 1.11669e-05 1.45922e-05 7.13162e-31 3.18806e-23
5.52648 1.21916e-16 1.21915e-16 1.34639e-21 1.10436e-05 1.3197e-05 8.36305e-30 1.08916e-22
5.81015 2.20845e-16 2.20844e-16 1.10397e-21 4.99885e-06 1.19231e-05 1.85878e-28 7.61388e-22
6.10839 7.79409e-16 7.79409e-16 9.04957e-22 1.16108e-06 1.07291e-05 7.03501e-27 9.74041e-21
6.42193 5.11669e-16 5.11668e-16 7.41817e-22 1.4498e-06 9.75157e-06 4.35755e-26 2.18216e-20
6.75157 4.20168e-16 4.20168e-16 6.0817e-22 1.44744e-06 8.70661e-06 2.98896e-25 5.76935e-20
7.09813 4.91767e-16 4.91767e-16 4.98321e-22 1.01333e-06 7.79556e-06 2.60254e-24 2.05546e-19
7.46248 1.21411e-15 1.21411e-15 4.08191e-22 3.36205e-07 6.95672e-06 4.28121e-23 1.46341e-18
7.84553 1.55184e-15 1.55184e-15 3.34485e-22 2.15541e-07 6.14913e-06 3.28332e-22 5.12029e-18
8.24824 6.95282e-16 6.95282e-16 2.73997e-22 3.9408e-07 5.39662e-06 7.98873e-22 5.97268e-18
8.67162 5.60101e-16 5.601e-16 2.24298e-22 4.00459e-07 4.74459e-06 3.17874e-21 1.19369e-17
9.11674 1.52384e-16 1.52384e-16 1.83613e-22 1.20493e-06 4.16226e-06 3.90318e-21 7.69197e-18
9.5847 8.64946e-17 8.64944e-17 1.50246e-22 1.73705e-06 3.63771e-06 9.17706e-21 9.89059e-18
10.0767 6.46795e-17 6.46794e-17 1.22889e-22 1.89997e-06 3.14776e-06 2.61979e-20 1.60533e-17
10.5939 6.17067e-17 6.17066e-17 1.00438e-22 1.62767e-06 2.67828e-06 8.82903e-20 3.1907e-17
11.1377 1.91118e-16 1.91118e-16 8.20264e-23 4.29192e-07 2.24314e-06 8.97213e-19 1.97941e-16
11.7094 1.03526e-16 1.03526e-16 6.76142e-23 6.53116e-07 1.85766e-06 1.48645e-18 2.06823e-16
12.3105 1.01633e-16 1.01633e-16 5.49773e-23 5.40939e-07 1.45259e-06 4.17482e-18 3.77776e-16
12.9424 8.46519e-17 8.46519e-17 4.48917e-23 5.30309e-07 1.05827e-06 9.33557e-18 5.65556e-16
13.6067 6.7134e-17 6.7134e-17 3.66573e-23 5.46032e-07 7.29235e-07 1.87113e-17 7.79936e-16
14.3051 5.229e-17 5.229e-17 2.99094e-23 5.71991e-07 4.44049e-07 3.4775e-17 1.02343e-15
15.0394 4.30115e-17 4.30115e-17 2.43894e-23 5.67042e-07 1.87273e-07 6.46216e-17 1.3759e-15
15.8114 4.34037e-17 4.34036e-17 1.98875e-23 4.58199e-07 -5.32361e-08 1.39853e-16 2.2044e-15
16.623 5.81081e-17 5.81081e-17 1.62137e-23 2.79026e-07 -2.95409e-07 3.82167e-16 4.55718e-15
17.4762 4.98976e-17 4.98976e-17 1.32116e-23 2.64774e-07 -5.28439e-07 6.39039e-16 5.88407e-15
18.3733 3.37179e-17 3.37179e-17 1.07596e-23 3.19107e-07 -7.48871e-07 8.04092e-16 5.82811e-15
19.3164 2.84694e-17 2.84694e-17 8.77392e-24 3.08188e-07 -9.7397e-07 1.21151e-15 7.03884e-15
20.3079 2.41781e-17 2.41781e-17 7.15927e-24 2.96105e-07 -1.22877e-06 1.76316e-15 8.35276e-15
21.3503 2.08561e-17 2.08561e-17 5.84801e-24 2.80398e-07 -1.41579e-06 2.50781e-15 9.84383e-15
22.4463 1.80953e-17 1.80953e-17 4.79236e-24 2.6484e-07 -1.56419e-06 3.45867e-15 1.14197e-14
23.5984 1.57391e-17 1.57391e-17 3.95074e-24 2.51015e-07 -1.70029e-06 4.61815e-15 1.30086e-14
24.8097 1.37117e-17 1.37117e-17 3.28507e-24 2.39581e-07 -1.88701e-06 5.97491e-15 1.45503e-14
26.0832 1.19666e-17 1.19666e-17 2.76691e-24 2.31219e-07 -2.01042e-06 7.50359e-15 1.59946e-14
27.4221 1.04678e-17 1.04678e-17 2.3627e-24 2.25711e-07 -2.10906e-06 9.16626e-15 1.73023e-14
28.8297 9.17751e-18 9.17751e-18 2.05154e-24 2.2354e-07 -2.14725e-06 1.09071e-14 1.84306e-14
30.3095 8.06353e-18 8.06352e-18 1.80333e-24 2.2364e-07 -2.16438e-06 1.26584e-14 1.9343e-14
31.8653 7.10001e-18 7.1e-18 1.58444e-24 2.2316e-07 -2.1284e-06 1.43476e-14 2.00142e-14
33.5009 6.26751e-18 6.26751e-18 1.38972e-24 2.21735e-07 -2.08953e-06 1.59083e-14 2.04367e-14
35.2206 5.54346e-18 5.54346e-18 1.19015e-24 2.14694e-07 -1.97085e-06 1.72657e-14 2.05944e-14
37.0284 4.91211e-18 4.91211e-18 1.0067e-24 2.04943e-07 -1.85305e-06 1.83618e-14 2.04904e-14
38.9291 4.36084e-18 4.36084e-18 8.36299e-25 1.91775e-07 -1.6928e-06 1.91558e-14 2.014e-14
40.9273 3.87862e-18 3.87862e-18 6.88042e-25 1.77393e-07 -1.52208e-06 1.96238e-14 1.95657e-14
43.0282 3.45472e-18 3.45472e-18 5.61316e-25 1.62478e-07 -1.29506e-06 1.97525e-14 1.87888e-14
45.2368 3.08125e-18 3.08125e-18 4.56392e-25 1.48119e-07 -1.04911e-06 1.95515e-14 1.78415e-14
47.5588 2.75222e-18 2.75222e-18 3.70158e-25 1.34494e-07 -6.28131e-07 1.90509e-14 1.67633e-14
50 2.46131e-18 2.46131e-18 3.00269e-25 1.21996e-07 -2.25998e-07 1.82848e-14 1.5587e-14
52.5665 2.20332e-18 2.20332e-18 2.4343e-25 1.10483e-07 2.18113e-07 1.72969e-14 1.43463e-14
55.2648 1.97416e-18 1.97416e-18 1.97389e-25 9.99862e-08 6.2048e-07 1.61386e-14 1.30749e-14
58.1015 1.77088e-18 1.77088e-18 1.60277e-25 9.05068e-08 9.69395e-07 1.48668e-14 1.18072e-14
61.0839 1.58968e-18 1.58968e-18 1.30194e-25 8.18997e-08 1.25171e-06 1.35256e-14 1.05645e-14
64.2193 1.42794e-18 1.42794e-18 1.05802e-25 7.4094e-08 1.47141e-06 1.21605e-14 9.3688e-15
67.5157 1.28358e-18 1.28358e-18 8.6046e-26 6.70362e-08 1.6199e-06 1.08127e-14 8.23854e-15
70.9813 1.15464e-18 1.15464e-18 7.00479e-26 6.06663e-08 1.70884e-06 9.51434e-15 7.1864e-15
74.6248 1.03914e-18 1.03914e-18 5.704e-26 5.48915e-08 1.73977e-06 8.28792e-15 6.21886e-15
78.4553 9.3558e-19 9.3558e-19 4.64579e-26 4.96568e-08 1.72702e-06 7.15103e-15 5.34048e-15
82.4824 8.42848e-19 8.42848e-19 3.7873e-26 4.49346e-08 1.66438e-06 6.11612e-15 4.55356e-15
86.7162 7.59615e-19 7.59615e-19 3.08868e-26 4.06611e-08 1.54569e-06 5.18699e-15 3.85551e-15
91.1674 6.848e-19 6.848e-19 2.51917e-26 3.67869e-08 1.39886e-06 4.36376e-15 3.24238e-15
95.847 6.17519e-19 6.17519e-19 2.05488e-26 3.32764e-08 1.24351e-06 3.64347e-15 2.70911e-15
100.767 5.57137e-19 5.57137e-19 1.67769e-26 3.01127e-08 1.09086e-06 3.02127e-15 2.25014e-15
105.939 5.02753e-19 5.02753e-19 1.3696e-26 2.7242e-08 9.05666e-07 2.48846e-15 1.8578e-15
111.377 4.53752e-19 4.53752e-19 1.11795e-26 2.46379e-08 7.21465e-07 2.03662e-15 1.52514e-15
117.094 4.09636e-19 4.09636e-19 9.12919e-27 2.22861e-08 5.49775e-07 1.6571e-15 1.2454e-15
123.105 3.69923e-19 3.69923e-19 7.46103e-27 2.01691e-08 3.80745e-07 1.34098e-15 1.01188e-15
129.424 3.34093e-19 3.34093e-19 6.10304e-27 1.82675e-08 2.30936e-07 1.07943e-15 8.18085e-16
136.067 3.01759e-19 3.01759e-19 4.99621e-27 1.6557e-08 1.10377e-07 8.64579e-16 6.58284e-16
143.051 2.72634e-19 2.72634e-19 4.09604e-27 1.5024e-08 1.81091e-08 6.89416e-16 5.27443e-16
150.394 2.46353e-19 2.46353e-19 3.35709e-27 1.36272e-08 -8.77482e-08 5.4737e-16 4.20837e-16
158.114 2.22615e-19 2.22615e-19 2.7474e-27 1.23415e-08 -1.52695e-07 4.32798e-16 3.34416e-16
166.23 2.01174e-19 2.01174e-19 2.24699e-27 1.11694e-08 -2.2045e-07 3.40887e-16 2.64723e-16
174.763 1.81853e-19 1.81853e-19 1.83848e-27 1.01097e-08 -2.8696e-07 2.67591e-16 2.08845e-16
183.733 1.64389e-19 1.64389e-19 1.50352e-27 9.14608e-09 -3.07755e-07 2.09334e-16 1.6419e-16
193.164 1.48602e-19 1.48602e-19 1.22928e-27 8.27231e-09 -3.49764e-07 1.63233e-16 1.28657e-16
203.079 1.34347e-19 1.34347e-19 1.00528e-27 7.48271e-09 -3.85409e-07 1.26914e-16 1.00511e-16
213.503 1.21479e-19 1.21479e-19 8.22426e-28 6.77008e-09 -3.90829e-07 9.84121e-17 7.83039e-17
224.463 1.09842e-19 1.09842e-19 6.72693e-28 6.12419e-09 -4.11047e-07 7.61064e-17 6.08319e-17
235.984 9.93164e-20 9.93164e-20 5.50106e-28 5.53892e-09 -4.53142e-07 5.87077e-17 4.71327e-17
248.097 8.98175e-20 8.98175e-20 4.50103e-28 5.01131e-09 -4.72074e-07 4.51892e-17 3.64347e-17
260.832 8.12295e-20 8.12295e-20 3.68301e-28 4.53408e-09 -4.25953e-07 3.47081e-17 2.80997e-17
274.221 7.34597e-20 7.34597e-20 3.01296e-28 4.10152e-09 -4.60725e-07 2.66018e-17 2.16224e-17
288.297 6.64325e-20 6.64325e-20 2.4645e-28 3.70977e-09 -4.53761e-07 2.03489e-17 1.66032e-17
303.095 6.00907e-20 6.00907e-20 2.01722e-28 3.35695e-09 -4.48131e-07 1.55408e-17 1.27266e-17
318.653 5.43515e-20 5.43515e-20 1.65075e-28 3.03717e-09 -4.47955e-07 1.18478e-17 9.73645e-18
335.009 4.91577e-20 4.91577e-20 1.35052e-28 2.74731e-09 -4.56836e-07 9.01725e-18 7.43528e-18
352.206 4.44636e-20 4.44636e-20 1.10511e-28 2.48542e-09 -3.74083e-07 6.85304e-18 5.66893e-18
370.284 4.02221e-20 4.02221e-20 9.04585e-29 2.24898e-09 -3.75142e-07 5.20139e-18 4.31589e-18
389.291 3.6383e-20 3.6383e-20 7.40261e-29 2.03463e-09 -4.45649e-07 3.94225e-18 3.28071e-18
409.273 3.29082e-20 3.29082e-20 6.05635e-29 1.84037e-09 -4.22176e-07 2.98395e-18 2.49017e-18
430.282 2.97703e-20 2.97703e-20 4.95755e-29 1.66526e-09 -3.2487e-07 2.25627e-18 1.88793e-18
452.368 2.69316e-20 2.69316e-20 4.05792e-29 1.50675e-09 -3.71555e-07 1.70414e-18 1.42955e-18
475.588 2.43619e-20 2.43619e-20 3.3207e-29 1.36307e-09 -3.19035e-07 1.28566e-18 1.08111e-18
500 2.20367e-20 2.20367e-20 2.71705e-29 1.23296e-09 -2.47728e-07 9.68951e-19 8.16666e-19
525.665 1.99372e-20 1.99372e-20 2.22453e-29 1.11577e-09 -1.78169e-07 7.29709e-19 6.16371e-19
552.648 1.80365e-20 1.80365e-20 1.82079e-29 1.0095e-09 -2.61188e-07 5.49008e-19 4.64702e-19
581.015 1.63158e-20 1.63158e-20 1.48995e-29 9.13195e-10 -2.31666e-07 4.12678e-19 3.5e-19
610.838 1.47602e-20 1.47602e-20 1.21946e-29 8.26179e-10 -1.83965e-07 3.09978e-19 2.63393e-19
642.193 1.33541e-20 1.33541e-20 9.98332e-30 7.47586e-10 -2.35852e-07 2.32682e-19 1.98067e-19
675.157 1.2081e-20 1.2081e-20 8.17082e-30 6.76338e-10 -1.93864e-07 1.74522e-19 1.48812e-19
709.813 1.09284e-20 1.09284e-20 6.68575e-30 6.11776e-10 -8.77534e-08 1.30803e-19 1.11714e-19
746.247 9.88751e-21 9.88751e-21 5.47353e-30 5.5358e-10 -9.49962e-08 9.79909e-20 8.38185e-20
784.553 8.94554e-21 8.94554e-21 4.48072e-30 5.00889e-10 -2.21217e-07 7.3364e-20 6.28449e-20
824.824 8.09269e-21 8.09269e-21 3.66703e-30 4.53129e-10 -2.68822e-07 5.48912e-20 4.70859e-20
867.162 7.32089e-21 7.32089e-21 3.00077e-30 4.09891e-10 -1.00389e-07 4.10465e-20 3.52562e-20
911.674 6.62388e-21 6.62388e-21 2.45695e-30 3.70924e-10 -1.5703e-07 3.06837e-20 2.63881e-20
958.471 5.99274e-21 5.99274e-21 2.01114e-30 3.35596e-10 4.36873e-08 2.29242e-20 1.97383e-20
1007.67 5.42133e-21 5.42133e-21 1.64577e-30 3.03573e-10 -5.08096e-07 1.7118e-20 1.47557e-20
1059.39 4.90474e-21 4.90474e-21 1.34712e-30 2.74657e-10 -1.01155e-07 1.27778e-20 1.10262e-20
1113.77 4.43769e-21 4.43769e-21 1.10291e-30 2.48533e-10 -2.79794e-07 9.53485e-21 8.23618e-21
1170.94 4.01479e-21 4.01479e-21 9.02699e-31 2.24844e-10 -1.35238e-07 7.11161e-21 6.14892e-21
1231.05 3.63192e-21 3.63192e-21 7.38669e-31 2.03383e-10 3.88125e-08 5.30193e-21 4.58842e-21
1294.24 3.2861e-21 3.2861e-21 6.04775e-31 1.8404e-10 7.46975e-08 3.95204e-21 3.42318e-21
1360.67 2.97313e-21 2.97313e-21 4.95084e-31 1.66519e-10 3.6326e-07 2.94479e-21 2.55283e-21
1430.51 2.68974e-21 2.68974e-21 4.05183e-31 1.5064e-10 -4.41753e-08 2.19339e-21 1.90294e-21
1503.94 2.4333e-21 2.4333e-21 3.31581e-31 1.36268e-10 2.92602e-07 1.63321e-21 1.41799e-21
1581.14 2.20168e-21 2.20168e-21 2.715e-31 1.23315e-10 6.27278e-07 1.21596e-21 1.05647e-21
1662.3 1.99194e-21 1.99194e-21 2.22242e-31 1.1157e-10 -5.18749e-08 9.0499e-22 7.86821e-22
1747.63 1.80204e-21 1.80204e-21 1.8187e-31 1.00924e-10 -1.4503e-06 6.73325e-22 5.8578e-22
1837.33 1.63036e-21 1.63036e-21 1.4887e-31 9.13107e-11 4.53752e-07 5.00884e-22 4.36025e-22
1931.64 1.47513e-21 1.47513e-21 1.21884e-31 8.26256e-11 1.00189e-06 3.72545e-22 3.24492e-22
2030.79 1.33457e-21 1.33457e-21 9.97611e-32 7.47512e-11 -4.68356e-07 2.77008e-22 2.4141e-22
2135.03 1.20731e-21 1.20731e-21 8.16322e-32 6.76149e-11 3.64426e-07 2.05912e-22 1.79544e-22
2244.63 1.09238e-21 1.09238e-21 6.68375e-32 6.11855e-11 1.51458e-07 1.53061e-22 1.33527e-22
2359.84 9.88344e-22 9.88344e-22 5.47162e-32 5.53615e-11 -4.0824e-07 1.1375e-22 9.92799e-23
2480.97 8.9415e-22 8.9415e-22 4.47808e-32 5.0082e-11 1.2066e-06 8.45141e-23 7.37959e-23
2608.32 8.08914e-22 8.08914e-22 3.66475e-32 4.53046e-11 1.10384e-06 6.27807e-23 5.4842e-23
2742.21 7.31917e-22 7.31917e-22 3.00067e-32 4.09974e-11 -1.43986e-06 4.66362e-23 4.07554e-23
2882.96 6.62195e-22 6.62195e-22 2.45627e-32 3.70928e-11 -2.84754e-07 3.46354e-23 3.02796e-23
3030.95 5.99067e-22 5.99067e-22 2.01008e-32 3.35535e-11 1.31347e-06 2.5717e-23 2.24909e-23
