# 1.2426e-06 3 34 : grain size, compostion index, size index
# This grain was stochastically heated: Yes
# Heating and cooling timescale: 371.302 1526.79
# Ratio of heating to cooling to determine stochastic cutoff: 100
# Equilibrium emission is recorded even for those grains in the stochastic regime.
# Emission spectrum was computed for: 
# Type: IRSF
# Scale: 1
# Temperature: -1
# Wavelength  CExt  CAbs  CSca  Albedo G EqEmission StEmission
0.05 5.78271e-12 3.74097e-12 2.04173e-12 0.353076 0.412569 0 0
0.0525665 6.34164e-12 4.14842e-12 2.19322e-12 0.345845 0.384713 0 0
0.0552647 6.95101e-12 4.60459e-12 2.34642e-12 0.337566 0.358193 0 0
0.0581015 7.73958e-12 5.27771e-12 2.46187e-12 0.318088 0.331741 0 0
0.0610839 8.84728e-12 6.24316e-12 2.60413e-12 0.294342 0.304268 0 0
0.0642193 9.98996e-12 7.07946e-12 2.9105e-12 0.291342 0.277927 0 0
0.0675157 1.16996e-11 8.26473e-12 3.43484e-12 0.293587 0.253415 0 0
0.0709813 1.3441e-11 9.52724e-12 3.91377e-12 0.291182 0.224844 0 0
0.0746248 1.42632e-11 1.00653e-11 4.19789e-12 0.294316 0.191774 0 0
0.0784553 1.42681e-11 9.98601e-12 4.2821e-12 0.300117 0.160978 0 0
0.0824824 1.39537e-11 9.80469e-12 4.14897e-12 0.297339 0.137096 0 0
0.0867162 1.37391e-11 9.76965e-12 3.96943e-12 0.288915 0.1203 0 0
0.0911674 1.36613e-11 9.74125e-12 3.92001e-12 0.286944 0.105999 0 0
0.095847 1.31352e-11 9.33047e-12 3.80475e-12 0.28966 0.0978405 0 0
0.100767 1.13794e-11 8.15659e-12 3.22281e-12 0.283215 0.1034 0 0
0.105939 8.95203e-12 6.36841e-12 2.58362e-12 0.288607 0.112983 0 0
0.111377 6.27118e-12 4.53675e-12 1.73444e-12 0.276572 0.116737 0 0
0.117094 4.29933e-12 3.23718e-12 1.06215e-12 0.24705 0.119522 0 0
0.123105 2.98732e-12 2.31333e-12 6.73991e-13 0.225617 0.10433 0 0
0.129424 2.20463e-12 1.78411e-12 4.20526e-13 0.190747 0.0869464 0 0
0.136067 1.83935e-12 1.57337e-12 2.65978e-13 0.144605 0.0731962 0 0
0.143051 1.68253e-12 1.51087e-12 1.71653e-13 0.102021 0.0624231 0 0
0.150394 1.72469e-12 1.61002e-12 1.14676e-13 0.0664908 0.0534312 0 0
0.158114 1.91382e-12 1.82936e-12 8.44666e-14 0.044135 0.0459604 0 0
0.16623 2.24182e-12 2.16654e-12 7.52859e-14 0.0335825 0.0397476 0 0
0.174762 2.77472e-12 2.68831e-12 8.64111e-14 0.0311423 0.0344135 0 0
0.183733 3.5618e-12 3.44425e-12 1.17548e-13 0.0330023 0.0295349 0 0
0.193164 4.81516e-12 4.63401e-12 1.81147e-13 0.0376201 0.0247672 0 0
0.203079 6.51857e-12 6.23584e-12 2.82729e-13 0.0433728 0.019934 0 0
0.213503 7.76303e-12 7.381e-12 3.82035e-13 0.049212 0.0153283 0 0
0.224463 6.74576e-12 6.38878e-12 3.56978e-13 0.0529188 0.0114331 0 0
0.235984 4.79915e-12 4.54742e-12 2.51731e-13 0.0524532 0.00831625 0 0
0.248097 3.39946e-12 3.23783e-12 1.61627e-13 0.0475449 0.00631598 0 0
0.260832 2.65815e-12 2.54904e-12 1.09107e-13 0.0410463 0.00608066 0 0
0.274221 2.18734e-12 2.1098e-12 7.75395e-14 0.0354493 0.00756285 0 0
0.288297 1.87975e-12 1.82263e-12 5.71165e-14 0.0303852 0.0101732 0 0
0.303095 1.64198e-12 1.59833e-12 4.36496e-14 0.0265834 0.0116154 0 0
0.318653 1.43283e-12 1.39907e-12 3.3761e-14 0.0235625 0.0123222 0 0
0.335009 1.26753e-12 1.24108e-12 2.64447e-14 0.0208632 0.0122702 0 0
0.352205 1.13693e-12 1.11594e-12 2.09892e-14 0.0184613 0.0117394 0 0
0.370284 1.02769e-12 1.01087e-12 1.68182e-14 0.0163651 0.0110376 0 0
0.389291 9.28144e-13 9.14556e-13 1.35875e-14 0.0146394 0.0103345 0 0
0.409273 8.35752e-13 8.24737e-13 1.10146e-14 0.0131793 0.00963932 0 0
0.430281 7.49615e-13 7.40674e-13 8.94043e-15 0.0119267 0.00897119 0 1.28171e-309
0.452368 6.75561e-13 6.68303e-13 7.25753e-15 0.010743 0.00827012 0 2.85773e-295
0.475588 6.09455e-13 6.03558e-13 5.89667e-15 0.00967531 0.00759328 0 1.25386e-281
0.5 5.53542e-13 5.48737e-13 4.80466e-15 0.00867984 0.00693933 0 1.17896e-268
0.525665 5.05509e-13 5.01589e-13 3.91979e-15 0.00775416 0.006318 0 2.55912e-256
0.552647 4.61285e-13 4.58086e-13 3.1996e-15 0.00693626 0.00575069 0 1.36933e-244
0.581015 4.24585e-13 4.2196e-13 2.62495e-15 0.0061824 0.00522126 0 1.95281e-233
0.610839 3.905e-13 3.88345e-13 2.15441e-15 0.00551707 0.00474114 0 7.84724e-223
0.642193 3.58764e-13 3.56995e-13 1.76812e-15 0.00492836 0.00430511 0 9.45007e-213
0.675157 3.29962e-13 3.28509e-13 1.4529e-15 0.00440324 0.0039107 0 3.62573e-203
0.709813 3.03856e-13 3.0266e-13 1.19604e-15 0.00393621 0.00355654 0 4.68857e-194
0.746248 2.79804e-13 2.78819e-13 9.84836e-16 0.00351973 0.00323994 0 2.15306e-185
0.784553 2.57396e-13 2.56586e-13 8.10736e-16 0.00314976 0.00295222 0 3.68982e-177
0.824824 2.3678e-13 2.36112e-13 6.67309e-16 0.00281827 0.00269392 0 2.47942e-169
0.867162 2.1777e-13 2.1722e-13 5.49493e-16 0.00252328 0.0024614 0 6.83967e-162
0.911674 2.00144e-13 1.99692e-13 4.52261e-16 0.00225968 0.00225097 2.04931e-297 8.08864e-155
0.95847 1.83976e-13 1.83604e-13 3.71943e-16 0.00202169 0.00206236 5.99498e-283 4.27966e-148
1.00767 1.68972e-13 1.68666e-13 3.05926e-16 0.00181052 0.00189102 3.38993e-269 1.05308e-141
1.05939 1.55415e-13 1.55164e-13 2.51532e-16 0.00161845 0.00173558 4.02411e-256 1.25461e-135
1.11377 1.42884e-13 1.42677e-13 2.06754e-16 0.001447 0.001594 1.08022e-243 7.48906e-130
1.17094 1.31809e-13 1.31639e-13 1.69879e-16 0.00128883 0.00146177 7.07794e-232 2.32741e-124
1.23105 1.21625e-13 1.21485e-13 1.39651e-16 0.00114821 0.00134065 1.2092e-220 3.8798e-119
1.29424 1.12236e-13 1.12121e-13 1.14842e-16 0.00102322 0.00122915 5.74996e-210 3.57932e-114
1.36067 1.03592e-13 1.03497e-13 9.43881e-17 0.000911156 0.00112756 8.102e-200 1.8836e-109
1.43051 9.56345e-14 9.55569e-14 7.75434e-17 0.000810831 0.00103497 3.59008e-190 5.82004e-105
1.50394 8.84232e-14 8.83595e-14 6.37293e-17 0.000720731 0.000949376 5.30033e-181 1.08692e-100
1.58114 8.18522e-14 8.17998e-14 5.23783e-17 0.000639913 0.000869521 2.7501e-172 1.25947e-96
1.6623 7.57885e-14 7.57454e-14 4.30543e-17 0.000568085 0.000795411 5.27303e-164 9.28146e-93
1.74762 7.00944e-14 7.0059e-14 3.53947e-17 0.000504958 0.000728617 3.91698e-156 4.45233e-89
1.83733 6.48462e-14 6.48171e-14 2.90951e-17 0.000448678 0.000667551 1.1822e-148 1.42567e-85
1.93164 5.99918e-14 5.99679e-14 2.3908e-17 0.000398521 0.000611471 1.51461e-141 3.11716e-82
2.03079 5.55489e-14 5.55292e-14 1.96414e-17 0.000353587 0.000559413 8.59619e-135 4.76134e-79
2.13503 5.14199e-14 5.14037e-14 1.6149e-17 0.000314061 0.000511781 2.24655e-128 5.18317e-76
2.24463 4.75725e-14 4.75592e-14 1.32717e-17 0.000278978 0.000468366 2.80674e-122 4.10131e-73
2.35984 4.40496e-14 4.40387e-14 1.0903e-17 0.000247517 0.00042834 1.74031e-116 2.40719e-70
2.48097 4.0803e-14 4.0794e-14 8.95562e-18 0.000219484 0.000391363 5.53959e-111 1.06606e-67
2.60832 3.77775e-14 3.77702e-14 7.36233e-18 0.000194887 0.000357233 9.34343e-106 3.61701e-65
2.74221 3.49338e-14 3.49277e-14 6.05046e-18 0.000173198 0.000326167 8.60729e-101 9.53339e-63
2.88297 3.23072e-14 3.23023e-14 4.96855e-18 0.000153791 0.000298056 4.466e-96 1.9804e-60
3.03095 2.98516e-14 2.98475e-14 4.08084e-18 0.000136704 0.000272524 1.34094e-91 3.27764e-58
3.18653 2.75976e-14 2.75943e-14 3.35234e-18 0.000121472 0.000248831 2.39628e-87 4.37422e-56
3.35009 2.55429e-14 2.55401e-14 2.75298e-18 0.000107779 0.000227043 2.61573e-83 4.7556e-54
3.52205 2.35621e-14 2.35599e-14 2.25972e-18 9.59048e-05 0.000207216 1.77864e-79 4.22994e-52
3.70284 2.17701e-14 2.17683e-14 1.85566e-18 8.52387e-05 0.000189086 7.74722e-76 3.11872e-50
3.89291 2.01287e-14 2.01272e-14 1.52329e-18 7.56776e-05 0.00017235 2.20728e-72 1.91886e-48
4.09273 1.86159e-14 1.86146e-14 1.25029e-18 6.71626e-05 0.00015655 4.19797e-69 9.91874e-47
4.30281 1.72028e-14 1.72018e-14 1.02601e-18 5.96418e-05 0.000142264 5.43001e-66 4.33228e-45
4.52368 1.58943e-14 1.58934e-14 8.42218e-19 5.29887e-05 0.000129263 4.87059e-63 1.6104e-43
4.75588 1.46875e-14 1.46868e-14 6.91084e-19 4.70527e-05 0.000117343 3.08513e-60 5.12813e-42
5 1.36018e-14 1.36013e-14 5.66908e-19 4.16788e-05 0.000105937 1.40651e-57 1.41021e-40
5.25665 1.26612e-14 1.26607e-14 4.65152e-19 3.67384e-05 9.57094e-05 4.7043e-55 3.37831e-39
5.52648 1.16502e-14 1.16499e-14 3.81637e-19 3.27578e-05 8.65594e-05 1.15273e-52 6.97181e-38
5.81015 1.08529e-14 1.08526e-14 3.12916e-19 2.88324e-05 7.82057e-05 2.15088e-50 1.27624e-36
6.10839 1.0625e-14 1.06247e-14 2.56503e-19 2.41414e-05 7.03744e-05 3.21638e-48 2.16205e-35
6.42193 9.55782e-15 9.55761e-15 2.10259e-19 2.19986e-05 6.39645e-05 3.41549e-46 2.97841e-34
6.75157 8.77119e-15 8.77102e-15 1.72376e-19 1.96525e-05 5.71103e-05 2.8954e-44 3.72157e-33
7.09813 8.20282e-15 8.20268e-15 1.4124e-19 1.72184e-05 5.11346e-05 1.98116e-42 4.23281e-32
7.46248 8.38423e-15 8.38411e-15 1.15692e-19 1.37988e-05 4.56321e-05 1.1868e-40 4.72011e-31
7.84553 8.21401e-15 8.21392e-15 9.48016e-20 1.15415e-05 4.03342e-05 5.51848e-39 4.54511e-30
8.24824 6.80496e-15 6.80488e-15 7.7657e-20 1.14118e-05 3.5397e-05 1.77528e-37 3.34759e-29
8.67162 6.20031e-15 6.20024e-15 6.35706e-20 1.02528e-05 3.11192e-05 5.18981e-36 2.46251e-28
9.11674 5.35032e-15 5.35027e-15 5.20392e-20 9.72637e-06 2.72989e-05 1.19826e-34 1.56372e-27
9.5847 4.91078e-15 4.91073e-15 4.25822e-20 8.67118e-06 2.38578e-05 2.4761e-33 9.66258e-27
10.0767 4.56193e-15 4.56189e-15 3.48286e-20 7.63463e-06 2.06433e-05 4.39399e-32 5.5475e-26
10.5939 4.27177e-15 4.27174e-15 2.84655e-20 6.66365e-06 1.7563e-05 6.72313e-31 2.95715e-25
11.1377 4.17289e-15 4.17287e-15 2.32472e-20 5.57101e-06 1.47078e-05 9.24928e-30 1.51953e-24
11.7094 3.82472e-15 3.8247e-15 1.91626e-20 5.01021e-06 1.21786e-05 1.03652e-28 6.79033e-24
12.3105 3.65026e-15 3.65024e-15 1.55811e-20 4.2685e-06 9.52062e-06 1.05736e-27 2.93722e-23
12.9424 3.47545e-15 3.47544e-15 1.27227e-20 3.66075e-06 6.93275e-06 9.46852e-27 1.18156e-22
13.6067 3.33135e-15 3.33134e-15 1.0389e-20 3.11855e-06 4.77315e-06 7.55857e-26 4.47291e-22
14.3051 3.23039e-15 3.23038e-15 8.47655e-21 2.624e-06 2.90113e-06 5.43703e-25 1.60531e-21
15.0394 3.17684e-15 3.17683e-15 6.91212e-21 2.17579e-06 1.21703e-06 3.55303e-24 5.48952e-21
15.8114 3.18409e-15 3.18408e-15 5.63624e-21 1.77013e-06 -3.62348e-07 2.13115e-23 1.80177e-20
16.623 3.25618e-15 3.25617e-15 4.59505e-21 1.41118e-06 -1.95252e-06 1.18066e-22 5.69584e-20
17.4762 3.35929e-15 3.35928e-15 3.74424e-21 1.11459e-06 -3.48102e-06 6.00222e-22 1.71853e-19
18.3733 3.5255e-15 3.52549e-15 3.04932e-21 8.64932e-07 -4.92847e-06 2.83672e-21 5.00114e-19
19.3164 3.7803e-15 3.7803e-15 2.48656e-21 6.57769e-07 -6.40519e-06 1.25728e-20 1.41285e-18
20.3079 4.125e-15 4.125e-15 2.02896e-21 4.91869e-07 -8.07985e-06 5.2269e-20 3.86713e-18
21.3503 4.58826e-15 4.58826e-15 1.65734e-21 3.61214e-07 -9.30517e-06 2.0498e-19 1.02927e-17
22.4463 5.19781e-15 5.1978e-15 1.35817e-21 2.61296e-07 -1.02819e-05 7.60509e-19 2.66662e-17
23.5984 5.97596e-15 5.97596e-15 1.11965e-21 1.87359e-07 -1.11751e-05 2.6696e-18 6.71345e-17
24.8097 6.92962e-15 6.92962e-15 9.30995e-22 1.3435e-07 -1.23999e-05 8.84162e-18 1.63511e-16
26.0832 8.04931e-15 8.04931e-15 7.84147e-22 9.74179e-08 -1.32117e-05 2.75297e-17 3.8329e-16
27.4221 9.25395e-15 9.25394e-15 6.69594e-22 7.23576e-08 -1.38564e-05 7.98691e-17 8.55785e-16
28.8297 1.03625e-14 1.03625e-14 5.81409e-22 5.61072e-08 -1.41088e-05 2.13101e-16 1.7938e-15
30.3095 1.12471e-14 1.12471e-14 5.11065e-22 4.54398e-08 -1.42197e-05 5.21818e-16 3.51788e-15
31.8653 1.15044e-14 1.15044e-14 4.4903e-22 3.90313e-08 -1.39854e-05 1.14325e-15 6.28494e-15
33.5009 1.1277e-14 1.1277e-14 3.93849e-22 3.49251e-08 -1.37297e-05 2.28459e-15 1.04155e-14
35.2206 1.03488e-14 1.03488e-14 3.37289e-22 3.25922e-08 -1.2951e-05 4.07787e-15 1.56619e-14
37.0284 9.15948e-15 9.15948e-15 2.85301e-22 3.11481e-08 -1.21771e-05 6.7132e-15 2.20415e-14
38.9291 7.85435e-15 7.85435e-15 2.37009e-22 3.01754e-08 -1.11263e-05 1.02617e-14 2.91984e-14
40.9273 6.61663e-15 6.61663e-15 1.94991e-22 2.94699e-08 -1.00034e-05 1.47989e-14 3.6958e-14
43.0282 5.53588e-15 5.53588e-15 1.59077e-22 2.87357e-08 -8.51096e-06 2.03967e-14 4.52371e-14
45.2368 4.61459e-15 4.61459e-15 1.29342e-22 2.80289e-08 -6.89726e-06 2.70017e-14 5.3769e-14
47.5588 3.87097e-15 3.87097e-15 1.04903e-22 2.70998e-08 -4.13387e-06 3.47418e-14 6.27471e-14
50 3.2471e-15 3.2471e-15 8.50963e-23 2.62069e-08 -1.48915e-06 4.32437e-14 7.15038e-14
52.5665 2.74476e-15 2.74476e-15 6.89882e-23 2.51345e-08 1.42814e-06 5.25599e-14 8.02563e-14
55.2648 2.33339e-15 2.33339e-15 5.59403e-23 2.39738e-08 4.06248e-06 6.23522e-14 8.86245e-14
58.1015 1.99584e-15 1.99584e-15 4.54226e-23 2.27586e-08 6.36026e-06 7.23327e-14 9.64045e-14
61.0839 1.71607e-15 1.71607e-15 3.68971e-23 2.1501e-08 8.22006e-06 8.20955e-14 1.03292e-13
64.2193 1.48228e-15 1.48228e-15 2.99842e-23 2.02284e-08 9.66968e-06 9.1223e-14 1.09024e-13
67.5157 1.28696e-15 1.28696e-15 2.43855e-23 1.89481e-08 1.06355e-05 9.94226e-14 1.13509e-13
70.9813 1.12224e-15 1.12224e-15 1.98516e-23 1.76892e-08 1.12101e-05 1.06324e-13 1.16561e-13
74.6248 9.82341e-16 9.82341e-16 1.61651e-23 1.64557e-08 1.14313e-05 1.11638e-13 1.18076e-13
78.4553 8.62847e-16 8.62847e-16 1.31662e-23 1.5259e-08 1.13457e-05 1.1517e-13 1.18028e-13
82.4824 7.60559e-16 7.60559e-16 1.07332e-23 1.41123e-08 1.09424e-05 1.16869e-13 1.16505e-13
86.7162 6.72914e-16 6.72914e-16 8.7533e-24 1.30081e-08 1.01627e-05 1.16796e-13 1.13662e-13
91.1674 5.97172e-16 5.97172e-16 7.13932e-24 1.19552e-08 9.18571e-06 1.14978e-13 1.09584e-13
95.847 5.31435e-16 5.31435e-16 5.82354e-24 1.09581e-08 8.1764e-06 1.11574e-13 1.04448e-13
100.767 4.74471e-16 4.74471e-16 4.75457e-24 1.00208e-08 7.1622e-06 1.06866e-13 9.85197e-14
105.939 4.26171e-16 4.26171e-16 3.88145e-24 9.10772e-09 5.95129e-06 1.01395e-13 9.2273e-14
111.377 3.84547e-16 3.84547e-16 3.16826e-24 8.23895e-09 4.76702e-06 9.52387e-14 8.57368e-14
117.094 3.50247e-16 3.50247e-16 2.58721e-24 7.38682e-09 3.60777e-06 8.90501e-14 7.94522e-14
123.105 3.23048e-16 3.23048e-16 2.11445e-24 6.54532e-09 2.52842e-06 8.32155e-14 7.37099e-14
129.424 3.01064e-16 3.01064e-16 1.7296e-24 5.74496e-09 1.55806e-06 7.75995e-14 6.83408e-14
136.067 2.8023e-16 2.8023e-16 1.41593e-24 5.05273e-09 7.42601e-07 7.14262e-14 6.26255e-14
143.051 2.54191e-16 2.54191e-16 1.16082e-24 4.56671e-09 5.21966e-08 6.33582e-14 5.53698e-14
150.394 2.25994e-16 2.25994e-16 9.51399e-25 4.20984e-09 -5.63598e-07 5.45088e-14 4.75284e-14
158.114 1.97916e-16 1.97916e-16 7.7861e-25 3.93405e-09 -9.98476e-07 4.57363e-14 3.9824e-14
166.23 1.73073e-16 1.73073e-16 6.36797e-25 3.67935e-09 -1.41933e-06 3.7962e-14 3.30339e-14
174.763 1.51574e-16 1.51574e-16 5.21024e-25 3.43743e-09 -1.82842e-06 3.12784e-14 2.72183e-14
183.733 1.34243e-16 1.34243e-16 4.26096e-25 3.17405e-09 -2.08538e-06 2.58464e-14 2.25041e-14
193.164 1.19112e-16 1.19112e-16 3.48379e-25 2.9248e-09 -2.32481e-06 2.12299e-14 1.85035e-14
203.079 1.06092e-16 1.06092e-16 2.84897e-25 2.68538e-09 -2.5235e-06 1.73763e-14 1.5166e-14
213.503 9.51428e-17 9.51428e-17 2.33076e-25 2.44974e-09 -2.6303e-06 1.42208e-14 1.24332e-14
224.463 8.52767e-17 8.52767e-17 1.90641e-25 2.23555e-09 -2.73454e-06 1.15565e-14 1.01236e-14
235.984 7.63826e-17 7.63826e-17 1.559e-25 2.04104e-09 -2.82855e-06 9.32788e-15 8.18883e-15
248.097 6.83815e-17 6.83815e-17 1.27559e-25 1.8654e-09 -2.92736e-06 7.48214e-15 6.58355e-15
260.832 6.15854e-17 6.15854e-17 1.04376e-25 1.69482e-09 -2.93314e-06 6.00516e-15 5.29662e-15
274.221 5.54691e-17 5.54691e-17 8.53872e-26 1.53937e-09 -2.92728e-06 4.79582e-15 4.2404e-15
288.297 4.9902e-17 4.9902e-17 6.98438e-26 1.39962e-09 -2.92872e-06 3.80745e-15 3.37493e-15
303.095 4.4906e-17 4.4906e-17 5.71679e-26 1.27306e-09 -2.90901e-06 3.0102e-15 2.67497e-15
318.653 4.05503e-17 4.05503e-17 4.6782e-26 1.15368e-09 -2.83832e-06 2.3782e-15 2.11866e-15
335.009 3.65685e-17 3.65685e-17 3.82735e-26 1.04663e-09 -2.77932e-06 1.86908e-15 1.66924e-15
352.206 3.29386e-17 3.29386e-17 3.13188e-26 9.50825e-10 -2.72087e-06 1.46183e-15 1.30873e-15
370.284 2.97664e-17 2.97664e-17 2.56359e-26 8.61238e-10 -2.62284e-06 1.14314e-15 1.02586e-15
389.291 2.68789e-17 2.68789e-17 2.09789e-26 7.80498e-10 -2.53312e-06 8.90358e-16 8.00882e-16
409.273 2.4239e-17 2.4239e-17 1.71637e-26 7.08103e-10 -2.44668e-06 6.90454e-16 6.22476e-16
430.282 2.19228e-17 2.19228e-17 1.40497e-26 6.4087e-10 -2.33457e-06 5.35488e-16 4.83828e-16
452.368 1.98221e-17 1.98221e-17 1.15001e-26 5.80168e-10 -2.22226e-06 4.14078e-16 3.74924e-16
475.588 1.78982e-17 1.78982e-17 9.41085e-27 5.25798e-10 -2.11288e-06 3.18961e-16 2.89391e-16
500 1.6141e-17 1.6141e-17 7.70012e-27 4.77055e-10 -2.01347e-06 2.44812e-16 2.22553e-16
525.665 1.46457e-17 1.46457e-17 6.30433e-27 4.30457e-10 -1.88632e-06 1.88639e-16 1.71811e-16
552.648 1.32716e-17 1.32716e-17 5.16012e-27 3.88808e-10 -1.7669e-06 1.44867e-16 1.32181e-16
581.015 1.20101e-17 1.20101e-17 4.22249e-27 3.51578e-10 -1.64972e-06 1.10884e-16 1.01349e-16
610.838 1.08551e-17 1.08551e-17 3.45594e-27 3.1837e-10 -1.5507e-06 8.46143e-17 7.74659e-17
642.193 9.79927e-18 9.79927e-18 2.82927e-27 2.88722e-10 -1.45245e-06 6.4379e-17 5.90331e-17
675.157 8.83416e-18 8.83416e-18 2.31561e-27 2.6212e-10 -1.36108e-06 4.88376e-17 4.48495e-17
709.813 7.97362e-18 7.97362e-18 1.89474e-27 2.37626e-10 -1.27353e-06 3.70362e-17 3.40605e-17
746.247 7.23723e-18 7.23723e-18 1.5512e-27 2.14336e-10 -1.14775e-06 2.82036e-17 2.5973e-17
784.553 6.56034e-18 6.56034e-18 1.26983e-27 1.93562e-10 -1.08642e-06 2.14207e-17 1.97522e-17
824.824 5.93877e-18 5.93877e-18 1.03923e-27 1.74991e-10 -1.01628e-06 1.62267e-17 1.49813e-17
867.162 5.36908e-18 5.36908e-18 8.50415e-28 1.58391e-10 -9.00249e-07 1.22615e-17 1.13337e-17
911.674 4.84861e-18 4.84861e-18 6.96299e-28 1.43608e-10 -8.11219e-07 9.24451e-18 8.55453e-18
958.471 4.37271e-18 4.37271e-18 5.69954e-28 1.30344e-10 -7.86899e-07 6.95309e-18 6.44096e-18
1007.67 3.94245e-18 3.94245e-18 4.6641e-28 1.18305e-10 -7.88819e-07 5.22302e-18 4.8432e-18
1059.39 3.57135e-18 3.57135e-18 3.81775e-28 1.06899e-10 -6.60113e-07 3.93828e-18 3.65539e-18
1113.77 3.23126e-18 3.23126e-18 3.12564e-28 9.67314e-11 -5.98752e-07 2.96333e-18 2.75297e-18
1170.94 2.91961e-18 2.91961e-18 2.55824e-28 8.76228e-11 -5.59879e-07 2.22485e-18 2.0687e-18
1231.05 2.63848e-18 2.63848e-18 2.09338e-28 7.93403e-11 -4.48009e-07 1.66938e-18 1.55349e-18
1294.24 2.39061e-18 2.39061e-18 1.71393e-28 7.16941e-11 -3.90103e-07 1.25491e-18 1.1687e-18
1360.67 2.16407e-18 2.16407e-18 1.40307e-28 6.48345e-11 -3.57032e-07 9.41826e-19 8.77771e-19
1430.51 1.95639e-18 1.95639e-18 1.14829e-28 5.8694e-11 -3.97127e-07 7.05437e-19 6.5792e-19
1503.94 1.76705e-18 1.76705e-18 9.39698e-29 5.31789e-11 -3.40164e-07 5.27573e-19 4.92364e-19
1581.14 1.6033e-18 1.6033e-18 7.6943e-29 4.79905e-11 -3.70051e-07 3.96114e-19 3.69912e-19
1662.3 1.45286e-18 1.45286e-18 6.29831e-29 4.33511e-11 -2.7187e-07 2.96864e-19 2.77394e-19
1747.63 1.31479e-18 1.31479e-18 5.15419e-29 3.92016e-11 -3.85957e-07 2.22067e-19 2.07621e-19
1837.33 1.18842e-18 1.18842e-18 4.21896e-29 3.55004e-11 -2.36955e-07 1.65835e-19 1.55131e-19
1931.64 1.07293e-18 1.07293e-18 3.45417e-29 3.21938e-11 -3.19528e-07 1.23637e-19 1.15715e-19
2030.79 9.74727e-19 9.74727e-19 2.82722e-29 2.90052e-11 -2.79532e-07 9.27113e-20 8.68135e-20
2135.03 9.00059e-19 9.00059e-19 2.31345e-29 2.57033e-11 -1.15131e-07 7.06329e-20 6.61702e-20
2244.63 8.30331e-19 8.30331e-19 1.89417e-29 2.28122e-11 -5.58565e-07 5.37403e-20 5.0367e-20
2359.84 7.65172e-19 7.65172e-19 1.55065e-29 2.02654e-11 -8.14352e-08 4.08276e-20 3.82808e-20
2480.97 7.04312e-19 7.04312e-19 1.26909e-29 1.80188e-11 -2.12184e-07 3.09704e-20 2.90499e-20
2608.32 6.47571e-19 6.47571e-19 1.03859e-29 1.60382e-11 -1.41835e-07 2.34589e-20 2.20125e-20
2742.21 5.94793e-19 5.94793e-19 8.50389e-30 1.42972e-11 2.49223e-07 1.77453e-20 1.66571e-20
2882.96 5.45663e-19 5.45663e-19 6.96104e-30 1.2757e-11 -1.6451e-07 1.34031e-20 1.25855e-20
3030.95 4.99976e-19 4.99976e-19 5.69657e-30 1.13937e-11 -1.6463e-07 1.0108e-20 9.49439e-21
3186.53 4.57605e-19 4.57605e-19 4.66303e-30 1.01901e-11 -6.71175e-08 7.6124e-21 7.15248e-21
3350.09 4.18343e-19 4.18343e-19 3.8177e-30 9.12578e-12 -5.45798e-07 5.72485e-21 5.38053e-21
3522.05 3.81968e-19 3.81968e-19 3.1248e-30 8.18079e-12 2.52249e-07 4.29884e-21 4.0414e-21
3702.84 3.48308e-19 3.48308e-19 2.55694e-30 7.34104e-12 -2.26774e-07 3.22312e-21 3.03089e-21
3892.91 3.17273e-19 3.17273e-19 2.09355e-30 6.59857e-12 -2.11694e-07 2.41345e-21 2.27007e-21
