# 0.00390182 3 111 : grain size, compostion index, size index
# This grain was stochastically heated: No
# Heating and cooling timescale: 2.37624e-06 inf
# Ratio of heating to cooling to determine stochastic cutoff: 100
# Equilibrium emission is recorded even for those grains in the stochastic regime.
# Emission spectrum was computed for: 
# Type: IRSF
# Scale: 1
# Temperature: -1
# Wavelength  CExt  CAbs  CSca  Albedo G EqEmission StEmission
0.05 9.59648e-05 3.3914e-05 6.20508e-05 0.646599 0.853985 0 0
0.0525665 9.59781e-05 3.33633e-05 6.26148e-05 0.652386 0.841499 0 0
0.0552647 9.5992e-05 3.29468e-05 6.30452e-05 0.656776 0.831132 0 0
0.0581015 9.60044e-05 3.27572e-05 6.32472e-05 0.658795 0.824772 0 0
0.0610839 9.60147e-05 3.22904e-05 6.37244e-05 0.663694 0.81601 0 0
0.0642193 9.60296e-05 3.11318e-05 6.48978e-05 0.67581 0.797729 0 0
0.0675157 9.60477e-05 2.99808e-05 6.60669e-05 0.687855 0.77776 0 0
0.0709813 9.60664e-05 2.98653e-05 6.62011e-05 0.689118 0.770646 0 0
0.0746248 9.60866e-05 3.03215e-05 6.57651e-05 0.684436 0.772004 0 0
0.0784553 9.61079e-05 3.09577e-05 6.51501e-05 0.677886 0.776914 0 0
0.0824824 9.61288e-05 3.16838e-05 6.44451e-05 0.670403 0.7828 0 0
0.0867162 9.61499e-05 3.1855e-05 6.4295e-05 0.668695 0.781681 0 0
0.0911674 9.61722e-05 3.17096e-05 6.44627e-05 0.670284 0.776536 0 0
0.095847 9.61959e-05 3.18466e-05 6.43493e-05 0.668941 0.774791 0 0
0.100767 9.6215e-05 3.29693e-05 6.32457e-05 0.657337 0.786259 0 0
0.105939 9.6231e-05 3.40982e-05 6.21327e-05 0.645662 0.800915 0 0
0.111377 9.62411e-05 3.61554e-05 6.00858e-05 0.624325 0.82893 0 0
0.117094 9.62484e-05 3.82767e-05 5.79718e-05 0.602314 0.861262 0 0
0.123105 9.62616e-05 3.96452e-05 5.66165e-05 0.588152 0.883895 0 0
0.129424 9.62779e-05 4.08065e-05 5.54714e-05 0.576159 0.903865 0 0
0.136067 9.62947e-05 4.17344e-05 5.45602e-05 0.566597 0.920064 0 0
0.143051 9.63094e-05 4.24546e-05 5.38549e-05 0.559186 0.932706 0 0
0.150394 9.63196e-05 4.28642e-05 5.34554e-05 0.554979 0.940855 0 0
0.158114 9.63298e-05 4.2721e-05 5.36088e-05 0.556513 0.941742 0 0
0.16623 9.63484e-05 4.17123e-05 5.46361e-05 0.567068 0.930943 0 0
0.174762 9.63809e-05 3.97164e-05 5.66645e-05 0.587922 0.904443 0 0
0.183733 9.64196e-05 3.71992e-05 5.92205e-05 0.614195 0.868648 0 0
0.193164 9.64618e-05 3.45827e-05 6.18791e-05 0.641488 0.831804 0 0
0.203079 9.65064e-05 3.23088e-05 6.41976e-05 0.665216 0.801351 0 0
0.213503 9.65541e-05 3.0357e-05 6.61971e-05 0.685596 0.776569 0 0
0.224463 9.66085e-05 2.90569e-05 6.75516e-05 0.69923 0.759422 0 0
0.235984 9.66684e-05 2.83213e-05 6.83472e-05 0.707027 0.747867 0 0
0.248097 9.67319e-05 2.84522e-05 6.82797e-05 0.705865 0.744103 0 0
0.260832 9.6789e-05 2.91426e-05 6.76464e-05 0.698906 0.746247 0 0
0.274221 9.68362e-05 2.99802e-05 6.6856e-05 0.690403 0.750465 0 0
0.288297 9.68658e-05 3.10868e-05 6.5779e-05 0.679074 0.759938 0 0
0.303095 9.68951e-05 3.1846e-05 6.50491e-05 0.671335 0.767155 0 0
0.318653 9.69259e-05 3.24647e-05 6.44611e-05 0.665056 0.773499 0 0
0.335009 9.69591e-05 3.2955e-05 6.40041e-05 0.660114 0.778947 0 0
0.352205 9.69968e-05 3.32922e-05 6.37046e-05 0.65677 0.782789 0 0
0.370284 9.70377e-05 3.351e-05 6.35277e-05 0.65467 0.785157 0 0
0.389291 9.70819e-05 3.36239e-05 6.34579e-05 0.653654 0.786061 0 0
0.409273 9.71276e-05 3.37074e-05 6.34202e-05 0.652957 0.7866 0 0
0.430281 9.71749e-05 3.37772e-05 6.33978e-05 0.652409 0.786976 0 0
0.452368 9.72241e-05 3.38478e-05 6.33763e-05 0.651858 0.787538 0 0
0.475588 9.72759e-05 3.39106e-05 6.33653e-05 0.651398 0.788045 0 0
0.5 9.73299e-05 3.3951e-05 6.33789e-05 0.651176 0.788287 0 0
0.525665 9.73869e-05 3.39769e-05 6.34101e-05 0.651115 0.788365 0 0
0.552647 9.7446e-05 3.39949e-05 6.34511e-05 0.651141 0.788323 0 0
0.581015 9.75095e-05 3.3955e-05 6.35545e-05 0.651777 0.787477 0 0
0.610839 9.75757e-05 3.39128e-05 6.36629e-05 0.652446 0.786593 0 0
0.642193 9.76438e-05 3.38681e-05 6.37758e-05 0.653147 0.785668 0 0
0.675157 9.77153e-05 3.38012e-05 6.39141e-05 0.654085 0.784423 0 0
0.709813 9.77899e-05 3.37141e-05 6.40757e-05 0.655239 0.782882 0 0
0.746248 9.7867e-05 3.36175e-05 6.42495e-05 0.656498 0.781185 0 0
0.784553 9.79471e-05 3.35178e-05 6.44292e-05 0.657796 0.779447 0 0
0.824824 9.80298e-05 3.3416e-05 6.46138e-05 0.659124 0.77766 0 0
0.867162 9.81153e-05 3.33116e-05 6.48037e-05 0.660485 0.775828 0 0
0.911674 9.82032e-05 3.32072e-05 6.4996e-05 0.661852 0.77399 0 0
0.95847 9.82932e-05 3.31087e-05 6.51845e-05 0.663164 0.772202 0 0
1.00767 9.8386e-05 3.30097e-05 6.53763e-05 0.664488 0.770405 0 0
1.05939 9.84808e-05 3.29208e-05 6.556e-05 0.665713 0.768719 0 0
1.11377 9.8578e-05 3.28289e-05 6.57491e-05 0.666975 0.766994 0 0
1.17094 9.86786e-05 3.27458e-05 6.59329e-05 0.668158 0.765374 0 0
1.23105 9.87815e-05 3.26634e-05 6.61181e-05 0.669337 0.76376 0 0
1.29424 9.8888e-05 3.25706e-05 6.63174e-05 0.670631 0.762018 0 0
1.36067 9.8997e-05 3.24823e-05 6.65147e-05 0.671886 0.760322 0 0
1.43051 9.91082e-05 3.24009e-05 6.67073e-05 0.673076 0.758705 0 0
1.50394 9.92225e-05 3.23241e-05 6.68985e-05 0.674227 0.757138 0 0
1.58114 9.93402e-05 3.22434e-05 6.70968e-05 0.675424 0.755525 0 0
1.6623 9.94622e-05 3.21539e-05 6.73084e-05 0.676723 0.753813 0 0
1.74762 9.95864e-05 3.20628e-05 6.75236e-05 0.678041 0.752079 0 0
1.83733 9.97127e-05 3.19761e-05 6.77366e-05 0.679318 0.750397 0 0
1.93164 9.98421e-05 3.189e-05 6.79521e-05 0.680596 0.748725 0 0
2.03079 9.99748e-05 3.18035e-05 6.81713e-05 0.681885 0.747053 0 0
2.13503 0.000100111 3.17107e-05 6.84e-05 0.683243 0.745307 0 0
2.24463 0.000100248 3.16193e-05 6.86291e-05 0.68459 0.743591 0 0
2.35984 0.000100389 3.15316e-05 6.88572e-05 0.685905 0.741911 0 0
2.48097 0.000100535 3.14451e-05 6.90895e-05 0.687221 0.740265 0 0
2.60832 0.000100681 3.13444e-05 6.93365e-05 0.688676 0.738469 0 0
2.74221 0.000100829 3.12385e-05 6.95908e-05 0.690184 0.736636 0 0
2.88297 0.000100989 3.11417e-05 6.98475e-05 0.691633 0.734933 0 0
3.03095 0.00010113 3.10408e-05 7.00893e-05 0.693061 0.733163 0 0
3.18653 0.000101288 3.09348e-05 7.0353e-05 0.694585 0.73139 0 0
3.35009 0.000101431 3.08256e-05 7.06054e-05 0.696093 0.729563 0 0
3.52205 0.000101636 3.07164e-05 7.09197e-05 0.697781 0.727887 0 0
3.70284 0.000101751 3.06053e-05 7.11456e-05 0.699214 0.726021 0 0
3.89291 0.000101897 3.04951e-05 7.14021e-05 0.700727 0.72424 0 0
4.09273 0.000102071 3.03737e-05 7.1697e-05 0.702425 0.722433 5.42475e-287 0
4.30281 0.000102295 3.02477e-05 7.20475e-05 0.70431 0.720717 9.25983e-273 0
4.52368 0.000102478 3.01188e-05 7.23592e-05 0.706095 0.718921 3.1516e-259 0
4.75588 0.000102654 2.99865e-05 7.26679e-05 0.707889 0.717078 2.31372e-246 0
5 0.000102846 2.98497e-05 7.29959e-05 0.709762 0.715218 3.94884e-234 0
5.25665 0.000102999 2.96944e-05 7.33049e-05 0.711703 0.713187 1.68178e-222 0
5.52648 0.000103072 2.95377e-05 7.35342e-05 0.713426 0.711021 1.91299e-211 0
5.81015 0.00010315 2.93808e-05 7.37687e-05 0.715163 0.708892 6.20198e-201 0
6.10839 0.000103368 2.92294e-05 7.41384e-05 0.717229 0.706989 6.09148e-191 0
6.42193 0.000103792 2.90818e-05 7.47098e-05 0.719806 0.705678 1.92219e-181 0
6.75157 0.000103946 2.89372e-05 7.50085e-05 0.721612 0.703771 2.05863e-172 0
7.09813 0.00010377 2.87966e-05 7.49732e-05 0.722496 0.701257 7.89306e-164 0
7.46248 0.000104209 2.86791e-05 7.55303e-05 0.724794 0.700218 1.13935e-155 0
7.84553 0.000104606 2.85583e-05 7.60481e-05 0.726993 0.69896 6.49123e-148 0
8.24824 0.000104284 2.84631e-05 7.58214e-05 0.727063 0.696488 1.52839e-140 0
8.67162 0.000105029 2.8375e-05 7.66542e-05 0.729837 0.696117 1.55245e-133 0
9.11674 0.000104823 2.83144e-05 7.65088e-05 0.729884 0.694206 7.09055e-127 0
9.5847 0.000105158 2.82838e-05 7.68746e-05 0.731036 0.693523 1.51486e-120 0
10.0767 0.000105377 2.82676e-05 7.71094e-05 0.731748 0.692721 1.56976e-114 0
10.5939 0.00010544 2.82575e-05 7.71825e-05 0.732004 0.691748 8.17427e-109 0
11.1377 0.000105917 2.8267e-05 7.76504e-05 0.733122 0.691689 2.2127e-103 0
11.7094 0.000106089 2.81165e-05 7.79727e-05 0.734973 0.688833 3.19415e-98 0
12.3105 0.000106015 2.8165e-05 7.78498e-05 0.734329 0.688605 2.56793e-93 0
12.9424 0.000106541 2.81128e-05 7.84281e-05 0.736131 0.688107 1.1707e-88 0
13.6067 0.000106429 2.80537e-05 7.83756e-05 0.73641 0.686566 3.12197e-84 0
14.3051 0.000106923 2.80146e-05 7.89089e-05 0.737994 0.686218 5.00299e-80 0
15.0394 0.000106934 2.79723e-05 7.89618e-05 0.738415 0.684819 4.93614e-76 0
15.8114 0.000107228 2.79341e-05 7.92938e-05 0.739489 0.683979 3.07061e-72 0
16.623 0.000107461 2.78899e-05 7.95708e-05 0.740464 0.683114 1.2315e-68 0
17.4762 0.000107587 2.78349e-05 7.9752e-05 0.74128 0.681945 3.25222e-65 0
18.3733 0.000107816 2.77629e-05 8.00532e-05 0.742498 0.68086 5.77138e-62 0
19.3164 0.000107932 2.7646e-05 8.02859e-05 0.743857 0.679458 7.00878e-59 0
20.3079 0.000107976 2.74253e-05 8.0551e-05 0.746006 0.677493 5.921e-56 0
21.3503 0.00010795 2.71445e-05 8.08051e-05 0.748545 0.675036 3.54623e-53 0
22.4463 0.000107831 2.67646e-05 8.10663e-05 0.751791 0.671609 1.52891e-50 0
23.5984 0.000107723 2.62741e-05 8.14486e-05 0.756095 0.66686 4.81746e-48 0
24.8097 0.000107749 2.56338e-05 8.21148e-05 0.762096 0.659962 1.12439e-45 0
26.0832 0.000108025 2.49615e-05 8.30635e-05 0.768928 0.650884 1.98022e-43 0
27.4221 0.000108529 2.42844e-05 8.42446e-05 0.77624 0.640543 2.67064e-41 0
28.8297 0.000109274 2.36952e-05 8.55791e-05 0.783158 0.629468 2.80471e-39 0
30.3095 0.000110157 2.31432e-05 8.70138e-05 0.789907 0.618169 2.31791e-37 0
31.8653 0.000111134 2.27238e-05 8.84105e-05 0.795529 0.608069 1.53175e-35 0
33.5009 0.000112116 2.22872e-05 8.98286e-05 0.801213 0.597853 8.13241e-34 0
35.2206 0.000113088 2.19871e-05 9.11006e-05 0.805575 0.589571 3.53072e-32 0
37.0284 0.000113944 2.16229e-05 9.23214e-05 0.810233 0.581387 1.25481e-30 0
38.9291 0.000114653 2.12637e-05 9.33892e-05 0.814539 0.57355 3.6975e-29 0
40.9273 0.000115324 2.0884e-05 9.44404e-05 0.818911 0.56651 9.10489e-28 0
43.0282 0.000115702 2.04666e-05 9.52354e-05 0.823109 0.559601 1.88839e-26 0
45.2368 0.00011602 2.00498e-05 9.59704e-05 0.827187 0.55214 3.33198e-25 0
47.5588 0.000116322 1.97575e-05 9.65649e-05 0.830149 0.545415 5.0731e-24 0
50 0.000116464 1.93431e-05 9.71212e-05 0.833914 0.538838 6.63203e-23 0
52.5665 0.000116586 1.91036e-05 9.74824e-05 0.836141 0.532264 7.61323e-22 0
55.2648 0.000116686 1.89199e-05 9.77664e-05 0.837857 0.524485 7.68015e-21 0
58.1015 0.00011678 1.8666e-05 9.81143e-05 0.840161 0.516567 6.80754e-20 0
61.0839 0.000116973 1.84598e-05 9.85135e-05 0.842188 0.51005 5.36763e-19 0
64.2193 0.00011714 1.83977e-05 9.87418e-05 0.842942 0.503688 3.80731e-18 0
67.5157 0.000117101 1.8364e-05 9.8737e-05 0.843178 0.494846 2.4277e-17 0
70.9813 0.00011702 1.82382e-05 9.87823e-05 0.844145 0.483507 1.38982e-16 0
74.6248 0.000117239 1.81137e-05 9.91252e-05 0.845497 0.47275 7.21569e-16 0
78.4553 0.000117761 1.81366e-05 9.96246e-05 0.845989 0.46475 3.44151e-15 0
82.4824 0.000118199 1.83289e-05 9.98704e-05 0.844932 0.458167 1.51649e-14 0
86.7162 0.000118214 1.85571e-05 9.96569e-05 0.843021 0.449223 6.15461e-14 0
91.1674 0.000117879 1.86831e-05 9.91962e-05 0.841506 0.435178 2.29288e-13 0
95.847 0.000117647 1.87189e-05 9.89283e-05 0.840889 0.416628 7.8776e-13 0
100.767 0.000117994 1.88258e-05 9.9168e-05 0.840451 0.397297 2.52706e-12 0
105.939 0.000119028 1.91798e-05 9.98485e-05 0.838863 0.381176 7.6657e-12 0
111.377 0.000120391 1.97884e-05 0.000100603 0.835633 0.369534 2.20561e-11 0
117.094 0.000121585 2.05345e-05 0.000101051 0.83111 0.360977 5.99726e-11 0
123.105 0.000122158 2.1221e-05 0.000100937 0.826283 0.352062 1.53056e-10 0
129.424 0.000121832 2.14289e-05 0.000100403 0.82411 0.338006 3.60766e-10 0
136.067 0.000120672 2.1046e-05 9.96259e-05 0.825593 0.314849 7.83901e-10 0
143.051 0.000118836 1.96851e-05 9.91511e-05 0.834351 0.278668 1.54151e-09 0
150.394 0.000117287 1.80429e-05 9.92441e-05 0.846164 0.231938 2.82988e-09 0
158.114 0.000116576 1.65815e-05 9.99943e-05 0.857762 0.17904 4.97395e-09 0
166.23 0.00011703 1.53864e-05 0.000101643 0.868526 0.125368 8.44853e-09 0
174.763 0.000118446 1.44805e-05 0.000103965 0.877746 0.0749302 1.39592e-08 0
183.733 0.000120424 1.40591e-05 0.000106365 0.883253 0.0302925 2.28681e-08 0
193.164 0.000122316 1.38053e-05 0.00010851 0.887134 -0.008843 3.64848e-08 0
203.079 0.000123538 1.36966e-05 0.000109842 0.889131 -0.0426661 5.67384e-08 0
213.503 0.000123542 1.37254e-05 0.000109816 0.888901 -0.0717469 8.61288e-08 0
224.463 0.000121799 1.3708e-05 0.000108091 0.887454 -0.0972743 1.26137e-07 0
235.984 0.000118013 1.35959e-05 0.000104417 0.884793 -0.119896 1.7787e-07 0
248.097 0.0001121 1.33512e-05 9.87488e-05 0.880899 -0.1401 2.41142e-07 0
260.832 0.000104388 1.30417e-05 9.13461e-05 0.875065 -0.158106 3.16227e-07 0
274.221 9.52644e-05 1.25929e-05 8.26714e-05 0.867811 -0.174466 3.99168e-07 0
288.297 8.52981e-05 1.20131e-05 7.3285e-05 0.859163 -0.189451 4.85363e-07 0
303.095 7.51251e-05 1.13512e-05 6.37739e-05 0.848903 -0.203159 5.70673e-07 0
318.653 6.52989e-05 1.06774e-05 5.46216e-05 0.836485 -0.215654 6.52848e-07 0
335.009 5.61453e-05 9.9841e-06 4.61612e-05 0.822174 -0.227183 7.26466e-07 0
352.206 4.79065e-05 9.30273e-06 3.86038e-05 0.805815 -0.237811 7.89041e-07 0
370.284 4.07113e-05 8.68141e-06 3.20299e-05 0.786757 -0.247463 8.41645e-07 0
389.291 3.45106e-05 8.10398e-06 2.64066e-05 0.765174 -0.256329 8.81412e-07 0
409.273 2.9239e-05 7.57263e-06 2.16663e-05 0.741009 -0.264473 9.07755e-07 0
430.282 2.48353e-05 7.10713e-06 1.77282e-05 0.71383 -0.271798 9.23304e-07 0
452.368 2.11611e-05 6.68858e-06 1.44725e-05 0.683921 -0.278453 9.26768e-07 0
475.588 1.81025e-05 6.30893e-06 1.17936e-05 0.651489 -0.284512 9.18321e-07 0
500 1.55645e-05 5.96465e-06 9.59986e-06 0.616779 -0.290009 8.99045e-07 0
525.665 1.3488e-05 5.67313e-06 7.81482e-06 0.579393 -0.294734 8.73491e-07 0
552.648 1.17643e-05 5.40628e-06 6.358e-06 0.54045 -0.298971 8.39402e-07 0
581.015 1.03315e-05 5.16061e-06 5.17093e-06 0.500499 -0.302752 7.98187e-07 0
610.838 9.14023e-06 4.93357e-06 4.20666e-06 0.460236 -0.306109 7.51415e-07 0
642.193 8.14621e-06 4.7225e-06 3.42371e-06 0.420283 -0.309069 7.00592e-07 0
675.157 7.31135e-06 4.525e-06 2.78634e-06 0.381099 -0.311672 6.47157e-07 0
709.813 6.61148e-06 4.3439e-06 2.26759e-06 0.342977 -0.313851 5.93122e-07 0
746.247 6.03126e-06 4.18447e-06 1.84679e-06 0.306203 -0.315467 5.40498e-07 0
784.553 5.53699e-06 4.03263e-06 1.50436e-06 0.271693 -0.316791 4.88515e-07 0
824.824 5.1128e-06 3.88736e-06 1.22544e-06 0.239681 -0.317849 4.38072e-07 0
867.162 4.74628e-06 3.74789e-06 9.98395e-07 0.210353 -0.318661 3.89899e-07 0
911.674 4.42781e-06 3.61368e-06 8.14125e-07 0.183866 -0.319246 3.44557e-07 0
958.471 4.14783e-06 3.48398e-06 6.63845e-07 0.160046 -0.319628 3.02408e-07 0
1007.67 3.9008e-06 3.35953e-06 5.41274e-07 0.13876 -0.319778 2.63778e-07 0
1059.39 3.68646e-06 3.24496e-06 4.41492e-07 0.119761 -0.319493 2.29098e-07 0
1113.77 3.49332e-06 3.13306e-06 3.6026e-07 0.103128 -0.31904 1.97785e-07 0
1170.94 3.31742e-06 3.02348e-06 2.93941e-07 0.0886054 -0.318436 1.6977e-07 0
1231.05 3.15743e-06 2.91762e-06 2.39808e-07 0.0759503 -0.317612 1.45e-07 0
1294.24 3.01183e-06 2.81606e-06 1.95771e-07 0.0650007 -0.31649 1.23298e-07 0
1360.67 2.87584e-06 2.71602e-06 1.59822e-07 0.055574 -0.315232 1.04313e-07 0
1430.51 2.74777e-06 2.61731e-06 1.30459e-07 0.0474783 -0.313867 8.78174e-08 0
1503.94 2.62665e-06 2.52015e-06 1.06496e-07 0.0405443 -0.31239 7.35896e-08 0
1581.14 2.51399e-06 2.42702e-06 8.69793e-08 0.0345981 -0.310523 6.14569e-08 0
1662.3 2.40573e-06 2.3347e-06 7.10271e-08 0.0295242 -0.308575 5.10952e-08 0
1747.63 2.30132e-06 2.24333e-06 5.79903e-08 0.0251987 -0.306566 4.22985e-08 0
1837.33 2.20052e-06 2.15316e-06 4.73639e-08 0.0215239 -0.304511 3.48745e-08 0
1931.64 2.10307e-06 2.06438e-06 3.86972e-08 0.0184003 -0.302426 2.86431e-08 0
2030.79 2.00986e-06 1.97825e-06 3.1603e-08 0.015724 -0.29988 2.34521e-08 0
2135.03 1.92054e-06 1.89475e-06 2.57905e-08 0.0134288 -0.296289 1.91451e-08 0
2244.63 1.83187e-06 1.81081e-06 2.10613e-08 0.0114971 -0.292679 1.55595e-08 0
2359.84 1.74419e-06 1.72699e-06 1.71981e-08 0.0098602 -0.289082 1.2592e-08 0
2480.97 1.65793e-06 1.64389e-06 1.40407e-08 0.0084688 -0.285526 1.01503e-08 0
2608.32 1.57358e-06 1.56212e-06 1.14633e-08 0.00728484 -0.28204 8.15264e-09 0
2742.21 1.49165e-06 1.48228e-06 9.36476e-09 0.00627814 -0.278647 6.52709e-09 0
2882.96 1.41241e-06 1.40476e-06 7.64894e-09 0.00541553 -0.275363 5.21035e-09 0
3030.95 1.33618e-06 1.32993e-06 6.24633e-09 0.00467477 -0.272201 4.14844e-09 0
3186.53 1.26329e-06 1.25819e-06 5.10281e-09 0.0040393 -0.269174 3.29569e-09 0
3350.09 1.19388e-06 1.18971e-06 4.16976e-09 0.00349261 -0.266286 2.61327e-09 0
3522.05 1.128e-06 1.12459e-06 3.40669e-09 0.00302012 -0.263538 2.06874e-09 0
3702.84 1.06566e-06 1.06287e-06 2.78272e-09 0.00261127 -0.26093 1.6354e-09 0
3892.91 1.00695e-06 1.00468e-06 2.2746e-09 0.00225889 -0.258461 1.2915e-09 0
4092.73 9.51713e-07 9.49853e-07 1.85913e-09 0.00195345 -0.256124 1.019e-09 0
4302.81 8.99803e-07 8.98284e-07 1.51923e-09 0.0016884 -0.253913 8.03393e-10 0
4523.68 8.51116e-07 8.49875e-07 1.2415e-09 0.00145867 -0.251821 6.33056e-10 0
4755.88 8.05552e-07 8.04537e-07 1.01512e-09 0.00126015 -0.249844 4.98663e-10 0
5000 7.62848e-07 7.62019e-07 8.29838e-10 0.00108782 -0.247971 3.92666e-10 0
